version,3.0
numOfCh,1
type,point
parent_name,4-cuts
ch_type,1_1
kcount,1
numberNandB,1
brightnessNandB,1
carpet pos,0
pc,0
Time (ms),CH1 Auto-Correlation
1.0,0.040270671248435974
2.0,0.03700918331742287
3.0,0.03424891456961632
4.0,0.03186540678143501
5.0,0.02983040362596512
6.0,0.02811957150697708
7.0,0.026523487642407417
8.0,0.02505623735487461
9.0,0.023715315386652946
10.0,0.022508272901177406
11.0,0.02138088457286358
12.0,0.02034858986735344
13.0,0.019429167732596397
14.0,0.01860903948545456
15.0,0.017823651432991028
16.0,0.016998939216136932
18.0,0.015575138852000237
20.0,0.01442786119878292
22.0,0.013485603965818882
24.0,0.012687936425209045
26.0,0.01197175681591034
28.0,0.01144049596041441
30.0,0.010817261412739754
32.0,0.010134602896869183
36.0,0.009428093209862709
40.0,0.00867817085236311
44.0,0.007884399965405464
48.0,0.007060607895255089
52.0,0.006551360245794058
56.0,0.0063849822618067265
60.0,0.0060680401511490345
64.0,0.005567807704210281
72.0,0.004542532376945019
80.0,0.0036028039176017046
88.0,0.0034041234757751226
96.0,0.002580868313089013
104.0,0.0019627981819212437
112.0,0.0018902296433225274
120.0,0.0019551587756723166
128.0,0.0019202413968741894
144.0,0.002131204353645444
160.0,0.003159504383802414
176.0,0.003205549204722047
192.0,0.0021990446839481592
208.0,0.002384644467383623
224.0,0.0018900953000411391
240.0,0.000586497422773391
256.0,-8.185363549273461e-05
288.0,-0.0009295069030486047
320.0,-0.0006248195422813296
352.0,-0.000691969005856663
384.0,-0.0001863304787548259
416.0,-0.0008677415899001062
448.0,-0.0014225959312170744
480.0,-0.001467633992433548
512.0,-0.0008903703419491649
576.0,-0.002222721464931965
640.0,0.0010045623639598489
704.0,0.0016011445550248027
768.0,-0.0008720362675376236
832.0,0.0013022440252825618
896.0,0.002899301704019308
960.0,0.00033532798988744617
1024.0,-0.0017013519536703825
1152.0,-0.0013048355467617512
1280.0,-0.0002264226641273126
1408.0,-0.0034714331850409508
1536.0,-0.00022772954253014177
1664.0,-0.0012301445240154862
1792.0,0.00043772856588475406
1920.0,-0.0008957283571362495
2048.0,-0.0013693139189854264
2304.0,0.0007940757204778492
2560.0,0.0007329771178774536
2816.0,-0.0002661679172888398
3072.0,-0.0007912808796390891
3328.0,0.00011040629033232108
3584.0,0.00024347673752345145
3840.0,-0.003150914330035448
4096.0,-0.0017536573577672243
4608.0,-0.0010651334887370467
5120.0,0.0009930722881108522
5632.0,0.0014926197472959757
6144.0,0.0009675950277596712
6656.0,-0.0002982700534630567
7168.0,-0.0011722276685759425
7680.0,0.00022715736122336239
8192.0,0.0008968355250544846
9216.0,-0.0005915192887187004
10240.0,-0.00023671639792155474
11264.0,0.00024004375154618174
12288.0,-0.00012170406989753246
13312.0,0.00018786305736284703
14336.0,-3.5714339901460335e-05
end
