version,3.0
numOfCh,1
type,point
parent_name,4-cuts
ch_type,1_1
kcount,1
numberNandB,1
brightnessNandB,1
carpet pos,0
pc,0
Time (ms),CH1 Auto-Correlation
1.0,0.027269214391708374
2.0,0.025208106264472008
3.0,0.023492811247706413
4.0,0.021952027454972267
5.0,0.02059469185769558
6.0,0.01944427564740181
7.0,0.01842110976576805
8.0,0.01752203330397606
9.0,0.016701385378837585
10.0,0.015991223976016045
11.0,0.01534978486597538
12.0,0.014718963764607906
13.0,0.014080661348998547
14.0,0.013420583680272102
15.0,0.012817669659852982
16.0,0.012257588095963001
18.0,0.011249092407524586
20.0,0.010339411906898022
22.0,0.009661653079092503
24.0,0.009133442305028439
26.0,0.008604319766163826
28.0,0.008077184669673443
30.0,0.007652288768440485
32.0,0.007293822709470987
36.0,0.006598029285669327
40.0,0.0062558590434491634
44.0,0.006064998917281628
48.0,0.005613842513412237
52.0,0.005261723883450031
56.0,0.005045261234045029
60.0,0.004754042252898216
64.0,0.0043168459087610245
72.0,0.003891556989401579
80.0,0.0034937828313559294
88.0,0.0030152916442602873
96.0,0.0027512020897120237
104.0,0.002590322168543935
112.0,0.0023101510014384985
120.0,0.0023582756984978914
128.0,0.002086350228637457
144.0,0.0010577692883089185
160.0,0.00028011464746668935
176.0,0.00033684464870020747
192.0,0.00019561074441298842
208.0,0.0010867875535041094
224.0,0.0015037119155749679
240.0,0.0007348220678977668
256.0,1.6940690329647623e-05
288.0,-0.0002711326815187931
320.0,0.00017911905888468027
352.0,-0.0011401526862755418
384.0,-0.000962762744165957
416.0,-0.0018672420410439372
448.0,-0.0011775924358516932
480.0,-0.0016408022493124008
512.0,-0.0011165515752509236
576.0,-0.00026948386221192777
640.0,0.0008799106581136584
704.0,0.0008583594462834299
768.0,0.00023038107610773295
832.0,-0.0005564973689615726
896.0,0.0008484302670694888
960.0,1.544999577163253e-05
1024.0,-0.0008239081362262368
1152.0,-0.0004390866379253566
1280.0,-0.0015085706254467368
1408.0,-0.0009943678742274642
1536.0,-0.0005790520226582885
1664.0,0.0008274224819615483
1792.0,0.0008809711434878409
1920.0,-0.0006369117763824761
2048.0,-0.00024151946126949042
2304.0,-0.0003216156910639256
2560.0,-0.001365951611660421
2816.0,-0.0006749373860657215
3072.0,0.00026805695961229503
3328.0,0.0014098016545176506
3584.0,0.00031923872302286327
3840.0,-0.00017494967323727906
4096.0,0.0007192124030552804
4608.0,-0.0012827422469854355
5120.0,-0.00010523644596105441
5632.0,-0.0006443978054448962
6144.0,0.00020610366482287645
6656.0,0.0005614336114376783
7168.0,0.0009773157071322203
7680.0,-0.00023728051746729761
8192.0,0.0003327612648718059
9216.0,-0.00041208468610420823
10240.0,0.0005625708727166057
11264.0,-0.0002554129168856889
12288.0,-0.00028360774740576744
13312.0,-0.0010389586677774787
14336.0,0.0006297556683421135
end
