version,3.0
numOfCh,1
type,point
parent_name,4-cuts
ch_type,1_1
kcount,1
numberNandB,1
brightnessNandB,1
carpet pos,0
pc,0
Time (ms),CH1 Auto-Correlation
1.0,0.04115506261587143
2.0,0.03787657245993614
3.0,0.035072825849056244
4.0,0.03269314020872116
5.0,0.030486131086945534
6.0,0.028477678075432777
7.0,0.026898372918367386
8.0,0.025460679084062576
9.0,0.02419167198240757
10.0,0.022960375994443893
11.0,0.021759895607829094
12.0,0.020591607317328453
13.0,0.01947539485991001
14.0,0.018470128998160362
15.0,0.017583081498742104
16.0,0.016738519072532654
18.0,0.015385622158646584
20.0,0.014298204332590103
22.0,0.013235563412308693
24.0,0.01227065920829773
26.0,0.011503969319164753
28.0,0.01088559441268444
30.0,0.01028243824839592
32.0,0.009748173877596855
36.0,0.008790209889411926
40.0,0.007866175845265388
44.0,0.007092395331710577
48.0,0.006427429150789976
52.0,0.0056811049580574036
56.0,0.004872660618275404
60.0,0.004498903173953295
64.0,0.004354715347290039
72.0,0.005084038712084293
80.0,0.0053402939811348915
88.0,0.005374729633331299
96.0,0.004835291299968958
104.0,0.0038641621358692646
112.0,0.003045119345188141
120.0,0.0025704067666083574
128.0,0.002410084242001176
144.0,0.002181155374273658
160.0,0.0014537674142047763
176.0,0.0005265601212158799
192.0,0.00011809673742391169
208.0,-0.0013767455238848925
224.0,-0.0022386815398931503
240.0,-0.0009447259362787008
256.0,0.00028961431235074997
288.0,0.000753058644477278
320.0,0.0002087266038870439
352.0,-0.001239720731973648
384.0,-0.0008986434550024569
416.0,-0.00023445270198863
448.0,0.0010367928771302104
480.0,0.0004917921032756567
512.0,-0.0002665203937795013
576.0,2.6663155949790962e-05
640.0,0.000550438417121768
704.0,0.0003973708371631801
768.0,0.0023402944207191467
832.0,0.0017276518046855927
896.0,0.0009954969864338636
960.0,-0.0005341576179489493
1024.0,3.7971163692418486e-05
1152.0,0.0012794503709301353
1280.0,-0.0002867190050892532
1408.0,2.769963066384662e-05
1536.0,0.00034973458969034255
1664.0,-0.0010376637801527977
1792.0,-0.0016341207083314657
1920.0,-0.0015267543494701385
2048.0,-0.002702158410102129
2304.0,1.9967066691606306e-05
2560.0,-0.0015825871378183365
2816.0,-0.0008952536736615002
3072.0,-0.001992765348404646
3328.0,-0.00011391772568458691
3584.0,-0.001712949015200138
3840.0,-0.0005584523314610124
4096.0,-0.0008997170371003449
4608.0,-0.0002443759876769036
5120.0,0.0009013157105073333
5632.0,0.000911402574274689
6144.0,0.0008550497586838901
6656.0,0.0007612098124809563
7168.0,0.0003301859542261809
7680.0,-0.0004241736314725131
8192.0,-0.0003119157045148313
9216.0,-0.0012711023446172476
10240.0,-0.0001346381613984704
11264.0,0.0007146390853449702
12288.0,-2.4864627334864053e-07
13312.0,0.00018494519463274628
14336.0,0.00018494839605409652
end
