version,3.0
numOfCh,1
type,point
parent_name,4-cuts
ch_type,1_1
kcount,1
numberNandB,1
brightnessNandB,1
carpet pos,0
pc,0
Time (ms),CH1 Auto-Correlation
1.0,0.028008829802274704
2.0,0.02577126957476139
3.0,0.02386169694364071
4.0,0.022170741111040115
5.0,0.020691584795713425
6.0,0.019371654838323593
7.0,0.018302736803889275
8.0,0.0173016469925642
9.0,0.016298390924930573
10.0,0.015334753319621086
11.0,0.014485045336186886
12.0,0.013706887140870094
13.0,0.013059857301414013
14.0,0.012459103949368
15.0,0.011950732208788395
16.0,0.011455405503511429
18.0,0.010708522982895374
20.0,0.010035347193479538
22.0,0.009366552345454693
24.0,0.00870964303612709
26.0,0.008127265609800816
28.0,0.007625478785485029
30.0,0.007112066261470318
32.0,0.006534258835017681
36.0,0.005388292949646711
40.0,0.00462390948086977
44.0,0.003966037184000015
48.0,0.00338594987988472
52.0,0.003028451930731535
56.0,0.0026733139529824257
60.0,0.002202243311330676
64.0,0.001662294496782124
72.0,0.0010703342268243432
80.0,0.0007918811752460897
88.0,0.0008397324127145112
96.0,0.0010243679862469435
104.0,0.0009728505392558873
112.0,0.00082631956320256
120.0,0.0007032055873423815
128.0,0.0005419716471806169
144.0,0.0015954684931784868
160.0,0.0022164753172546625
176.0,0.0016722771106287837
192.0,0.0005974515806883574
208.0,-0.0003394921659491956
224.0,-0.0004269624478183687
240.0,-5.21420115546789e-05
256.0,0.0007331984816119075
288.0,0.0010335446568205953
320.0,0.0009988435776904225
352.0,0.0007361315074376762
384.0,0.00010188729356741533
416.0,-1.4530021417158423e-06
448.0,-0.00033339374931529164
480.0,-0.001317614340223372
512.0,-0.00015893222007434815
576.0,0.00041884405072778463
640.0,0.0007749222568236291
704.0,3.796477903961204e-05
768.0,0.0003350440238136798
832.0,-0.000461449904832989
896.0,-0.0005691202240996063
960.0,-0.0001242334838025272
1024.0,-7.688620826229453e-05
1152.0,0.00012292995234020054
1280.0,-0.00021000624110456556
1408.0,0.0005560564459301531
1536.0,-0.0003009757201652974
1664.0,0.0013914060546085238
1792.0,0.0011219076113775373
1920.0,-0.0003678014036267996
2048.0,-0.0005619367584586143
2304.0,-0.00038699377910234034
2560.0,-0.00017482035036664456
2816.0,-0.0009019974386319518
3072.0,-0.000994486385025084
3328.0,1.5080747289175633e-05
3584.0,-0.00018220423953607678
3840.0,0.0006682902458123863
4096.0,-0.00026907361461780965
4608.0,-0.0001806000800570473
5120.0,-2.2374374566425104e-06
5632.0,0.0006829013000242412
6144.0,-6.143225618870929e-05
6656.0,-5.831020826008171e-05
7168.0,0.000254065846092999
7680.0,-2.5043559617188293e-06
8192.0,-0.0010788284707814455
9216.0,-0.0005115542444400489
10240.0,-0.0007273281225934625
11264.0,-7.025129889370874e-05
12288.0,6.178219337016344e-05
13312.0,0.00043840761645697057
14336.0,0.0003554800641722977
end
