version,3.0
numOfCh,1
type,point
parent_name,4-cuts
ch_type,1_1
kcount,1
numberNandB,1
brightnessNandB,1
carpet pos,0
pc,0
Time (ms),CH1 Auto-Correlation
1.0,0.03838653489947319
2.0,0.0352897085249424
3.0,0.03264230117201805
4.0,0.030396169051527977
5.0,0.028235217556357384
6.0,0.02628079243004322
7.0,0.024536149576306343
8.0,0.022982684895396233
9.0,0.02148163691163063
10.0,0.02021115832030773
11.0,0.019028864800930023
12.0,0.01793924905359745
13.0,0.016892801970243454
14.0,0.01588321663439274
15.0,0.015054832212626934
16.0,0.014262459240853786
18.0,0.012829585932195187
20.0,0.01166799571365118
22.0,0.01058155857026577
24.0,0.009623564779758453
26.0,0.009046519175171852
28.0,0.008606490679085255
30.0,0.008267655968666077
32.0,0.00791605282574892
36.0,0.007013801950961351
40.0,0.006122689228504896
44.0,0.005100926384329796
48.0,0.004248165059834719
52.0,0.003391672158613801
56.0,0.0026574127841740847
60.0,0.0025400256272405386
64.0,0.0026232090312987566
72.0,0.0023311860859394073
80.0,0.001821053447201848
88.0,0.00142858293838799
96.0,0.0009687985293567181
104.0,0.0010763357859104872
112.0,0.0006997453747317195
120.0,0.0007863735081627965
128.0,0.0011845005210489035
144.0,0.0008403052343055606
160.0,9.23705956665799e-05
176.0,-7.645715959370136e-05
192.0,-0.00014845223631709814
208.0,-0.000953788694459945
224.0,-0.0019427768420428038
240.0,-0.0014959308318793774
256.0,-0.0022850914392620325
288.0,-0.0024668388068675995
320.0,-0.003096900414675474
352.0,-0.002024519955739379
384.0,-0.0005780888604931533
416.0,0.0002974965318571776
448.0,0.0008967401226982474
480.0,0.0007886372623033822
512.0,0.000613539305049926
576.0,0.0037659916561096907
640.0,0.0018023825250566006
704.0,0.0011941313277930021
768.0,1.0368183211539872e-05
832.0,-0.0008645611233077943
896.0,-0.0008030463941395283
960.0,-0.0018209510017186403
1024.0,-0.0005927722086198628
1152.0,0.0007481157663278282
1280.0,-0.0008390421862713993
1408.0,-0.0006398730329237878
1536.0,-0.0015958412550389767
1664.0,-0.0003098149027209729
1792.0,7.358430593740195e-05
1920.0,-0.00023110680922400206
2048.0,-0.0018615860026329756
2304.0,-0.0002869002055376768
2560.0,0.0011241486063227057
2816.0,-0.0007502594962716103
3072.0,0.0010867742821574211
3328.0,3.4599463106133044e-05
3584.0,0.0002023465494858101
3840.0,-0.000638260506093502
4096.0,0.0001813578710425645
4608.0,-0.0005161100998520851
5120.0,0.00028200281667523086
5632.0,0.0005011946195736527
6144.0,0.00019106776744592935
6656.0,-0.00014024422853253782
7168.0,-0.0004315529949963093
7680.0,-0.0001638149406062439
8192.0,-1.8664839444682002e-05
9216.0,-8.932808123063296e-05
10240.0,4.5633558329427615e-05
11264.0,-0.0006444070604629815
12288.0,0.00035557308001443744
13312.0,0.001223835744895041
14336.0,-0.0002960885176435113
end
