version,3.0
numOfCh,1
type,point
parent_name,4-cuts
ch_type,1_1
kcount,1
numberNandB,1
brightnessNandB,1
carpet pos,0
pc,0
Time (ms),CH1 Auto-Correlation
1.0,0.025096453726291656
2.0,0.022982584312558174
3.0,0.02106057107448578
4.0,0.019414428621530533
5.0,0.01797121949493885
6.0,0.01669660583138466
7.0,0.015550807118415833
8.0,0.014546242542564869
9.0,0.013603470288217068
10.0,0.012772754766047001
11.0,0.012059230357408524
12.0,0.01140950433909893
13.0,0.010806223377585411
14.0,0.010282736271619797
15.0,0.00974756944924593
16.0,0.009216169826686382
18.0,0.008408583700656891
20.0,0.007657329551875591
22.0,0.007064376957714558
24.0,0.006509942468255758
26.0,0.0060829706490039825
28.0,0.00572959054261446
30.0,0.00553156016394496
32.0,0.005294862203299999
36.0,0.004680596757680178
40.0,0.004243297502398491
44.0,0.0039338949136435986
48.0,0.0036161872558295727
52.0,0.0032053296454250813
56.0,0.002669121604412794
60.0,0.0022855571005493402
64.0,0.0021787553559988737
72.0,0.0021157367154955864
80.0,0.0019334476673975587
88.0,0.0016122893430292606
96.0,0.0011215144768357277
104.0,0.0009240852668881416
112.0,0.0007212746422737837
120.0,3.7589170460705645e-06
128.0,-0.000523052120115608
144.0,-9.75637449300848e-05
160.0,0.00014671286044176668
176.0,0.0005346096004359424
192.0,0.0004578809894155711
208.0,-6.541905167978257e-05
224.0,-0.0003579963813535869
240.0,-0.0001299264549743384
256.0,0.00043206490227021277
288.0,-0.0006817046669311821
320.0,-0.00017124497389886528
352.0,-3.366074088262394e-05
384.0,-0.0004891356802545488
416.0,-0.00033374136546626687
448.0,-0.0009395232191309333
480.0,-0.0006296688225120306
512.0,-0.0012642130022868514
576.0,-0.0002877461665775627
640.0,-0.0007000871119089425
704.0,0.00019336360855959356
768.0,0.001341589610092342
832.0,8.099226397462189e-05
896.0,-0.000281461572740227
960.0,-0.0009602842619642615
1024.0,-5.769523704657331e-05
1152.0,0.00024647879763506353
1280.0,-6.128114910097793e-05
1408.0,-0.00031520341872237623
1536.0,0.00020033105101902038
1664.0,0.0003077358996961266
1792.0,-0.0001129754600697197
1920.0,0.00027388008311390877
2048.0,0.00025925805675797164
2304.0,-0.00015570229152217507
2560.0,-0.0003844309539999813
2816.0,0.00028186425333842635
3072.0,0.0005272817215882242
3328.0,-0.00021696557814721018
3584.0,1.4856252164463513e-05
3840.0,-0.00011189072392880917
4096.0,-2.8431912141968496e-05
4608.0,-9.432876595383277e-07
5120.0,-0.0002347238769289106
5632.0,-0.0004934034659527242
6144.0,-9.932214743457735e-05
6656.0,9.482260793447495e-05
7168.0,-0.0005357585614547133
7680.0,9.655142639530823e-05
8192.0,-4.620715480996296e-05
9216.0,-0.0003231318260077387
10240.0,-6.10436181887053e-05
11264.0,0.00011283127969363704
12288.0,0.00012773303024005145
13312.0,0.0001242187718162313
14336.0,0.00017770605336409062
end
