version,3.0
numOfCh,1
type,point
parent_name,4-cuts
ch_type,1_1
kcount,1
numberNandB,1
brightnessNandB,1
carpet pos,0
pc,0
Time (ms),CH1 Auto-Correlation
1.0,0.08769204467535019
2.0,0.08069031685590744
3.0,0.07462184131145477
4.0,0.06943362206220627
5.0,0.0649758130311966
6.0,0.06099633127450943
7.0,0.05762335658073425
8.0,0.05454721301794052
9.0,0.051815908402204514
10.0,0.04925663769245148
11.0,0.046961039304733276
12.0,0.0448029488325119
13.0,0.04272783547639847
14.0,0.04082615673542023
15.0,0.03918909281492233
16.0,0.03756744787096977
18.0,0.03438597545027733
20.0,0.031876590102910995
22.0,0.029874997213482857
24.0,0.0280324537307024
26.0,0.026534641161561012
28.0,0.025211015716195107
30.0,0.024155374616384506
32.0,0.02288694679737091
36.0,0.02033226564526558
40.0,0.017474185675382614
44.0,0.015960048884153366
48.0,0.01557358168065548
52.0,0.015132740139961243
56.0,0.014597248286008835
60.0,0.013367539271712303
64.0,0.011955422349274158
72.0,0.010637391358613968
80.0,0.009394354186952114
88.0,0.008466063067317009
96.0,0.008222042582929134
104.0,0.007779187522828579
112.0,0.006915353238582611
120.0,0.007689192425459623
128.0,0.006698020733892918
144.0,0.00418963935226202
160.0,0.0034177827183157206
176.0,0.0023047630675137043
192.0,0.0012525718193501234
208.0,0.00048399617662653327
224.0,-0.00028002963517792523
240.0,-0.0016355739207938313
256.0,-0.0016614042688161135
288.0,0.001896433881483972
320.0,-0.0002668939414434135
352.0,-0.0016449096146970987
384.0,0.0014991483185440302
416.0,0.0035438421182334423
448.0,0.0029239789582788944
480.0,0.003694582963362336
512.0,0.005544950254261494
576.0,0.003016251605004072
640.0,0.002430527936667204
704.0,-0.001590845175087452
768.0,-0.0019305861787870526
832.0,-0.002641462255269289
896.0,-0.0026358566246926785
960.0,0.002024604007601738
1024.0,0.00020400519133545458
1152.0,-0.00016966462135314941
1280.0,0.002894575707614422
1408.0,-0.002526638563722372
1536.0,0.0006025057518854737
1664.0,0.0033363993279635906
1792.0,-0.0008039599633775651
1920.0,-0.0009033586247824132
2048.0,-0.004150583874434233
2304.0,-0.0042531718499958515
2560.0,-0.0009103408083319664
2816.0,-0.004397845361381769
3072.0,-0.0004043372464366257
3328.0,0.0018712524324655533
3584.0,0.0025559922214597464
3840.0,-0.0003379729751031846
4096.0,-0.002581606851890683
4608.0,0.0005387178971432149
5120.0,-5.971487917122431e-05
5632.0,-0.0005130458157509565
6144.0,-0.0012720879167318344
6656.0,0.0006357756210491061
7168.0,8.569497367716394e-06
7680.0,-0.00020802485232707113
8192.0,0.00457412376999855
9216.0,-0.00038618454709649086
10240.0,-0.00544774578884244
11264.0,-0.0015142046613618731
12288.0,0.0030612607952207327
13312.0,-0.001214796444401145
14336.0,0.0020309672690927982
end
