version,3.0
numOfCh,1
type,point
parent_name,4-cuts
ch_type,1_1
kcount,1
numberNandB,1
brightnessNandB,1
carpet pos,0
pc,0
Time (ms),CH1 Auto-Correlation
1.0,0.08003883063793182
2.0,0.07369469851255417
3.0,0.06830457597970963
4.0,0.06355886906385422
5.0,0.05935452878475189
6.0,0.05574909225106239
7.0,0.05239216238260269
8.0,0.04936223849654198
9.0,0.04677260294556618
10.0,0.04458294063806534
11.0,0.0423918254673481
12.0,0.04038405045866966
13.0,0.03842678666114807
14.0,0.03660581260919571
15.0,0.03496227785944939
16.0,0.03320706635713577
18.0,0.030211610719561577
20.0,0.027541643008589745
22.0,0.024907998740673065
24.0,0.022581025958061218
26.0,0.020711243152618408
28.0,0.019488288089632988
30.0,0.018506422638893127
32.0,0.01741248369216919
36.0,0.015580801293253899
40.0,0.014538194984197617
44.0,0.01294573862105608
48.0,0.011968140490353107
52.0,0.011527260765433311
56.0,0.011087722145020962
60.0,0.011319086886942387
64.0,0.011180972680449486
72.0,0.010589702054858208
80.0,0.00902485940605402
88.0,0.008552001789212227
96.0,0.008493714965879917
104.0,0.008939572609961033
112.0,0.00771374674513936
120.0,0.0065718116238713264
128.0,0.006621959153562784
144.0,0.006344735622406006
160.0,0.0051974342204630375
176.0,0.0026039571966975927
192.0,0.00044941631495021284
208.0,0.0014503623824566603
224.0,-0.0005365354008972645
240.0,-4.397271550260484e-05
256.0,0.0006020396249368787
288.0,-0.0005398261127993464
320.0,0.0013305929023772478
352.0,0.0032683894969522953
384.0,0.003482550149783492
416.0,-0.002042239997535944
448.0,-0.0003750407777260989
480.0,0.0012948040384799242
512.0,-0.001541790785267949
576.0,-0.0014728964306414127
640.0,-0.002892483025789261
704.0,0.0022097514010965824
768.0,0.0004737609706353396
832.0,0.003739265725016594
896.0,-0.0010802206816151738
960.0,0.0014113119104877114
1024.0,0.0005662075709551573
1152.0,-0.0017153124790638685
1280.0,0.0003505596541799605
1408.0,-0.0016053452854976058
1536.0,-0.0034269471652805805
1664.0,-0.004065686371177435
1792.0,-0.0023248724173754454
1920.0,-0.0031837543938308954
2048.0,-0.001003415323793888
2304.0,-0.0030181785114109516
2560.0,0.0007141231326386333
2816.0,0.0006817566463723779
3072.0,-0.0018755665514618158
3328.0,0.00019699466065503657
3584.0,0.00471294904127717
3840.0,0.005129693076014519
4096.0,-0.0014514357317239046
4608.0,0.0017379734199494123
5120.0,-0.0025621713139116764
5632.0,0.00022078579058870673
6144.0,4.84423253510613e-05
6656.0,-0.0015423453878611326
7168.0,0.002361099934205413
7680.0,-0.0011591559741646051
8192.0,0.0015688369749113917
9216.0,-6.456981645897031e-05
10240.0,-0.0006898047286085784
11264.0,0.000670740962959826
12288.0,-0.00023267860524356365
13312.0,-0.0018254962051287293
14336.0,-0.0043276771903038025
end
