version,3.0
numOfCh,1
type,point
parent_name,4-cuts
ch_type,1_1
kcount,1
numberNandB,1
brightnessNandB,1
carpet pos,0
pc,0
Time (ms),CH1 Auto-Correlation
1.0,0.04350539296865463
2.0,0.040302544832229614
3.0,0.037508539855480194
4.0,0.03505256026983261
5.0,0.03277461230754852
6.0,0.03084612637758255
7.0,0.029095565900206566
8.0,0.027597853913903236
9.0,0.026317939162254333
10.0,0.025309743359684944
11.0,0.024338217452168465
12.0,0.02348201349377632
13.0,0.022753022611141205
14.0,0.02206495963037014
15.0,0.02139049582183361
16.0,0.02079865336418152
18.0,0.019702177494764328
20.0,0.018725600093603134
22.0,0.017845116555690765
24.0,0.017160676419734955
26.0,0.01634189859032631
28.0,0.015422576107084751
30.0,0.014594835229218006
32.0,0.013819072395563126
36.0,0.01283626351505518
40.0,0.012147217988967896
44.0,0.011529284529387951
48.0,0.010873908177018166
52.0,0.009870746172964573
56.0,0.00930871907621622
60.0,0.009130598977208138
64.0,0.008585241623222828
72.0,0.00797179900109768
80.0,0.007411713246256113
88.0,0.006685794331133366
96.0,0.006212444510310888
104.0,0.005312889348715544
112.0,0.004232213832437992
120.0,0.0035723168402910233
128.0,0.002976032206788659
144.0,0.00163259357213974
160.0,0.0018273356836289167
176.0,0.002193171763792634
192.0,0.0014866263372823596
208.0,0.0007472041179426014
224.0,0.001430266653187573
240.0,0.0019356866832822561
256.0,0.0016042155912145972
288.0,0.0004214273067191243
320.0,8.420386438956484e-05
352.0,0.0005498742102645338
384.0,0.00032746107899583876
416.0,0.0002096855896525085
448.0,0.0007751831435598433
480.0,0.0023217787966132164
512.0,0.0011009636800736189
576.0,-0.0003303435514681041
640.0,-0.002259674249216914
704.0,-0.0012432507937774062
768.0,0.0005877469666302204
832.0,0.001438666949979961
896.0,0.0003194563905708492
960.0,0.001139485975727439
1024.0,0.0014352683210745454
1152.0,0.0006847202312201262
1280.0,5.8164758229395375e-05
1408.0,-0.0023457370698451996
1536.0,-8.084422734100372e-05
1664.0,0.0016255585942417383
1792.0,-0.00019662725389935076
1920.0,-0.003422494512051344
2048.0,-0.0011779892956838012
2304.0,-0.002130581298843026
2560.0,-0.001468335627578199
2816.0,0.002537898486480117
3072.0,-0.0010350467637181282
3328.0,-0.0020085314754396677
3584.0,-0.0008104247390292585
3840.0,0.0024493541568517685
4096.0,0.0007839848985895514
4608.0,-0.0008556340471841395
5120.0,-0.00018840540724340826
5632.0,-0.0020863248500972986
6144.0,0.0007693310617469251
6656.0,0.0007127869175747037
7168.0,-0.0006092011462897062
7680.0,-0.0009313855553045869
8192.0,0.0009902127785608172
9216.0,-0.0011244980851188302
10240.0,0.0015753903426229954
11264.0,0.002057975623756647
12288.0,4.466844620765187e-05
13312.0,-0.0017777876928448677
14336.0,0.00034594713361002505
end
