version,3.0
numOfCh,1
type,point
parent_name,4-cuts
ch_type,1_1
kcount,1
numberNandB,1
brightnessNandB,1
carpet pos,0
pc,0
Time (ms),CH1 Auto-Correlation
1.0,0.08599105477333069
2.0,0.07913830876350403
3.0,0.07319264858961105
4.0,0.0680742859840393
5.0,0.06354745477437973
6.0,0.05951777473092079
7.0,0.055956050753593445
8.0,0.052566103637218475
9.0,0.04968349635601044
10.0,0.0470769889652729
11.0,0.04477377608418465
12.0,0.04271015152335167
13.0,0.04071544110774994
14.0,0.038777124136686325
15.0,0.037088360637426376
16.0,0.03571855276823044
18.0,0.03332072123885155
20.0,0.03129829838871956
22.0,0.029029954224824905
24.0,0.027046572417020798
26.0,0.02532278560101986
28.0,0.023818952962756157
30.0,0.022295981645584106
32.0,0.020926576107740402
36.0,0.018361562862992287
40.0,0.015729995444417
44.0,0.013730436563491821
48.0,0.012634729966521263
52.0,0.01204474177211523
56.0,0.01138561125844717
60.0,0.010243665426969528
64.0,0.0093387421220541
72.0,0.009749903343617916
80.0,0.009849323891103268
88.0,0.009390335530042648
96.0,0.007986088283360004
104.0,0.0066387043334543705
112.0,0.005840587895363569
120.0,0.00548052042722702
128.0,0.005932861473411322
144.0,0.0037306933663785458
160.0,0.0061902860179543495
176.0,0.008410567417740822
192.0,0.0054621766321361065
208.0,0.0015306337736546993
224.0,3.84846753149759e-05
240.0,0.0019336206605657935
256.0,0.004296220373362303
288.0,0.004289593081921339
320.0,0.005639403592795134
352.0,0.0045395344495773315
384.0,0.001737015089020133
416.0,0.0018522682366892695
448.0,0.0030524327885359526
480.0,0.005409922916442156
512.0,0.0008568527991883457
576.0,0.00021352717885747552
640.0,0.0015463517047464848
704.0,-0.0011548924958333373
768.0,0.001751423580572009
832.0,-0.0014741352060809731
896.0,-0.002753576496616006
960.0,0.001108044059947133
1024.0,0.0011927004670724273
1152.0,0.002753116888925433
1280.0,0.0027666552923619747
1408.0,0.0020064152777194977
1536.0,0.001277647796086967
1664.0,0.0032156745437532663
1792.0,0.0019787235651165247
1920.0,-0.0020222761668264866
2048.0,-0.0041264733299613
2304.0,-0.0021837339736521244
2560.0,0.0010631292825564742
2816.0,0.0010053733130916953
3072.0,-0.00013170125021133572
3328.0,-0.004048970062285662
3584.0,-0.0044745770283043385
3840.0,-0.00572564359754324
4096.0,-0.0031607295386493206
4608.0,-0.001010970794595778
5120.0,-0.004287841264158487
5632.0,-0.00020550111366901547
6144.0,-0.002435262780636549
6656.0,-0.0030527664348483086
7168.0,0.0017835174221545458
7680.0,0.0018163771601393819
8192.0,0.0028830005321651697
9216.0,0.0025956120807677507
10240.0,0.0019917318131774664
11264.0,-0.0009225956164300442
12288.0,-0.002011562930420041
13312.0,-0.0009297712240368128
14336.0,-0.0005403605755418539
end
