version,3.0
numOfCh,1
type,point
parent_name,4-cuts
ch_type,1_1
kcount,1
numberNandB,1
brightnessNandB,1
carpet pos,0
pc,0
Time (ms),CH1 Auto-Correlation
1.0,0.09323267638683319
2.0,0.08643608540296555
3.0,0.08062990754842758
4.0,0.07553378492593765
5.0,0.07122345268726349
6.0,0.06739162653684616
7.0,0.06409885734319687
8.0,0.06095944717526436
9.0,0.05805479362607002
10.0,0.05540529638528824
11.0,0.05301757529377937
12.0,0.050783608108758926
13.0,0.04884224385023117
14.0,0.04698263481259346
15.0,0.04538789764046669
16.0,0.043838631361722946
18.0,0.04151594266295433
20.0,0.039411041885614395
22.0,0.03758370131254196
24.0,0.03596753254532814
26.0,0.034417714923620224
28.0,0.032710567116737366
30.0,0.03091445378959179
32.0,0.02950654737651348
36.0,0.02775736339390278
40.0,0.026085546240210533
44.0,0.024115566164255142
48.0,0.022118374705314636
52.0,0.02023959532380104
56.0,0.018884126096963882
60.0,0.017619766294956207
64.0,0.016139650717377663
72.0,0.012613686732947826
80.0,0.010342388413846493
88.0,0.010388289578258991
96.0,0.010353300720453262
104.0,0.011696213856339455
112.0,0.012330178171396255
120.0,0.011805431917309761
128.0,0.010271888226270676
144.0,0.008250254206359386
160.0,0.007928416132926941
176.0,0.007228841073811054
192.0,0.006222190801054239
208.0,0.005192514508962631
224.0,0.002966230735182762
240.0,0.0030789843294769526
256.0,0.0024644150398671627
288.0,0.00308732851408422
320.0,0.003651811508461833
352.0,0.004197611473500729
384.0,0.0017941022524610162
416.0,0.0031069903634488583
448.0,0.004451412707567215
480.0,0.005438872147351503
512.0,0.002953597344458103
576.0,0.003800836857408285
640.0,0.002176945796236396
704.0,0.00019926113600376993
768.0,0.0008617036510258913
832.0,-0.0002132409135811031
896.0,0.0014117046957835555
960.0,0.002693220041692257
1024.0,0.005130128934979439
1152.0,0.0013132744934409857
1280.0,-0.0020236661657691
1408.0,0.000612221600022167
1536.0,0.002803043695166707
1664.0,-0.0005862466059625149
1792.0,0.0003397167020011693
1920.0,0.001912090228870511
2048.0,0.002638930454850197
2304.0,-0.0023695204872637987
2560.0,-0.0005239497404545546
2816.0,-0.0031975682359188795
3072.0,-0.0033155304845422506
3328.0,-0.002799268811941147
3584.0,-0.006743845529854298
3840.0,0.000723965757060796
4096.0,0.002941020065918565
4608.0,-0.002409237902611494
5120.0,-0.0010321720037609339
5632.0,-0.0021576089784502983
6144.0,-0.001771868672221899
6656.0,-0.0005241450271569192
7168.0,-0.002919594058766961
7680.0,-0.0026366424281150103
8192.0,8.62533415784128e-05
9216.0,0.001982187619432807
10240.0,0.004152389708906412
11264.0,0.0024146507494151592
12288.0,0.0021071797236800194
13312.0,-0.006226515397429466
14336.0,-0.006973589304834604
end
