version,3.0
numOfCh,1
type,point
parent_name,4-cuts
ch_type,1_1
kcount,1
numberNandB,1
brightnessNandB,1
carpet pos,0
pc,0
Time (ms),CH1 Auto-Correlation
1.0,0.029074417427182198
2.0,0.026911405846476555
3.0,0.0250933226197958
4.0,0.023480473086237907
5.0,0.022014273330569267
6.0,0.02074168063700199
7.0,0.01958155445754528
8.0,0.018593160435557365
9.0,0.017678983509540558
10.0,0.01683415099978447
11.0,0.016080915927886963
12.0,0.015376508235931396
13.0,0.014685429632663727
14.0,0.014087420888245106
15.0,0.013483433052897453
16.0,0.013004719279706478
18.0,0.01213844120502472
20.0,0.011323420330882072
22.0,0.010524359531700611
24.0,0.009868198074400425
26.0,0.00927378237247467
28.0,0.008764650672674179
30.0,0.008252255618572235
32.0,0.007715220563113689
36.0,0.0067769261077046394
40.0,0.005808904767036438
44.0,0.004992910660803318
48.0,0.004379954654723406
52.0,0.0036846499424427748
56.0,0.003000019583851099
60.0,0.0024075715336948633
64.0,0.0019022643100470304
72.0,0.0016306531615555286
80.0,0.001797158271074295
88.0,0.0012466933112591505
96.0,0.00031417381251230836
104.0,-0.0009589891415089369
112.0,-0.0013107024133205414
120.0,-0.0011715041473507881
128.0,-0.000850844313390553
144.0,-4.9996451707556844e-05
160.0,0.000870478106662631
176.0,0.0009551220573484898
192.0,0.001008560648187995
208.0,0.0009314506896771491
224.0,0.001007669954560697
240.0,0.0012713286560028791
256.0,0.0005171936354599893
288.0,0.0003619908820837736
320.0,0.0004237731627654284
352.0,-7.639191608177498e-06
384.0,0.0009452545782551169
416.0,0.0016087733674794436
448.0,0.0004687265318352729
480.0,-0.0007271076901815832
512.0,-0.001577666262164712
576.0,-0.0012131526600569487
640.0,0.0002160715957870707
704.0,-0.0006495300913229585
768.0,-0.001722278306260705
832.0,8.046625589486212e-05
896.0,0.0003052989486604929
960.0,-0.002553533995524049
1024.0,-0.0016682965215295553
1152.0,-0.0003135197330266237
1280.0,-0.0008546274621039629
1408.0,-0.00013425800716504455
1536.0,0.0011364331003278494
1664.0,0.0008258277084678411
1792.0,0.001009313971735537
1920.0,-7.759631262160838e-05
2048.0,-0.0002597722050268203
2304.0,0.0006335737416520715
2560.0,-0.00027537019923329353
2816.0,-0.0008969294722191989
3072.0,-0.0006383074214681983
3328.0,-0.000449252751423046
3584.0,-0.00040006640483625233
3840.0,0.0004361117316875607
4096.0,0.0006895562401041389
4608.0,0.00023373207659460604
5120.0,-0.0012862945441156626
5632.0,0.0003919933515135199
6144.0,0.00019637674267869443
6656.0,-0.0011315974406898022
7168.0,0.00010620519606163725
7680.0,0.00016814656555652618
8192.0,0.0002271326375193894
9216.0,-0.000615813652984798
10240.0,0.0004237482789903879
11264.0,5.234148193267174e-05
12288.0,-0.00026902396348305047
13312.0,0.00015322209219448268
14336.0,-0.00012241282092873007
end
