version,3.0
numOfCh,1
type,point
parent_name,4-cuts
ch_type,1_1
kcount,1
numberNandB,1
brightnessNandB,1
carpet pos,0
pc,0
Time (ms),CH1 Auto-Correlation
1.0,0.08443482965230942
2.0,0.07763045281171799
3.0,0.07203998416662216
4.0,0.06711533665657043
5.0,0.06274916976690292
6.0,0.05890681594610214
7.0,0.0552532933652401
8.0,0.05199563875794411
9.0,0.04919183626770973
10.0,0.04685704782605171
11.0,0.044841866940259933
12.0,0.042904485017061234
13.0,0.04120567440986633
14.0,0.03959972411394119
15.0,0.037917301058769226
16.0,0.036383431404829025
18.0,0.03347284346818924
20.0,0.031104452908039093
22.0,0.029103592038154602
24.0,0.02757725864648819
26.0,0.026187613606452942
28.0,0.024894719943404198
30.0,0.024063361808657646
32.0,0.023165641352534294
36.0,0.02138706110417843
40.0,0.01984991692006588
44.0,0.018242770805954933
48.0,0.01685269922018051
52.0,0.016470447182655334
56.0,0.016724497079849243
60.0,0.016173886135220528
64.0,0.015097579918801785
72.0,0.012752698734402657
80.0,0.009913596324622631
88.0,0.008665834553539753
96.0,0.010268205776810646
104.0,0.010969441384077072
112.0,0.011420849710702896
120.0,0.009683544747531414
128.0,0.008347022347152233
144.0,0.006494071334600449
160.0,0.004440773744136095
176.0,0.0039373040199279785
192.0,0.002672277158126235
208.0,0.004229223821312189
224.0,0.005183875095099211
240.0,0.0028984127566218376
256.0,1.6047846656874754e-05
288.0,-0.0003039122384507209
320.0,-0.0006477688439190388
352.0,-0.00023756812151987106
384.0,0.001848898478783667
416.0,0.001744484412483871
448.0,0.0014785367529839277
480.0,0.0041175466030836105
512.0,0.002021686639636755
576.0,-0.0007375762215815485
640.0,-0.0029052963946014643
704.0,-0.001002162229269743
768.0,-0.000655729731079191
832.0,0.002013613935559988
896.0,0.0030287241097539663
960.0,0.0033844592981040478
1024.0,-0.0001229853369295597
1152.0,-0.001631115097552538
1280.0,-0.0019981213845312595
1408.0,-0.002857188694179058
1536.0,-0.003281286684796214
1664.0,0.0019185638520866632
1792.0,0.0029957315418869257
1920.0,0.0011376506881788373
2048.0,0.0004908440168946981
2304.0,-0.0001569844753248617
2560.0,-0.00016849445819389075
2816.0,-0.0009616623283363879
3072.0,-0.00046205983380787075
3328.0,-0.0007818136364221573
3584.0,-0.0020388260018080473
3840.0,0.0004077383491676301
4096.0,0.000556335027795285
4608.0,-0.0017795455642044544
5120.0,-4.3918324081460014e-05
5632.0,-0.0024777045473456383
6144.0,-0.000995700596831739
6656.0,0.0011414624750614166
7168.0,-0.0009923784527927637
7680.0,-0.0026891150046139956
8192.0,0.003500976599752903
9216.0,-0.0027872903738170862
10240.0,0.004821508191525936
11264.0,-0.005015259608626366
12288.0,-0.00336244679056108
13312.0,0.0003996562445536256
14336.0,0.0013604590203613043
end
