version,3.0
numOfCh,1
type,point
parent_name,4-cuts
ch_type,1_1
kcount,1
numberNandB,1
brightnessNandB,1
carpet pos,0
pc,0
Time (ms),CH1 Auto-Correlation
1.0,0.02409597858786583
2.0,0.022039474919438362
3.0,0.020263008773326874
4.0,0.01871892437338829
5.0,0.01734963245689869
6.0,0.016100123524665833
7.0,0.01500144973397255
8.0,0.014059610664844513
9.0,0.013316219672560692
10.0,0.012668934650719166
11.0,0.012150299735367298
12.0,0.011665388941764832
13.0,0.011177296750247478
14.0,0.010694615542888641
15.0,0.010299229063093662
16.0,0.009948796592652798
18.0,0.00932743027806282
20.0,0.008661461062729359
22.0,0.008076156489551067
24.0,0.0075805215165019035
26.0,0.007188915275037289
28.0,0.006827129516750574
30.0,0.00650078384205699
32.0,0.0060935672372579575
36.0,0.005535781849175692
40.0,0.005226936191320419
44.0,0.004776012618094683
48.0,0.004370951093733311
52.0,0.004079226404428482
56.0,0.0037442331667989492
60.0,0.0034826709888875484
64.0,0.003317593364045024
72.0,0.0028202151879668236
80.0,0.002592542441561818
88.0,0.0025924339424818754
96.0,0.00210388982668519
104.0,0.0016545132966712117
112.0,0.001713683013804257
120.0,0.0017470407765358686
128.0,0.0016218448290601373
144.0,0.0017561877612024546
160.0,0.001821573474444449
176.0,0.0015980696771293879
192.0,0.0020002115052193403
208.0,0.0016510760178789496
224.0,0.001100042019970715
240.0,0.00013513864541891962
256.0,-0.0007516752812080085
288.0,0.0006309123709797859
320.0,0.0009035998955368996
352.0,0.00045394329936243594
384.0,0.00016806501662358642
416.0,0.0002955526579171419
448.0,-0.0002584140747785568
480.0,0.00034539279295131564
512.0,0.0006410611094906926
576.0,0.001297359704039991
640.0,0.001758255297318101
704.0,1.5171666746027768e-05
768.0,0.0001599350362084806
832.0,0.0010848852107301354
896.0,-0.00019266034360043705
960.0,0.00017350944108329713
1024.0,0.0004892994766123593
1152.0,0.000873935641720891
1280.0,0.0007005252409726381
1408.0,0.0002688974200282246
1536.0,-0.00034027054789476097
1664.0,-9.397247049491853e-05
1792.0,0.00031903828494250774
1920.0,-4.3863572500413284e-05
2048.0,-0.0007600925164297223
2304.0,-0.0011943646240979433
2560.0,-0.001006120233796537
2816.0,-0.0015728033613413572
3072.0,-0.0008428675355389714
3328.0,-0.0015007654437795281
3584.0,-0.0014573832741007209
3840.0,-0.0006581955822184682
4096.0,-0.0012088902294635773
4608.0,-0.00052847113693133
5120.0,0.0004947705310769379
5632.0,0.0008354093879461288
6144.0,0.0006567169330082834
6656.0,0.000809564080554992
7168.0,0.0014015388442203403
7680.0,0.000302515720250085
8192.0,-0.00011354874732205644
9216.0,-0.0004917124751955271
10240.0,-0.0010854299180209637
11264.0,-0.0008488285820931196
12288.0,0.0003593806177377701
13312.0,0.0003094081475865096
14336.0,0.0013510823482647538
end
