version,3.0
numOfCh,1
type,point
parent_name,4-cuts
ch_type,1_1
kcount,1
numberNandB,1
brightnessNandB,1
carpet pos,0
pc,0
Time (ms),CH1 Auto-Correlation
1.0,0.040063515305519104
2.0,0.036769479513168335
3.0,0.034007251262664795
4.0,0.03151910752058029
5.0,0.029415959492325783
6.0,0.027620766311883926
7.0,0.0261039100587368
8.0,0.024758201092481613
9.0,0.023559410125017166
10.0,0.02238382212817669
11.0,0.021247895434498787
12.0,0.02015557326376438
13.0,0.019113419577479362
14.0,0.018199989572167397
15.0,0.017344852909445763
16.0,0.016566485166549683
18.0,0.015237665735185146
20.0,0.014003193005919456
22.0,0.012910373508930206
24.0,0.01190272718667984
26.0,0.01083889976143837
28.0,0.00994181726127863
30.0,0.009216878563165665
32.0,0.008520213887095451
36.0,0.007570329122245312
40.0,0.006744455546140671
44.0,0.0061365170404314995
48.0,0.005561390891671181
52.0,0.005029208492487669
56.0,0.004696688614785671
60.0,0.004226964898407459
64.0,0.003580409334972501
72.0,0.002617430640384555
80.0,0.002326947869732976
88.0,0.0023652694653719664
96.0,0.0024247581604868174
104.0,0.002219668123871088
112.0,0.0016848897794261575
120.0,0.0010937893530353904
128.0,0.0007453133002854884
144.0,0.0003158701001666486
160.0,-0.0003354238870088011
176.0,-0.0004975497140549123
192.0,-0.00015960729797370732
208.0,0.00044247243204154074
224.0,0.0008133929804898798
240.0,0.0007297758711501956
256.0,-0.0003815198433585465
288.0,-0.0006893126992508769
320.0,-0.0011288848472759128
352.0,-0.0010676634265109897
384.0,-0.0023297229781746864
416.0,-0.0027942454908043146
448.0,-0.0021545696072280407
480.0,-0.001338820206001401
512.0,-0.0009939082665368915
576.0,0.0009495492558926344
640.0,0.0003152580466121435
704.0,-0.0005691000260412693
768.0,-0.0019772895611822605
832.0,0.0016693024663254619
896.0,0.00034001984749920666
960.0,0.001097961561754346
1024.0,0.0017888769507408142
1152.0,0.0016468986868858337
1280.0,0.0016255310038104653
1408.0,-1.1012576578650624e-05
1536.0,-0.0014811706496402621
1664.0,-0.0017982064746320248
1792.0,-0.00010782034223666415
1920.0,0.000700493692420423
2048.0,-0.00042715834570117295
2304.0,0.0007961500086821616
2560.0,-0.000531985773704946
2816.0,-0.0007182520348578691
3072.0,-0.0008855930063873529
3328.0,0.00046799337724223733
3584.0,-3.533182098180987e-05
3840.0,-0.00036065137828700244
4096.0,-0.0006576098967343569
4608.0,0.000942341226618737
5120.0,-3.075722634093836e-05
5632.0,0.0007571376045234501
6144.0,-0.0004522427043411881
6656.0,0.00010051726712845266
7168.0,-0.0008295970037579536
7680.0,-0.00111979094799608
8192.0,-0.0006977929151616991
9216.0,-0.00035553050111047924
10240.0,-0.00016049390251282603
11264.0,2.5514376829960383e-05
12288.0,5.384922042139806e-05
13312.0,0.00040234733023680747
14336.0,0.0007051939028315246
end
