version,3.0
numOfCh,1
type,point
parent_name,4-cuts
ch_type,1_1
kcount,1
numberNandB,1
brightnessNandB,1
carpet pos,0
pc,0
Time (ms),CH1 Auto-Correlation
1.0,0.0946459025144577
2.0,0.08773171156644821
3.0,0.08170723170042038
4.0,0.07621144503355026
5.0,0.07142273336648941
6.0,0.06728889793157578
7.0,0.06373805552721024
8.0,0.06067381054162979
9.0,0.057840920984745026
10.0,0.05500991269946098
11.0,0.05260666087269783
12.0,0.05040327459573746
13.0,0.04828856885433197
14.0,0.04641595482826233
15.0,0.04469558224081993
16.0,0.04305431246757507
18.0,0.039899662137031555
20.0,0.037118248641490936
22.0,0.03499505668878555
24.0,0.033273883163928986
26.0,0.031668733805418015
28.0,0.02989843115210533
30.0,0.028263911604881287
32.0,0.02637649141252041
36.0,0.02275216393172741
40.0,0.019734857603907585
44.0,0.018047815188765526
48.0,0.016093328595161438
52.0,0.014739198610186577
56.0,0.013922666199505329
60.0,0.013097601942718029
64.0,0.01267447043210268
72.0,0.012352670542895794
80.0,0.01367504894733429
88.0,0.013402095064520836
96.0,0.012338090687990189
104.0,0.01115043368190527
112.0,0.009915417991578579
120.0,0.00813799723982811
128.0,0.006637552287429571
144.0,0.005139132961630821
160.0,0.005514353513717651
176.0,0.00408762926235795
192.0,0.0029388254042714834
208.0,0.0006429717759601772
224.0,0.00023341247288044542
240.0,-0.0011704193893820047
256.0,-0.0011632653186097741
288.0,-0.0004698155680671334
320.0,-0.0016079820925369859
352.0,-0.0035824254155158997
384.0,-0.0005842306418344378
416.0,0.00232500396668911
448.0,0.0025465572252869606
480.0,0.0002875319332815707
512.0,-0.001400902634486556
576.0,0.0014773556031286716
640.0,-0.001442951848730445
704.0,-0.0031219085212796926
768.0,-0.0025523111689835787
832.0,0.0008902287809178233
896.0,-3.3698415791150182e-06
960.0,-0.0016867007361724973
1024.0,0.0011192363454028964
1152.0,-0.0019112970912829041
1280.0,0.0010352141689509153
1408.0,0.0022465873043984175
1536.0,-0.0014592643128708005
1664.0,-0.0021930972579866648
1792.0,-0.0007082392694428563
1920.0,-0.0015122262993827462
2048.0,-0.003693033941090107
2304.0,-0.0030445477459579706
2560.0,-0.0030217343010008335
2816.0,-0.002030495321378112
3072.0,-0.004287362564355135
3328.0,0.0013974650064483285
3584.0,0.0025235165376216173
3840.0,0.0027004790026694536
4096.0,0.0035404800437390804
4608.0,0.0014866050332784653
5120.0,0.001417769119143486
5632.0,-0.0005130469799041748
6144.0,-0.0028290485497564077
6656.0,-0.00210833759047091
7168.0,0.0014193328097462654
7680.0,-0.001714238547720015
8192.0,0.0027151990216225386
9216.0,-0.0011317681055516005
10240.0,-0.002195326378569007
11264.0,-0.0003863871388603002
12288.0,0.0031402623280882835
13312.0,0.0010353473480790854
14336.0,0.001103225164115429
end
