version,3.0
numOfCh,1
type,point
parent_name,4-cuts
ch_type,1_1
kcount,1
numberNandB,1
brightnessNandB,1
carpet pos,0
pc,0
Time (ms),CH1 Auto-Correlation
1.0,0.027175672352313995
2.0,0.024986552074551582
3.0,0.023231618106365204
4.0,0.021714724600315094
5.0,0.020399898290634155
6.0,0.019281014800071716
7.0,0.01824542135000229
8.0,0.017368648201227188
9.0,0.016563838347792625
10.0,0.01588384434580803
11.0,0.015221294946968555
12.0,0.014577634632587433
13.0,0.013996725901961327
14.0,0.01350493635982275
15.0,0.013063590042293072
16.0,0.012643491849303246
18.0,0.011892314068973064
20.0,0.011171862483024597
22.0,0.010419673286378384
24.0,0.009783444926142693
26.0,0.009250909090042114
28.0,0.008773080073297024
30.0,0.008301077410578728
32.0,0.007867046631872654
36.0,0.007103382609784603
40.0,0.006416794378310442
44.0,0.0059065986424684525
48.0,0.005411370657384396
52.0,0.005282951518893242
56.0,0.005375565495342016
60.0,0.005443944130092859
64.0,0.005303463898599148
72.0,0.004491127096116543
80.0,0.0038247343618422747
88.0,0.0036774245090782642
96.0,0.0038158141542226076
104.0,0.004038397688418627
112.0,0.0040913973934948444
120.0,0.0041726212948560715
128.0,0.0042689791880548
144.0,0.003482125699520111
160.0,0.0030680447816848755
176.0,0.002099418779835105
192.0,0.0014160460559651256
208.0,0.0009973725536838174
224.0,0.000589570845477283
240.0,-1.553391120978631e-05
256.0,0.0002591775846667588
288.0,0.00020740870968438685
320.0,-0.0002116657269652933
352.0,-0.00022082962095737457
384.0,-0.000270301679847762
416.0,0.0005353478481993079
448.0,-0.00012144433276262134
480.0,4.298749263398349e-05
512.0,0.0004073136078659445
576.0,-5.989940109429881e-05
640.0,-0.0007748320349492133
704.0,-0.002923953114077449
768.0,-0.0026301622856408358
832.0,-0.0032518927473574877
896.0,-0.0015256128972396255
960.0,-0.00014734326396137476
1024.0,-0.0004012659192085266
1152.0,0.0005025676800869405
1280.0,-0.00045188702642917633
1408.0,1.4331929378386121e-05
1536.0,1.9829714801744558e-05
1664.0,-0.0002004929119721055
1792.0,-0.0007365931523963809
1920.0,-0.00016325076285284013
2048.0,0.0005455320933833718
2304.0,0.0013947351835668087
2560.0,0.0009847963228821754
2816.0,-0.001364169642329216
3072.0,-0.0013021634658798575
3328.0,-0.0017921803519129753
3584.0,0.0002617620339151472
3840.0,0.00022387677745427936
4096.0,-0.0008730273111723363
4608.0,0.00010923333320533857
5120.0,0.000451629952294752
5632.0,-0.00035578288952820003
6144.0,-0.00019615126075223088
6656.0,0.00014887216093484312
7168.0,-9.654696623329073e-05
7680.0,0.0020735273137688637
8192.0,-0.000502424081787467
9216.0,3.375935193616897e-05
10240.0,-0.0013485901290550828
11264.0,0.00030170122045092285
12288.0,0.0007267631590366364
13312.0,0.0007290446083061397
14336.0,0.00010679019760573283
end
