version,3.0
numOfCh,1
type,point
parent_name,484af_0dot2-0dot01
ch_type,1_1
kcount,1
numberNandB,1
brightnessNandB,1
carpet pos,0
pc,0
Time (ms),CH1 Auto-Correlation
1.0,0.03442062810063362
2.0,0.03386164829134941
3.0,0.033313777297735214
4.0,0.03276954963803291
5.0,0.032243262976408005
6.0,0.0317394882440567
7.0,0.031251586973667145
8.0,0.030766841024160385
9.0,0.030278470367193222
10.0,0.02979639172554016
11.0,0.029330722987651825
12.0,0.028876803815364838
13.0,0.028425484895706177
14.0,0.027995580807328224
15.0,0.027581674978137016
16.0,0.027190648019313812
18.0,0.026432722806930542
20.0,0.025706836953759193
22.0,0.02500169537961483
24.0,0.02430078200995922
26.0,0.023648103699088097
28.0,0.023032959550619125
30.0,0.02244330756366253
32.0,0.021836822852492332
36.0,0.020737871527671814
40.0,0.019724654033780098
44.0,0.01876574568450451
48.0,0.017865926027297974
52.0,0.01699543371796608
56.0,0.01615315116941929
60.0,0.015402480028569698
64.0,0.014751295559108257
72.0,0.013821413740515709
80.0,0.013147211633622646
88.0,0.012332551181316376
96.0,0.011621211655437946
104.0,0.010868743062019348
112.0,0.009960045106709003
120.0,0.009257993660867214
128.0,0.008718442171812057
144.0,0.008213339373469353
160.0,0.007703551556915045
176.0,0.00779254175722599
192.0,0.007707640063017607
208.0,0.007142570335417986
224.0,0.006663949694484472
240.0,0.006165961269289255
256.0,0.005427450407296419
288.0,0.004898632876574993
320.0,0.004025987349450588
352.0,0.002345820190384984
384.0,0.000934121198952198
416.0,0.0007434495491907
448.0,0.00025789043866097927
480.0,-0.000530879246070981
512.0,-0.000830994569696486
576.0,-0.0011523071443662047
640.0,1.0388412192696705e-05
704.0,-0.0012208435218781233
768.0,-0.004170855972915888
832.0,-0.0047113592736423016
896.0,-0.0037186697591096163
960.0,-0.0030111949890851974
1024.0,-0.0036922981962561607
1152.0,-0.004915964789688587
1280.0,-0.0036080260761082172
1408.0,-0.002277171239256859
1536.0,-0.0006961001199670136
1664.0,-0.0008956306264735758
1792.0,0.00021343804837670177
1920.0,0.0025506794918328524
2048.0,0.0032047308050096035
2304.0,0.001459485967643559
2560.0,0.0010486239334568381
2816.0,-0.0016349145444110036
3072.0,-0.004811154678463936
3328.0,-0.004940989892929792
3584.0,-0.0028702199924737215
3840.0,-0.002528448821976781
4096.0,-0.0038076969794929028
4608.0,0.002465060679242015
5120.0,0.00038305961061269045
5632.0,-0.003958140034228563
6144.0,0.0019593548495322466
6656.0,0.006922982167452574
7168.0,0.0011102999560534954
7680.0,-0.0005138953565619886
8192.0,0.0008121851715259254
end
