version,3.0
numOfCh,1
type,point
parent_name,484af_0dot2-0dot01
ch_type,1_1
kcount,1
numberNandB,1
brightnessNandB,1
carpet pos,0
pc,0
Time (ms),CH1 Auto-Correlation
1.0,0.031409427523612976
2.0,0.030827796086668968
3.0,0.030290890485048294
4.0,0.029771940782666206
5.0,0.02927987650036812
6.0,0.028804296627640724
7.0,0.02833431400358677
8.0,0.02787606418132782
9.0,0.027419505640864372
10.0,0.026984436437487602
11.0,0.026577763259410858
12.0,0.02618446759879589
13.0,0.025804469361901283
14.0,0.02543630823493004
15.0,0.02505848929286003
16.0,0.024693021550774574
18.0,0.02397482842206955
20.0,0.02328525111079216
22.0,0.022632310166954994
24.0,0.022048352286219597
26.0,0.021461131051182747
28.0,0.02088640257716179
30.0,0.020340295508503914
32.0,0.01985565572977066
36.0,0.019014019519090652
40.0,0.01826276071369648
44.0,0.01763968914747238
48.0,0.01701297238469124
52.0,0.016452521085739136
56.0,0.01596534065902233
60.0,0.015507225878536701
64.0,0.015074857510626316
72.0,0.014065152034163475
80.0,0.013104104436933994
88.0,0.012151185423135757
96.0,0.011087464168667793
104.0,0.010017156600952148
112.0,0.009124303236603737
120.0,0.00859618466347456
128.0,0.008179319091141224
144.0,0.007673768792301416
160.0,0.006838423665612936
176.0,0.00578001094982028
192.0,0.005198234226554632
208.0,0.004851412959396839
224.0,0.00424917321652174
240.0,0.003373852465301752
256.0,0.002801887458190322
288.0,0.0019174939952790737
320.0,0.000894382013939321
352.0,0.00017433524772059172
384.0,0.0007134114275686443
416.0,0.0009563553030602634
448.0,0.001406427356414497
480.0,0.0021075273398309946
512.0,0.0028603363316506147
576.0,0.00148549466393888
640.0,0.0003435738035477698
704.0,-0.0008458707598038018
768.0,-5.502392377820797e-05
832.0,-0.001733877114020288
896.0,-0.0031414295081049204
960.0,-0.0022939122281968594
1024.0,-0.0008551060454919934
1152.0,0.0006139948382042348
1280.0,0.0008275949512608349
1408.0,-0.0019372012466192245
1536.0,-0.0016987372655421495
1664.0,-0.002973604714497924
1792.0,-0.004203560296446085
1920.0,-0.006489241030067205
2048.0,-0.006680899299681187
2304.0,-0.0011891413014382124
2560.0,0.00029891676967963576
2816.0,0.0008863003458827734
3072.0,-0.0006131361005827785
3328.0,0.0008414094336330891
3584.0,-0.00010481617937330157
3840.0,0.004604553338140249
4096.0,0.002032017568126321
4608.0,-0.0009139440953731537
5120.0,0.0001687688345555216
5632.0,0.0008914656355045736
6144.0,0.0013792276149615645
6656.0,-0.0012201144127175212
7168.0,-0.0005025693099014461
7680.0,-0.0005791180301457644
8192.0,-0.003863743506371975
end
