version,3.0
numOfCh,1
type,point
parent_name,484af_0dot2-0dot01
ch_type,1_1
kcount,1
numberNandB,1
brightnessNandB,1
carpet pos,0
pc,0
Time (ms),CH1 Auto-Correlation
1.0,0.02506927214562893
2.0,0.02448386885225773
3.0,0.02390126883983612
4.0,0.023349758237600327
5.0,0.02282360941171646
6.0,0.02230990305542946
7.0,0.021821672096848488
8.0,0.0213627889752388
9.0,0.02093787118792534
10.0,0.020542649552226067
11.0,0.020169850438833237
12.0,0.01980690285563469
13.0,0.019464636221528053
14.0,0.01913107931613922
15.0,0.018820825964212418
16.0,0.018517710268497467
18.0,0.01791897602379322
20.0,0.017336837947368622
22.0,0.016780130565166473
24.0,0.01623581349849701
26.0,0.01569174975156784
28.0,0.015174312517046928
30.0,0.014689803123474121
32.0,0.014234558679163456
36.0,0.013366952538490295
40.0,0.012632343918085098
44.0,0.012016764841973782
48.0,0.011435156688094139
52.0,0.010877273045480251
56.0,0.010357092134654522
60.0,0.00992460548877716
64.0,0.009551036171615124
72.0,0.008927039802074432
80.0,0.008433994837105274
88.0,0.007797491271048784
96.0,0.00708382623270154
104.0,0.006410847883671522
112.0,0.005841770209372044
120.0,0.005530796479433775
128.0,0.005240711849182844
144.0,0.004971977788954973
160.0,0.004933958873152733
176.0,0.004382602870464325
192.0,0.0038844947703182697
208.0,0.003250031964853406
224.0,0.002530554076656699
240.0,0.0019137474009767175
256.0,0.0016129224095493555
288.0,0.0013703114818781614
320.0,0.0009501595632173121
352.0,0.0007211487973108888
384.0,-0.00020166998729109764
416.0,-0.0006841066642664373
448.0,-0.0008308208198286593
480.0,-0.0009574615396559238
512.0,-0.00039138877764344215
576.0,-0.0011426042765378952
640.0,-0.0006971696857362986
704.0,-0.00020887797290924937
768.0,-0.0009733451879583299
832.0,0.00020416564075276256
896.0,0.00039886674494482577
960.0,-4.655007069231942e-05
1024.0,0.0008149443310685456
1152.0,0.0010546158300712705
1280.0,0.0022632034961134195
1408.0,0.004024664405733347
1536.0,0.0012652470031753182
1664.0,0.0009511787793599069
1792.0,0.0001747257774695754
1920.0,0.00019922076899092644
2048.0,0.00022655483917333186
2304.0,0.0004552818718366325
2560.0,0.00042312665027566254
2816.0,0.003710926976054907
3072.0,0.0027732413727790117
3328.0,-0.001069021294824779
3584.0,-0.0014757324242964387
3840.0,9.962985814127023e-07
4096.0,0.00196551950648427
4608.0,0.000807840027846396
5120.0,-0.0013013985008001328
5632.0,-0.00047347709187306464
6144.0,-2.4783361368463375e-05
6656.0,-0.0020724956411868334
7168.0,-0.0004438706673681736
7680.0,-0.004105853382498026
8192.0,-0.0010430683614686131
end
