version,3.0
numOfCh,1
type,point
parent_name,484af_0dot2-0dot01
ch_type,1_1
kcount,1
numberNandB,1
brightnessNandB,1
carpet pos,0
pc,0
Time (ms),CH1 Auto-Correlation
1.0,0.16412653028964996
2.0,0.16334125399589539
3.0,0.16256597638130188
4.0,0.16180582344532013
5.0,0.16099640727043152
6.0,0.16019229590892792
7.0,0.15939514338970184
8.0,0.15861380100250244
9.0,0.15785425901412964
10.0,0.15715177357196808
11.0,0.15648341178894043
12.0,0.15581493079662323
13.0,0.15519729256629944
14.0,0.15458577871322632
15.0,0.15394176542758942
16.0,0.15331122279167175
18.0,0.15212583541870117
20.0,0.15098564326763153
22.0,0.1499166488647461
24.0,0.14901095628738403
26.0,0.14814220368862152
28.0,0.14730937778949738
30.0,0.14652258157730103
32.0,0.14577071368694305
36.0,0.14447954297065735
40.0,0.14336413145065308
44.0,0.1423903852701187
48.0,0.14130738377571106
52.0,0.1402190625667572
56.0,0.13897569477558136
60.0,0.13781164586544037
64.0,0.1365208923816681
72.0,0.1341189742088318
80.0,0.13241182267665863
88.0,0.1314266324043274
96.0,0.13012470304965973
104.0,0.12841539084911346
112.0,0.12624713778495789
120.0,0.1239355280995369
128.0,0.12162698060274124
144.0,0.11878367513418198
160.0,0.11691777408123016
176.0,0.11459067463874817
192.0,0.11145250499248505
208.0,0.10734988749027252
224.0,0.10410293191671371
240.0,0.10077015310525894
256.0,0.09619239717721939
288.0,0.08769688010215759
320.0,0.08107200264930725
352.0,0.07638486474752426
384.0,0.06898469477891922
416.0,0.06289771944284439
448.0,0.05671494081616402
480.0,0.047969456762075424
512.0,0.039908770471811295
576.0,0.02680131420493126
640.0,0.014139666222035885
704.0,0.003263495396822691
768.0,-0.0018006839090958238
832.0,0.001382591319270432
896.0,0.002487117424607277
960.0,0.006010027602314949
1024.0,0.007942025549709797
1152.0,0.005383120849728584
1280.0,0.004839940927922726
1408.0,0.0032045512925833464
1536.0,0.004183485638350248
1664.0,0.0013756906846538186
1792.0,-0.003440162166953087
1920.0,-0.005144561640918255
2048.0,-0.008121458813548088
2304.0,-0.021278459578752518
2560.0,-0.03246307745575905
2816.0,-0.03863602876663208
3072.0,-0.041738346219062805
3328.0,-0.032742857933044434
3584.0,-0.013740264810621738
3840.0,0.01124487817287445
4096.0,0.008721196092665195
4608.0,-0.017980948090553284
5120.0,-0.006050521973520517
5632.0,-0.021618513390421867
6144.0,-0.002395062707364559
6656.0,-0.02201062999665737
7168.0,-0.027331776916980743
7680.0,-0.022482434287667274
8192.0,0.016295433044433594
end
