version,3.0
numOfCh,1
type,point
parent_name,484af_0dot2-0dot01
ch_type,1_1
kcount,1
numberNandB,1
brightnessNandB,1
carpet pos,0
pc,0
Time (ms),CH1 Auto-Correlation
1.0,0.031218087300658226
2.0,0.030662553384900093
3.0,0.030124971643090248
4.0,0.029594097286462784
5.0,0.0290851891040802
6.0,0.028590351343154907
7.0,0.028111862018704414
8.0,0.027636321261525154
9.0,0.027203945443034172
10.0,0.02678702212870121
11.0,0.02637290209531784
12.0,0.025989003479480743
13.0,0.025623422116041183
14.0,0.025290174409747124
15.0,0.024962032213807106
16.0,0.024666940793395042
18.0,0.024041611701250076
20.0,0.023396024480462074
22.0,0.02279345504939556
24.0,0.022240739315748215
26.0,0.021684952080249786
28.0,0.021150842308998108
30.0,0.02066526561975479
32.0,0.020222654566168785
36.0,0.01937461830675602
40.0,0.018552901223301888
44.0,0.017811400815844536
48.0,0.017212964594364166
52.0,0.016629895195364952
56.0,0.015976514667272568
60.0,0.01530781202018261
64.0,0.014724262058734894
72.0,0.013763155788183212
80.0,0.013065697625279427
88.0,0.012542236596345901
96.0,0.012169959023594856
104.0,0.011678623035550117
112.0,0.011011105962097645
120.0,0.010307025164365768
128.0,0.009639628231525421
144.0,0.009147810749709606
160.0,0.009137754328548908
176.0,0.009227849543094635
192.0,0.009142872877418995
208.0,0.008748129941523075
224.0,0.007609609980136156
240.0,0.006394438911229372
256.0,0.005499149672687054
288.0,0.004750967025756836
320.0,0.004438530653715134
352.0,0.004418728407472372
384.0,0.00443998584523797
416.0,0.004350137431174517
448.0,0.004371973220258951
480.0,0.00415141973644495
512.0,0.0038587709423154593
576.0,0.0041290950030088425
640.0,0.002862227149307728
704.0,0.002649388276040554
768.0,0.0032166021410375834
832.0,0.0024029763881117105
896.0,0.0032849216368049383
960.0,0.0018567272927612066
1024.0,-0.0009578195749782026
1152.0,-7.011720299487934e-05
1280.0,0.0006393035291694105
1408.0,-0.00019454352150205523
1536.0,-0.003743808250874281
1664.0,-0.004114355891942978
1792.0,-0.003230898641049862
1920.0,-0.004631529096513987
2048.0,-0.004602421540766954
2304.0,-0.004465239588171244
2560.0,-0.0030260528437793255
2816.0,-0.00216468283906579
3072.0,-0.001684290007688105
3328.0,0.0014461049577221274
3584.0,-0.0001636492379475385
3840.0,-0.003004359779879451
4096.0,-0.002384255873039365
4608.0,-0.003866843180730939
5120.0,-0.0016957366606220603
5632.0,0.0015806412557139993
6144.0,0.004461130127310753
6656.0,0.007927663624286652
7168.0,0.0017691802931949496
7680.0,-0.0027825513388961554
8192.0,-0.00953577645123005
end
