version,3.0
numOfCh,1
type,point
parent_name,484af_0dot2-0dot01
ch_type,1_1
kcount,1
numberNandB,1
brightnessNandB,1
carpet pos,0
pc,0
Time (ms),CH1 Auto-Correlation
1.0,0.03085343725979328
2.0,0.030296482145786285
3.0,0.029769038781523705
4.0,0.02926924265921116
5.0,0.02878139354288578
6.0,0.02831144630908966
7.0,0.027858613058924675
8.0,0.02743900567293167
9.0,0.027031779289245605
10.0,0.026625650003552437
11.0,0.026223372668027878
12.0,0.025842847302556038
13.0,0.025487134233117104
14.0,0.025130966678261757
15.0,0.02477111667394638
16.0,0.024411361664533615
18.0,0.02374534122645855
20.0,0.023124363273382187
22.0,0.022543704137206078
24.0,0.02200940065085888
26.0,0.021486863493919373
28.0,0.021005133166909218
30.0,0.020553670823574066
32.0,0.02014954946935177
36.0,0.019312500953674316
40.0,0.018465640023350716
44.0,0.017680471763014793
48.0,0.016959860920906067
52.0,0.016243690624833107
56.0,0.015548693016171455
60.0,0.01493633259087801
64.0,0.014368293806910515
72.0,0.013309432193636894
80.0,0.01236679870635271
88.0,0.011569155380129814
96.0,0.010963059030473232
104.0,0.010391103103756905
112.0,0.00972508080303669
120.0,0.009183387272059917
128.0,0.008797858841717243
144.0,0.0076693263836205006
160.0,0.00657379487529397
176.0,0.005753226578235626
192.0,0.0048597934655845165
208.0,0.004148044623434544
224.0,0.0037798238918185234
240.0,0.003546622581779957
256.0,0.003241446567699313
288.0,0.0018319636583328247
320.0,0.001269137137569487
352.0,0.0008102091960608959
384.0,-0.00017835493781603873
416.0,-0.0011661051539704204
448.0,-0.0015449011698365211
480.0,-0.0019821517635136843
512.0,-0.0016916025197133422
576.0,-0.0012402994325384498
640.0,9.51373076532036e-05
704.0,0.0005065090954303741
768.0,-0.0009368769242428243
832.0,-0.001403864356689155
896.0,0.000514456070959568
960.0,0.0027513501700013876
1024.0,0.002396967727690935
1152.0,-0.0001666205353103578
1280.0,-0.0022998210042715073
1408.0,-0.0022304493468254805
1536.0,-0.000510344747453928
1664.0,-0.001354558626189828
1792.0,-0.005340389907360077
1920.0,-0.007231401279568672
2048.0,-0.0075764902867376804
2304.0,-0.002087973291054368
2560.0,0.0039952658116817474
2816.0,0.004078987054526806
3072.0,5.4262785852188244e-05
3328.0,-0.0012079502921551466
3584.0,0.0019650596659630537
3840.0,0.005803263280540705
4096.0,0.0029411360155791044
4608.0,-0.0017924264539033175
5120.0,0.0006073004915378988
5632.0,-0.0010102990781888366
6144.0,-0.001763145555742085
6656.0,-0.0006224605604074895
7168.0,-0.0025081888306885958
7680.0,-0.0002821782254613936
8192.0,0.00014164156164042652
end
