version,3.0
numOfCh,1
type,point
parent_name,484af_0dot2-0dot01
ch_type,1_1
kcount,1
numberNandB,1
brightnessNandB,1
carpet pos,0
pc,0
Time (ms),CH1 Auto-Correlation
1.0,0.057004425674676895
2.0,0.05636301264166832
3.0,0.055742230266332626
4.0,0.055144280195236206
5.0,0.05455419048666954
6.0,0.05400174483656883
7.0,0.05347021296620369
8.0,0.05295361950993538
9.0,0.05247314274311066
10.0,0.05201202258467674
11.0,0.05155279114842415
12.0,0.05109376087784767
13.0,0.05063531547784805
14.0,0.0502057820558548
15.0,0.049785345792770386
16.0,0.04936259612441063
18.0,0.048592712730169296
20.0,0.04789101704955101
22.0,0.0472080260515213
24.0,0.04655149206519127
26.0,0.04591171070933342
28.0,0.0452813021838665
30.0,0.044635236263275146
32.0,0.043975017964839935
36.0,0.04270363599061966
40.0,0.0416567325592041
44.0,0.04076042398810387
48.0,0.03998703509569168
52.0,0.03926582634449005
56.0,0.038558997213840485
60.0,0.0378805547952652
64.0,0.037207409739494324
72.0,0.035899192094802856
80.0,0.035110995173454285
88.0,0.034549567848443985
96.0,0.034115299582481384
104.0,0.033838365226984024
112.0,0.03355195373296738
120.0,0.03308228403329849
128.0,0.03267814218997955
144.0,0.0320763885974884
160.0,0.031402338296175
176.0,0.02997615560889244
192.0,0.028743475675582886
208.0,0.027985546737909317
224.0,0.02715451456606388
240.0,0.02627461962401867
256.0,0.025460444390773773
288.0,0.022580036893486977
320.0,0.02027779072523117
352.0,0.01845887303352356
384.0,0.016825467348098755
416.0,0.014735408127307892
448.0,0.012168985791504383
480.0,0.011105315759778023
512.0,0.009949958883225918
576.0,0.008601161651313305
640.0,0.008537953719496727
704.0,0.004709580447524786
768.0,0.003948582336306572
832.0,0.0026595473755151033
896.0,0.0018622719217091799
960.0,0.0023583443835377693
1024.0,0.0018953606486320496
1152.0,0.004222371149808168
1280.0,0.005621743854135275
1408.0,0.00690827751532197
1536.0,0.007934586144983768
1664.0,0.009479576721787453
1792.0,0.009938915260136127
1920.0,0.009897480718791485
2048.0,0.006692645139992237
2304.0,-0.00018551239918451756
2560.0,-0.00428202236071229
2816.0,-0.010594154708087444
3072.0,-0.010226291604340076
3328.0,-0.004013378638774157
3584.0,0.003290977329015732
3840.0,0.005505360197275877
4096.0,-0.0014746013330295682
4608.0,-0.003731456585228443
5120.0,0.0017533350037410855
5632.0,0.0064199636690318584
6144.0,0.005096840672194958
6656.0,0.0007590033346787095
7168.0,0.0018997163278982043
7680.0,0.0007133553735911846
8192.0,-0.008101576007902622
end
