version,3.0
numOfCh,1
type,point
parent_name,484af_0dot2-0dot01
ch_type,1_1
kcount,1
numberNandB,1
brightnessNandB,1
carpet pos,0
pc,0
Time (ms),CH1 Auto-Correlation
1.0,0.03654700890183449
2.0,0.03599562868475914
3.0,0.035460975021123886
4.0,0.03494156152009964
5.0,0.0344373919069767
6.0,0.033926308155059814
7.0,0.03343372419476509
8.0,0.03296329081058502
9.0,0.032507769763469696
10.0,0.03205880522727966
11.0,0.031625896692276
12.0,0.031200112774968147
13.0,0.030779993161559105
14.0,0.030378662049770355
15.0,0.029994774609804153
16.0,0.029627280309796333
18.0,0.028949741274118423
20.0,0.028298217803239822
22.0,0.027654899284243584
24.0,0.027040770277380943
26.0,0.02648012526333332
28.0,0.025945939123630524
30.0,0.025450414046645164
32.0,0.025007717311382294
36.0,0.02414778806269169
40.0,0.02328331395983696
44.0,0.022397233173251152
48.0,0.021454092115163803
52.0,0.020552512258291245
56.0,0.019808590412139893
60.0,0.0190992783755064
64.0,0.018364645540714264
72.0,0.017135370522737503
80.0,0.01627659797668457
88.0,0.015541933476924896
96.0,0.014925436116755009
104.0,0.014253723435103893
112.0,0.013711018487811089
120.0,0.013239141553640366
128.0,0.012829247862100601
144.0,0.01253657415509224
160.0,0.012008597142994404
176.0,0.011251550167798996
192.0,0.010505212470889091
208.0,0.009700396098196507
224.0,0.008824639022350311
240.0,0.007940211333334446
256.0,0.007635272108018398
288.0,0.007142119109630585
320.0,0.006610536016523838
352.0,0.005672461353242397
384.0,0.004100292455404997
416.0,0.003376875538378954
448.0,0.003396308980882168
480.0,0.003622247837483883
512.0,0.003849196480587125
576.0,0.002654687501490116
640.0,0.0018672689329832792
704.0,0.0023987307213246822
768.0,0.0009718870278447866
832.0,-0.00103503349237144
896.0,-0.0012773077469319105
960.0,-0.0018569862004369497
1024.0,-0.0009740387904457748
1152.0,0.00042000977555289865
1280.0,0.0013651573099195957
1408.0,0.0029509547166526318
1536.0,0.0016003946075215936
1664.0,0.0004105807456653565
1792.0,-0.0006609903066419065
1920.0,-0.000988486222922802
2048.0,-0.0004035170713905245
2304.0,0.0014251680113375187
2560.0,0.003658090252429247
2816.0,0.003968887496739626
3072.0,-0.0010506677208468318
3328.0,-0.0020585956517606974
3584.0,-0.0034416462294757366
3840.0,9.405425771547016e-06
4096.0,0.0017122984863817692
4608.0,-0.002977855736389756
5120.0,-0.00022608540893997997
5632.0,-0.0034874514676630497
6144.0,-0.0032162494026124477
6656.0,-0.0015470815123990178
7168.0,-0.0033324083779007196
7680.0,-0.004526564385741949
8192.0,-0.0027377565857023
end
