version,3.0
numOfCh,1
type,point
parent_name,484af_0dot2-0dot01
ch_type,1_1
kcount,1
numberNandB,1
brightnessNandB,1
carpet pos,0
pc,0
Time (ms),CH1 Auto-Correlation
1.0,0.02617809735238552
2.0,0.02560879848897457
3.0,0.02507735788822174
4.0,0.024574287235736847
5.0,0.024084709584712982
6.0,0.0236223042011261
7.0,0.023178717121481895
8.0,0.022753773257136345
9.0,0.02233310416340828
10.0,0.02191135287284851
11.0,0.021509256213903427
12.0,0.021116435527801514
13.0,0.020735854282975197
14.0,0.020358238369226456
15.0,0.019976628944277763
16.0,0.019620250910520554
18.0,0.01895059645175934
20.0,0.018296921625733376
22.0,0.017668047919869423
24.0,0.017100665718317032
26.0,0.01656343601644039
28.0,0.01602371595799923
30.0,0.01548504363745451
32.0,0.014976250007748604
36.0,0.014016539789736271
40.0,0.013101203367114067
44.0,0.012289405800402164
48.0,0.011565018445253372
52.0,0.011008561588823795
56.0,0.010501752607524395
60.0,0.010048625990748405
64.0,0.009593778289854527
72.0,0.008739398792386055
80.0,0.007983200252056122
88.0,0.007432341109961271
96.0,0.006954602897167206
104.0,0.006517162546515465
112.0,0.006045835092663765
120.0,0.005504492670297623
128.0,0.0049399579875171185
144.0,0.004251294769346714
160.0,0.0035928699653595686
176.0,0.0030921539291739464
192.0,0.0024222745560109615
208.0,0.0018560417229309678
224.0,0.0016801079036667943
240.0,0.002041008323431015
256.0,0.002712468383833766
288.0,0.002913776785135269
320.0,0.0025003496557474136
352.0,0.002565043279901147
384.0,0.002088595414534211
416.0,0.0018216941971331835
448.0,0.002438817173242569
480.0,0.0023766816593706608
512.0,0.0018048305064439774
576.0,0.0007812690455466509
640.0,0.00036431505577638745
704.0,-0.000587241374887526
768.0,0.00043827618355862796
832.0,0.00022294509108178318
896.0,-0.00011203205940546468
960.0,-0.0008964893058873713
1024.0,-0.001048197620548308
1152.0,-0.0008344715461134911
1280.0,-0.003001590957865119
1408.0,-0.0019132918678224087
1536.0,-0.0018398122629150748
1664.0,-0.0011073064524680376
1792.0,-0.002876377897337079
1920.0,-0.0015603018691763282
2048.0,0.0019677667878568172
2304.0,0.0008974185911938548
2560.0,-0.001611554529517889
2816.0,-0.0021884634625166655
3072.0,0.00023820603382773697
3328.0,-0.0012670698342844844
3584.0,-0.0011063312413170934
3840.0,0.0006096462602727115
4096.0,0.0016449627000838518
4608.0,0.0017640857258811593
5120.0,0.0013223984278738499
5632.0,-0.0006846627802588046
6144.0,-0.0017542624846100807
6656.0,-0.002499281894415617
7168.0,-0.00335148093290627
7680.0,-0.0011039988603442907
8192.0,0.001978276064619422
end
