version,3.0
numOfCh,1
type,point
parent_name,484af_0dot2-0dot01
ch_type,1_1
kcount,1
numberNandB,1
brightnessNandB,1
carpet pos,0
pc,0
Time (ms),CH1 Auto-Correlation
1.0,0.029065191745758057
2.0,0.028499912470579147
3.0,0.02794695273041725
4.0,0.027382714673876762
5.0,0.026830842718482018
6.0,0.026303015649318695
7.0,0.025760425254702568
8.0,0.025258589535951614
9.0,0.02476237528026104
10.0,0.02429053746163845
11.0,0.023825958371162415
12.0,0.023363210260868073
13.0,0.02290150336921215
14.0,0.022459285333752632
15.0,0.02205653488636017
16.0,0.02163124270737171
18.0,0.02081671543419361
20.0,0.02002345211803913
22.0,0.019261803478002548
24.0,0.01852782443165779
26.0,0.017906293272972107
28.0,0.017372341826558113
30.0,0.01688993163406849
32.0,0.016450587660074234
36.0,0.01578984037041664
40.0,0.015310415998101234
44.0,0.014946505427360535
48.0,0.014661519788205624
52.0,0.014401022344827652
56.0,0.014260474592447281
60.0,0.014275461435317993
64.0,0.014274169690907001
72.0,0.013591301627457142
80.0,0.01265326701104641
88.0,0.011723778210580349
96.0,0.010998792946338654
104.0,0.010307318530976772
112.0,0.009533400647342205
120.0,0.008793340995907784
128.0,0.008252689614892006
144.0,0.006694623734802008
160.0,0.0059203109703958035
176.0,0.005830176640301943
192.0,0.005107807461172342
208.0,0.003964542876929045
224.0,0.0033162953332066536
240.0,0.0026865832041949034
256.0,0.002857714891433716
288.0,0.0032207434996962547
320.0,0.00188985385466367
352.0,0.00022001549950800836
384.0,-0.0002509037440177053
416.0,-6.085120912757702e-05
448.0,-0.0009256500634364784
480.0,-0.00041725445771589875
512.0,-0.0013547517592087388
576.0,-0.0029009401332587004
640.0,-0.0036616893485188484
704.0,-0.0012744428822770715
768.0,0.0026653106324374676
832.0,0.004886056762188673
896.0,0.0034549508709460497
960.0,0.0022686233278363943
1024.0,0.0037512467242777348
1152.0,8.202973549487069e-05
1280.0,-0.005321710370481014
1408.0,-0.006269454024732113
1536.0,-0.005182382185012102
1664.0,-0.0013193088816478848
1792.0,-0.00027407932793721557
1920.0,0.005200262647122145
2048.0,0.0005412396276369691
2304.0,-0.006492557004094124
2560.0,-0.0020485352724790573
2816.0,0.0024913770612329245
3072.0,0.0019457867601886392
3328.0,-0.0010472831781953573
3584.0,0.004539536777883768
3840.0,0.0003022264572791755
4096.0,-0.012817371636629105
end
