version,3.0
numOfCh,1
type,point
parent_name,484af_0dot2-0dot01
ch_type,1_1
kcount,1
numberNandB,1
brightnessNandB,1
carpet pos,0
pc,0
Time (ms),CH1 Auto-Correlation
1.0,0.06821367889642715
2.0,0.06657527387142181
3.0,0.0649607703089714
4.0,0.06332078576087952
5.0,0.06162487342953682
6.0,0.06002629175782204
7.0,0.058417316526174545
8.0,0.05686285346746445
9.0,0.0553281232714653
10.0,0.05381093546748161
11.0,0.05226897448301315
12.0,0.050701238214969635
13.0,0.04921958968043327
14.0,0.047815799713134766
15.0,0.04652116447687149
16.0,0.045195095241069794
18.0,0.04165177792310715
20.0,0.03893861547112465
22.0,0.036394085735082626
24.0,0.033952746540308
26.0,0.031343575567007065
28.0,0.02854800783097744
30.0,0.02587386779487133
32.0,0.02324358932673931
36.0,0.0180282574146986
40.0,0.015235555358231068
44.0,0.014682501554489136
48.0,0.014295212924480438
52.0,0.014066330157220364
56.0,0.014047574251890182
60.0,0.014035427942872047
64.0,0.014020110480487347
72.0,0.013616930693387985
80.0,0.012841875664889812
88.0,0.01222946960479021
96.0,0.011540905572474003
104.0,0.010611053556203842
112.0,0.009751166217029095
120.0,0.00916475709527731
128.0,0.0079441387206316
144.0,0.005892536137253046
160.0,0.005563642829656601
176.0,0.006392264738678932
192.0,0.006505809724330902
208.0,0.0065966094844043255
224.0,0.006741832941770554
240.0,0.005434037651866674
256.0,0.0037984298542141914
288.0,0.001594256842508912
320.0,0.0009842440485954285
352.0,0.00036446336889639497
384.0,0.00022737692052032799
416.0,0.0008072775672189891
448.0,5.951605544396443e-06
480.0,-0.000295153702609241
512.0,-0.002178613096475601
576.0,-0.00011538145918166265
640.0,-0.00033982531749643385
704.0,0.0003809424815699458
768.0,0.0012155378935858607
832.0,0.003270682878792286
896.0,0.0033827796578407288
960.0,0.0034132867585867643
1024.0,0.003504561958834529
1152.0,0.001751430332660675
1280.0,-1.3547221897169948e-05
1408.0,-0.0020123093854635954
1536.0,-0.00304361036978662
1664.0,-0.0016534794121980667
1792.0,-0.00030690233688801527
1920.0,0.0010289483470842242
2048.0,0.0015721562085673213
2304.0,0.0006423292797990143
2560.0,-0.002103317528963089
2816.0,-0.00144391565117985
3072.0,-0.00011952679051319137
3328.0,-0.00012791535118594766
3584.0,-0.0016933282604441047
3840.0,-0.001686107600107789
4096.0,-0.0014973466750234365
4608.0,-0.0024753061588853598
5120.0,-0.00412926496937871
5632.0,-0.0004921637009829283
6144.0,0.000180759365321137
6656.0,0.00024427418247796595
7168.0,0.0003113468992523849
7680.0,0.0003895128902513534
8192.0,0.0015511040110141039
end
