version,3.0
numOfCh,1
type,point
parent_name,484af_0dot2-0dot01
ch_type,1_1
kcount,1
numberNandB,1
brightnessNandB,1
carpet pos,0
pc,0
Time (ms),CH1 Auto-Correlation
1.0,0.0355369970202446
2.0,0.034958433359861374
3.0,0.03439463675022125
4.0,0.033828478306531906
5.0,0.03327855095267296
6.0,0.03274952247738838
7.0,0.032232992351055145
8.0,0.03173438459634781
9.0,0.031274087727069855
10.0,0.03082747384905815
11.0,0.030399883165955544
12.0,0.029984692111611366
13.0,0.029592905193567276
14.0,0.029215892776846886
15.0,0.028855321928858757
16.0,0.028513630852103233
18.0,0.027874106541275978
20.0,0.027274681255221367
22.0,0.026696564629673958
24.0,0.026154831051826477
26.0,0.025603214278817177
28.0,0.025063825771212578
30.0,0.024536872282624245
32.0,0.024028588086366653
36.0,0.023083947598934174
40.0,0.022289328277111053
44.0,0.021580804139375687
48.0,0.020885085687041283
52.0,0.02027401328086853
56.0,0.019712822511792183
60.0,0.019231252372264862
64.0,0.01888938434422016
72.0,0.018167315050959587
80.0,0.017322154715657234
88.0,0.016417518258094788
96.0,0.015647299587726593
104.0,0.015007064677774906
112.0,0.01436862163245678
120.0,0.013799017295241356
128.0,0.013326607644557953
144.0,0.012614080682396889
160.0,0.01140499860048294
176.0,0.010058986954391003
192.0,0.009268214926123619
208.0,0.008858752436935902
224.0,0.008436101488769054
240.0,0.008102849125862122
256.0,0.008005608804523945
288.0,0.007660513743758202
320.0,0.006055115256458521
352.0,0.005199709441512823
384.0,0.004801017697900534
416.0,0.0038157959934324026
448.0,0.003484987188130617
480.0,0.0026037045754492283
512.0,0.0024017912801355124
576.0,-3.987272793892771e-05
640.0,-0.0004790338280145079
704.0,0.00030739716021344066
768.0,0.001185434521175921
832.0,0.0001365929638268426
896.0,-0.0016231521731242537
960.0,-0.003034408437088132
1024.0,-0.004140816628932953
1152.0,-0.003336629830300808
1280.0,-0.004694264382123947
1408.0,-0.0047691501677036285
1536.0,-0.005649003200232983
1664.0,-0.002977415220811963
1792.0,-0.004266846925020218
1920.0,-0.0006828409968875349
2048.0,0.0013358225114643574
2304.0,0.0011132810031995177
2560.0,-0.0005115692038089037
2816.0,0.002543510403484106
3072.0,0.0006279126973822713
3328.0,-0.00018582322809379548
3584.0,-0.0030817328952252865
3840.0,-0.006366550922393799
4096.0,-0.0036280059721320868
4608.0,0.0012950393138453364
5120.0,0.004113537259399891
5632.0,0.00013631483307108283
6144.0,-0.0024739315267652273
6656.0,-0.003994916565716267
7168.0,-0.0014684648485854268
7680.0,0.0008235779823735356
8192.0,0.0003745938593056053
end
