version,3.0
numOfCh,1
type,point
parent_name,484af_0dot2-0dot01
ch_type,1_1
kcount,1
numberNandB,1
brightnessNandB,1
carpet pos,0
pc,0
Time (ms),CH1 Auto-Correlation
1.0,0.03634793311357498
2.0,0.03577960655093193
3.0,0.035241637378931046
4.0,0.034743208438158035
5.0,0.034270066767930984
6.0,0.03380732983350754
7.0,0.03336097672581673
8.0,0.032950613647699356
9.0,0.03256271407008171
10.0,0.032166142016649246
11.0,0.03179411217570305
12.0,0.031455595046281815
13.0,0.03110094554722309
14.0,0.03077094443142414
15.0,0.030452588573098183
16.0,0.030139725655317307
18.0,0.029522547498345375
20.0,0.028939617797732353
22.0,0.02832864783704281
24.0,0.02774537354707718
26.0,0.02719774842262268
28.0,0.026674645021557808
30.0,0.02616848237812519
32.0,0.025686169043183327
36.0,0.024684002622961998
40.0,0.023720767349004745
44.0,0.022830046713352203
48.0,0.022113686427474022
52.0,0.021503685042262077
56.0,0.020907707512378693
60.0,0.02030225098133087
64.0,0.01970151625573635
72.0,0.01894375868141651
80.0,0.01819736137986183
88.0,0.01757018081843853
96.0,0.017077218741178513
104.0,0.016659637913107872
112.0,0.016077551990747452
120.0,0.015623864717781544
128.0,0.01519972924143076
144.0,0.014412058517336845
160.0,0.013821189291775227
176.0,0.013474815525114536
192.0,0.013158075511455536
208.0,0.01315366756170988
224.0,0.012711405754089355
240.0,0.012076965533196926
256.0,0.011366021819412708
288.0,0.011062216013669968
320.0,0.01065889187157154
352.0,0.009121046401560307
384.0,0.008575698360800743
416.0,0.008999817073345184
448.0,0.008931842632591724
480.0,0.008146530948579311
512.0,0.00709939980879426
576.0,0.005243540275841951
640.0,0.005024712532758713
704.0,0.006172796245664358
768.0,0.0035636527463793755
832.0,0.001324829296208918
896.0,-7.312109664781019e-05
960.0,-0.00020685684285126626
1024.0,0.0009681129013188183
1152.0,0.0009780831169337034
1280.0,-0.0003128349781036377
1408.0,-0.0019068295368924737
1536.0,-0.0011480347020551562
1664.0,0.0011312486603856087
1792.0,0.0019181029638275504
1920.0,0.0029043026734143496
2048.0,0.004980466328561306
2304.0,0.0025278928223997355
2560.0,0.0009815552039071918
2816.0,-9.511717507848516e-06
3072.0,-0.0024623728822916746
3328.0,-0.0036515595857053995
3584.0,-0.004158315248787403
3840.0,-0.006565831135958433
4096.0,-0.0005096411914564669
4608.0,-0.0041955336928367615
5120.0,-0.007495418656617403
5632.0,-0.006022512447088957
6144.0,0.00011603558959905058
6656.0,0.0028882448095828295
7168.0,-0.013230706565082073
7680.0,-0.031990062445402145
8192.0,-0.016216512769460678
end
