version,3.0
numOfCh,1
type,point
parent_name,484af_0dot2-0dot01
ch_type,1_1
kcount,1
numberNandB,1
brightnessNandB,1
carpet pos,0
pc,0
Time (ms),CH1 Auto-Correlation
1.0,0.031085418537259102
2.0,0.03051418997347355
3.0,0.029945604503154755
4.0,0.029384255409240723
5.0,0.028843529522418976
6.0,0.028326287865638733
7.0,0.027819549664855003
8.0,0.02733178436756134
9.0,0.026868576183915138
10.0,0.02641759254038334
11.0,0.02598872408270836
12.0,0.02556264027953148
13.0,0.025155432522296906
14.0,0.024758825078606606
15.0,0.02436697483062744
16.0,0.02397286705672741
18.0,0.02319934405386448
20.0,0.02245318330824375
22.0,0.021720698103308678
24.0,0.02101624570786953
26.0,0.02034829370677471
28.0,0.01966829225420952
30.0,0.018997106701135635
32.0,0.01835147850215435
36.0,0.017115090042352676
40.0,0.015967559069395065
44.0,0.014973019249737263
48.0,0.014126471243798733
52.0,0.013306905515491962
56.0,0.012636683881282806
60.0,0.012006700970232487
64.0,0.011392097920179367
72.0,0.010226943530142307
80.0,0.009192358702421188
88.0,0.008219556882977486
96.0,0.007383306045085192
104.0,0.006681705359369516
112.0,0.006008355412632227
120.0,0.005330657586455345
128.0,0.004755801055580378
144.0,0.004181241616606712
160.0,0.004075129982084036
176.0,0.004210475366562605
192.0,0.004235823173075914
208.0,0.0040047429502010345
224.0,0.0036937338300049305
240.0,0.0036434584762901068
256.0,0.0035871663130819798
288.0,0.003344021737575531
320.0,0.003603860503062606
352.0,0.004451457876712084
384.0,0.003376177279278636
416.0,0.0017723849741742015
448.0,0.0011609671637415886
480.0,0.001497009419836104
512.0,0.001669105957262218
576.0,0.00015856318350415677
640.0,-7.77271852712147e-05
704.0,0.00038190651684999466
768.0,-0.0008541972492821515
832.0,-0.00026793076540343463
896.0,-0.0009290779707953334
960.0,-0.0003142429341096431
1024.0,0.0002487174642737955
1152.0,-0.001036608126014471
1280.0,-0.0015306262066587806
1408.0,0.001832428970374167
1536.0,0.0005641942261718214
1664.0,-0.000420028722146526
1792.0,0.0013760539004579186
1920.0,-0.0003475382400210947
2048.0,-0.001749588642269373
2304.0,-0.0026818898040801287
2560.0,-0.001713446923531592
2816.0,0.000499434070661664
3072.0,0.00030959772993810475
3328.0,3.866253973683342e-05
3584.0,-0.0008333629812113941
3840.0,-0.0007807719521224499
4096.0,-0.0003719695669133216
4608.0,-0.0007015207665972412
5120.0,-0.0014884627889841795
5632.0,0.0005156755796633661
6144.0,-0.002282943343743682
6656.0,-0.002526191994547844
7168.0,0.0006378021789714694
7680.0,-0.0007152589969336987
8192.0,-0.0037785142194479704
end
