version,3.0
numOfCh,1
type,point
parent_name,484af_0dot2-0dot01
ch_type,1_1
kcount,1
numberNandB,1
brightnessNandB,1
carpet pos,0
pc,0
Time (ms),CH1 Auto-Correlation
1.0,0.03308001533150673
2.0,0.03249797224998474
3.0,0.03194207698106766
4.0,0.03138914704322815
5.0,0.0308650154620409
6.0,0.030346205458045006
7.0,0.029866695404052734
8.0,0.02940269559621811
9.0,0.028952524065971375
10.0,0.028500119224190712
11.0,0.02805003896355629
12.0,0.027612093836069107
13.0,0.02717430330812931
14.0,0.026738082990050316
15.0,0.026299962773919106
16.0,0.02586679905653
18.0,0.025052225217223167
20.0,0.024327818304300308
22.0,0.02364468388259411
24.0,0.023021548986434937
26.0,0.022432103753089905
28.0,0.021864425390958786
30.0,0.021323176100850105
32.0,0.020843546837568283
36.0,0.019990187138319016
40.0,0.019183706492185593
44.0,0.018346909433603287
48.0,0.017498699948191643
52.0,0.016615331172943115
56.0,0.01574966311454773
60.0,0.0149224316701293
64.0,0.014125875197350979
72.0,0.012692781165242195
80.0,0.011442301794886589
88.0,0.01033235527575016
96.0,0.009484181180596352
104.0,0.008684566244482994
112.0,0.00808266643434763
120.0,0.007468110416084528
128.0,0.006788237020373344
144.0,0.00596606032922864
160.0,0.005368988960981369
176.0,0.004806369077414274
192.0,0.0043861642479896545
208.0,0.0038373989518731833
224.0,0.003077123546972871
240.0,0.0024247823748737574
256.0,0.0014332730788737535
288.0,0.00011817962513305247
320.0,0.0005085671436972916
352.0,0.0005209824885241687
384.0,0.00040680047823116183
416.0,0.00014254357665777206
448.0,-0.000529067066963762
480.0,-1.4203268619894516e-05
512.0,0.0006181520875543356
576.0,0.0026988727040588856
640.0,0.00147113180719316
704.0,-0.0011959371622651815
768.0,-0.002138328505679965
832.0,-0.0012395926751196384
896.0,-0.0003991489647887647
960.0,-0.00018432595243211836
1024.0,8.194385009119287e-05
1152.0,0.000727158912923187
1280.0,-0.0009931130334734917
1408.0,-0.0014861837262287736
1536.0,-0.0010344486217945814
1664.0,-0.0024754232726991177
1792.0,-0.0032814776059240103
1920.0,-0.0017965876031666994
2048.0,-0.0010409665992483497
2304.0,-0.0020462609827518463
2560.0,-0.0037052289117127657
2816.0,-0.0017568384064361453
3072.0,0.0020686183124780655
3328.0,0.00033675480517558753
3584.0,0.003829009598121047
3840.0,0.0013941037468612194
4096.0,0.0032875703182071447
4608.0,-0.0006894083926454186
5120.0,-0.0006428316701203585
5632.0,-0.0027963328175246716
6144.0,1.8305972844245844e-05
6656.0,-0.0009737536893226206
7168.0,0.0030652086716145277
7680.0,0.003343139076605439
8192.0,0.0020831802394241095
end
