version,3.0
numOfCh,1
type,point
parent_name,484af_0dot2-0dot01
ch_type,1_1
kcount,1
numberNandB,1
brightnessNandB,1
carpet pos,0
pc,0
Time (ms),CH1 Auto-Correlation
1.0,0.11317665874958038
2.0,0.11244690418243408
3.0,0.11171671003103256
4.0,0.11099687218666077
5.0,0.11030543595552444
6.0,0.10962917655706406
7.0,0.10898959636688232
8.0,0.10838426649570465
9.0,0.10773242264986038
10.0,0.10707400739192963
11.0,0.10643375664949417
12.0,0.1057686135172844
13.0,0.10513827949762344
14.0,0.10453584790229797
15.0,0.10394634306430817
16.0,0.10340907424688339
18.0,0.10240645706653595
20.0,0.10147882252931595
22.0,0.10055981576442719
24.0,0.09972235560417175
26.0,0.0989052876830101
28.0,0.09817671030759811
30.0,0.0974717065691948
32.0,0.09680292755365372
36.0,0.09556571394205093
40.0,0.09424347430467606
44.0,0.0928863063454628
48.0,0.09151161462068558
52.0,0.09037221223115921
56.0,0.08934255689382553
60.0,0.08845126628875732
64.0,0.08756952732801437
72.0,0.085989810526371
80.0,0.08427645266056061
88.0,0.08210673183202744
96.0,0.0799606665968895
104.0,0.07785617560148239
112.0,0.07598777860403061
120.0,0.07421068847179413
128.0,0.0724954903125763
144.0,0.06874798238277435
160.0,0.06600110977888107
176.0,0.06333617120981216
192.0,0.059500761330127716
208.0,0.05565275251865387
224.0,0.05213913321495056
240.0,0.04905252531170845
256.0,0.046288639307022095
288.0,0.03944442421197891
320.0,0.032550711184740067
352.0,0.026636051014065742
384.0,0.020642520859837532
416.0,0.01499568484723568
448.0,0.00927890744060278
480.0,0.004370530601590872
512.0,-0.001838371972553432
576.0,-0.012886992655694485
640.0,-0.018427474424242973
704.0,-0.019452396780252457
768.0,-0.018315065652132034
832.0,-0.012034895829856396
896.0,-0.006622765213251114
960.0,-0.0030512697994709015
1024.0,0.0067191896960139275
1152.0,0.015173768624663353
1280.0,0.019210120663046837
1408.0,0.012872948311269283
1536.0,0.0026031844317913055
1664.0,-0.013414805755019188
1792.0,-0.019669385626912117
1920.0,-0.020762095227837563
2048.0,-0.021168703213334084
2304.0,-0.018758753314614296
2560.0,-0.02293340675532818
2816.0,-0.028307532891631126
3072.0,-0.032274533063173294
3328.0,-0.01602373644709587
3584.0,0.002340937964618206
3840.0,0.0032835444435477257
4096.0,-0.00631925743073225
end
