version,3.0
numOfCh,1
type,point
parent_name,484af_0dot2-0dot01
ch_type,1_1
kcount,1
numberNandB,1
brightnessNandB,1
carpet pos,0
pc,0
Time (ms),CH1 Auto-Correlation
1.0,0.03327986225485802
2.0,0.03270659223198891
3.0,0.03216470777988434
4.0,0.03163742646574974
5.0,0.031127208843827248
6.0,0.03063857927918434
7.0,0.030171161517500877
8.0,0.029713204130530357
9.0,0.029263971373438835
10.0,0.0288198534399271
11.0,0.02837933413684368
12.0,0.027951760217547417
13.0,0.0275366622954607
14.0,0.027140513062477112
15.0,0.026774467900395393
16.0,0.026433277875185013
18.0,0.025764992460608482
20.0,0.025094203650951385
22.0,0.024396685883402824
24.0,0.02373865433037281
26.0,0.023125434294342995
28.0,0.022503087297081947
30.0,0.021884934976696968
32.0,0.021324368193745613
36.0,0.020370351150631905
40.0,0.01941438764333725
44.0,0.018518801778554916
48.0,0.017658252269029617
52.0,0.016937851905822754
56.0,0.01637515425682068
60.0,0.015819856896996498
64.0,0.015254098922014236
72.0,0.014253559522330761
80.0,0.013353316113352776
88.0,0.01257046777755022
96.0,0.011860956437885761
104.0,0.011078022420406342
112.0,0.010471833869814873
120.0,0.009880206547677517
128.0,0.009073495864868164
144.0,0.0073650977574288845
160.0,0.006200851406902075
176.0,0.004746716003865004
192.0,0.0031567492987960577
208.0,0.0019157929345965385
224.0,0.0011735220905393362
240.0,0.0010403989581391215
256.0,0.0007842913037165999
288.0,0.000936089432798326
320.0,0.0008743652724660933
352.0,0.0005484908469952643
384.0,0.0008116362150758505
416.0,0.0012181594502180815
448.0,0.0014486609725281596
480.0,0.0016689336625859141
512.0,0.0011888775043189526
576.0,-0.001039092312566936
640.0,-0.0024235229939222336
704.0,-0.0014010245213285089
768.0,4.207193705951795e-05
832.0,0.0011344262165948749
896.0,-0.0013427353696897626
960.0,-0.003620237810537219
1024.0,-0.0061875563114881516
1152.0,-0.005079504102468491
1280.0,-0.002997493138536811
1408.0,-0.004322650842368603
1536.0,-0.0046752518974244595
1664.0,-0.0013764741597697139
1792.0,-0.0028310157358646393
1920.0,-0.003825373249128461
2048.0,-0.0017153178341686726
2304.0,-0.0018308596918359399
2560.0,0.004518377128988504
2816.0,0.0007456807070411742
3072.0,0.0008784589008428156
3328.0,0.003548732493072748
3584.0,-0.0013679602416232228
3840.0,0.001674980390816927
4096.0,-0.0005355721223168075
4608.0,-0.0025781975127756596
5120.0,0.0001529499131720513
5632.0,-9.365180449094623e-05
6144.0,-0.0008407179266214371
6656.0,0.0036022935528308153
7168.0,0.0005906763253733516
7680.0,-0.0005819989601150155
8192.0,-0.002149200066924095
end
