version,3.0
numOfCh,1
type,point
parent_name,484af_0dot2-0dot01
ch_type,1_1
kcount,1
numberNandB,1
brightnessNandB,1
carpet pos,0
pc,0
Time (ms),CH1 Auto-Correlation
1.0,0.03740159049630165
2.0,0.036838747560977936
3.0,0.03629162907600403
4.0,0.03575741499662399
5.0,0.03522966057062149
6.0,0.03471120074391365
7.0,0.034209344536066055
8.0,0.03371178358793259
9.0,0.033218689262866974
10.0,0.03272891044616699
11.0,0.032248180359601974
12.0,0.03177288919687271
13.0,0.03131645545363426
14.0,0.03087112493813038
15.0,0.030433014035224915
16.0,0.03000502474606037
18.0,0.029192883521318436
20.0,0.028455466032028198
22.0,0.02772705815732479
24.0,0.027001062408089638
26.0,0.026340480893850327
28.0,0.02570347487926483
30.0,0.025070367380976677
32.0,0.024470778182148933
36.0,0.023387977853417397
40.0,0.022466761991381645
44.0,0.021642275154590607
48.0,0.0209594015032053
52.0,0.020422369241714478
56.0,0.01999559998512268
60.0,0.019567914307117462
64.0,0.019232572987675667
72.0,0.018560495227575302
80.0,0.01770683191716671
88.0,0.01699889451265335
96.0,0.016509411856532097
104.0,0.016204554587602615
112.0,0.01600705459713936
120.0,0.01585560105741024
128.0,0.015614254400134087
144.0,0.014430347830057144
160.0,0.013464495539665222
176.0,0.012795288115739822
192.0,0.012207504361867905
208.0,0.011296321637928486
224.0,0.00997184868901968
240.0,0.009283938445150852
256.0,0.008966615423560143
288.0,0.00870729424059391
320.0,0.00745393056422472
352.0,0.006282907444983721
384.0,0.005749906878918409
416.0,0.005524080246686935
448.0,0.005470314063131809
480.0,0.005227223038673401
512.0,0.003212332958355546
576.0,-0.0012599782785400748
640.0,-0.003154905280098319
704.0,-0.0028334727976471186
768.0,-0.004886576905846596
832.0,-0.005053626373410225
896.0,-0.005376163404434919
960.0,-0.003581519704312086
1024.0,-0.002314731478691101
1152.0,-0.0017496715299785137
1280.0,-0.0003403956943657249
1408.0,0.003721668617799878
1536.0,0.005458570085465908
1664.0,0.004994486458599567
1792.0,0.005907464772462845
1920.0,0.006587691605091095
2048.0,0.00487153185531497
2304.0,0.002953167539089918
2560.0,0.001468796283006668
2816.0,-0.001638753223232925
3072.0,-0.0011383002856746316
3328.0,0.004470476880669594
3584.0,0.0028266089502722025
3840.0,0.0028580529615283012
4096.0,-0.0004097623168490827
4608.0,-0.00029619468841701746
5120.0,-0.005634779576212168
5632.0,-0.0026679367292672396
6144.0,0.0010517326882109046
6656.0,-0.006589431781321764
7168.0,-0.010325318202376366
7680.0,-0.005886029917746782
8192.0,0.0033338135108351707
end
