version,3.0
numOfCh,1
type,point
parent_name,2-cuts
ch_type,1_1
kcount,1
numberNandB,1
brightnessNandB,1
carpet pos,0
pc,0
Time (ms),CH1 Auto-Correlation
1.0,0.08885365724563599
2.0,0.08833621442317963
3.0,0.08781509846448898
4.0,0.08729545772075653
5.0,0.08678719401359558
6.0,0.08628149330615997
7.0,0.08577699959278107
8.0,0.08526195585727692
9.0,0.08475086838006973
10.0,0.08424214273691177
11.0,0.08374540507793427
12.0,0.08325336128473282
13.0,0.08278093487024307
14.0,0.08230450004339218
15.0,0.0818268209695816
16.0,0.08135773986577988
18.0,0.08042701333761215
20.0,0.07947846502065659
22.0,0.07853221148252487
24.0,0.0775887593626976
26.0,0.07667792588472366
28.0,0.07579351216554642
30.0,0.07492679357528687
32.0,0.07410300523042679
36.0,0.07252979278564453
40.0,0.0710015743970871
44.0,0.06953473389148712
48.0,0.06820981204509735
52.0,0.06705678254365921
56.0,0.06598275899887085
60.0,0.06490908563137054
64.0,0.06391162425279617
72.0,0.06207690015435219
80.0,0.06038404628634453
88.0,0.05876963958144188
96.0,0.05703115463256836
104.0,0.05523783713579178
112.0,0.053551748394966125
120.0,0.05183277279138565
128.0,0.05037626251578331
144.0,0.04811592027544975
160.0,0.04614482447504997
176.0,0.04427962377667427
192.0,0.04272977635264397
208.0,0.041585326194763184
224.0,0.040067169815301895
240.0,0.03855592757463455
256.0,0.037152644246816635
288.0,0.03484028950333595
320.0,0.03136669844388962
352.0,0.028588538989424706
384.0,0.026722602546215057
416.0,0.02561059407889843
448.0,0.023598501458764076
480.0,0.021677743643522263
512.0,0.019495511427521706
576.0,0.01683036796748638
640.0,0.014789984561502934
704.0,0.012170434929430485
768.0,0.009494257159531116
832.0,0.007345958612859249
896.0,0.008085810579359531
960.0,0.008417628705501556
1024.0,0.008986182510852814
1152.0,0.011827263981103897
1280.0,0.012310216203331947
1408.0,0.01909414678812027
1536.0,0.02271951735019684
1664.0,0.027455724775791168
1792.0,0.027071215212345123
1920.0,0.026431884616613388
2048.0,0.02420762926340103
2304.0,0.018193203955888748
2560.0,0.011347922496497631
2816.0,0.005429845303297043
3072.0,0.00132109469268471
3328.0,0.0061954353004693985
3584.0,0.015652095898985863
3840.0,0.022578909993171692
4096.0,0.020297637209296227
4608.0,0.0008590076467953622
5120.0,-0.00505249947309494
5632.0,-0.004659164231270552
6144.0,-0.009466415271162987
6656.0,-0.013333000242710114
7168.0,-0.016777701675891876
7680.0,-0.006536661181598902
8192.0,-0.012041936628520489
9216.0,-0.028676185756921768
10240.0,-0.023356201127171516
11264.0,-0.020755868405103683
12288.0,-0.02807675115764141
13312.0,-0.024034671485424042
14336.0,-0.033981144428253174
end
