version,3.0
numOfCh,1
type,point
parent_name,2-cuts
ch_type,1_1
kcount,1
numberNandB,1
brightnessNandB,1
carpet pos,0
pc,0
Time (ms),CH1 Auto-Correlation
1.0,0.07288257777690887
2.0,0.07239508628845215
3.0,0.07193221896886826
4.0,0.07145729660987854
5.0,0.07098136842250824
6.0,0.070504330098629
7.0,0.07002011686563492
8.0,0.06953401118516922
9.0,0.06905502080917358
10.0,0.0685800090432167
11.0,0.0681118592619896
12.0,0.06765548884868622
13.0,0.06720858067274094
14.0,0.06676909327507019
15.0,0.06633749604225159
16.0,0.06589826196432114
18.0,0.0650530681014061
20.0,0.0642375499010086
22.0,0.06342972069978714
24.0,0.06264181435108185
26.0,0.06189630180597305
28.0,0.06117423251271248
30.0,0.06047193706035614
32.0,0.05976855009794235
36.0,0.058416932821273804
40.0,0.05715695768594742
44.0,0.05598972737789154
48.0,0.05491337180137634
52.0,0.053869545459747314
56.0,0.05285847187042236
60.0,0.05181865394115448
64.0,0.05072450265288353
72.0,0.04877597093582153
80.0,0.04684649407863617
88.0,0.04481174424290657
96.0,0.04312156140804291
104.0,0.041620757430791855
112.0,0.040227048099040985
120.0,0.038880232721567154
128.0,0.03764639049768448
144.0,0.035633716732263565
160.0,0.03374931961297989
176.0,0.031698428094387054
192.0,0.02933017536997795
208.0,0.02721630409359932
224.0,0.02552349865436554
240.0,0.023857643827795982
256.0,0.022191161289811134
288.0,0.01780339889228344
320.0,0.013364266604185104
352.0,0.009244984947144985
384.0,0.0065834419801831245
416.0,0.004378866404294968
448.0,0.0026081076357513666
480.0,0.0007683561998419464
512.0,-0.000723907956853509
576.0,-0.0016724751330912113
640.0,-0.0005672196857631207
704.0,-0.0012975700665265322
768.0,-0.0026805303059518337
832.0,-0.002361161634325981
896.0,-0.001725318026728928
960.0,-0.005279324017465115
1024.0,-0.007912345230579376
1152.0,-0.0062330556102097034
1280.0,-0.00463186064735055
1408.0,-0.0008297176100313663
1536.0,0.00656041270121932
1664.0,0.007154578343033791
1792.0,0.010411380790174007
1920.0,0.011493993923068047
2048.0,0.012141762301325798
2304.0,0.014103010296821594
2560.0,0.001013292116113007
2816.0,-0.00727789057418704
3072.0,-0.0014810317661613226
3328.0,-0.006261770613491535
3584.0,-0.003312671324238181
3840.0,0.004692526534199715
4096.0,0.002386283129453659
4608.0,-0.00288532767444849
5120.0,-0.010384193621575832
5632.0,0.004744171164929867
6144.0,-0.0064040725119411945
6656.0,0.005224260967224836
7168.0,-0.007337228860706091
7680.0,-0.0055428254418075085
8192.0,-0.0021448226179927588
9216.0,-0.009968884289264679
10240.0,0.0016327151097357273
11264.0,-0.010607183910906315
12288.0,-0.004463438410311937
13312.0,-0.008739314042031765
14336.0,-0.008700949139893055
end
