version,3.0
numOfCh,1
type,point
parent_name,2-cuts
ch_type,1_1
kcount,1
numberNandB,1
brightnessNandB,1
carpet pos,0
pc,0
Time (ms),CH1 Auto-Correlation
1.0,0.06419562548398972
2.0,0.06374163180589676
3.0,0.06329311430454254
4.0,0.06284080445766449
5.0,0.062394317239522934
6.0,0.06195920705795288
7.0,0.0615292452275753
8.0,0.06111230328679085
9.0,0.06070195510983467
10.0,0.060303982347249985
11.0,0.059899188578128815
12.0,0.05951536074280739
13.0,0.05914311110973358
14.0,0.05875876918435097
15.0,0.05839863792061806
16.0,0.05804915726184845
18.0,0.05734392628073692
20.0,0.05665826424956322
22.0,0.05600060522556305
24.0,0.0553765594959259
26.0,0.05479302629828453
28.0,0.05424492433667183
30.0,0.053727928549051285
32.0,0.05319907143712044
36.0,0.052143387496471405
40.0,0.051077064126729965
44.0,0.049994420260190964
48.0,0.04889567196369171
52.0,0.04779063165187836
56.0,0.04669475182890892
60.0,0.04560809209942818
64.0,0.044524889439344406
72.0,0.04227418825030327
80.0,0.040180809795856476
88.0,0.03836037591099739
96.0,0.036721136420965195
104.0,0.035147909075021744
112.0,0.03377113118767738
120.0,0.03250216692686081
128.0,0.03124045394361019
144.0,0.029231933876872063
160.0,0.027882125228643417
176.0,0.026378195732831955
192.0,0.02521691471338272
208.0,0.024128340184688568
224.0,0.023694118484854698
240.0,0.02362988330423832
256.0,0.023731829598546028
288.0,0.02299206703901291
320.0,0.021846817806363106
352.0,0.020063025876879692
384.0,0.01790248416364193
416.0,0.015157260000705719
448.0,0.01236630603671074
480.0,0.009842675179243088
512.0,0.00795083399862051
576.0,0.007341601885855198
640.0,0.007288586813956499
704.0,0.007699643727391958
768.0,0.0076002865098416805
832.0,0.005114992149174213
896.0,0.003746077883988619
960.0,0.0028353268280625343
1024.0,0.002336431061848998
1152.0,0.001730560208670795
1280.0,-0.0019886218942701817
1408.0,-0.006835545413196087
1536.0,-0.007513989228755236
1664.0,-0.0090912701562047
1792.0,-0.007456270512193441
1920.0,-0.005391141399741173
2048.0,-0.0040749856270849705
2304.0,-0.0031695030629634857
2560.0,-0.0010341325541958213
2816.0,0.002140686148777604
3072.0,-0.003556898795068264
3328.0,-0.01008247584104538
3584.0,-0.006806673016399145
3840.0,-0.003384367795661092
4096.0,-0.0037079029716551304
4608.0,-0.008212236687541008
5120.0,-0.013058820739388466
5632.0,-0.011041239835321903
6144.0,-0.006343318149447441
6656.0,0.0034879501909017563
7168.0,0.007077654357999563
7680.0,0.014426957815885544
8192.0,0.016527341678738594
9216.0,-0.0035227076150476933
10240.0,0.0011113829677924514
11264.0,-0.004844081588089466
12288.0,-0.004695020150393248
13312.0,-0.002969529014080763
14336.0,-0.007156877312809229
end
