version,3.0
numOfCh,1
type,point
parent_name,2-cuts
ch_type,1_1
kcount,1
numberNandB,1
brightnessNandB,1
carpet pos,0
pc,0
Time (ms),CH1 Auto-Correlation
1.0,0.029905343428254128
2.0,0.029699573293328285
3.0,0.029499787837266922
4.0,0.02930307388305664
5.0,0.02910182997584343
6.0,0.028904488310217857
7.0,0.028706001117825508
8.0,0.028510889038443565
9.0,0.02832171879708767
10.0,0.0281301848590374
11.0,0.027942674234509468
12.0,0.027758872136473656
13.0,0.027576111257076263
14.0,0.027392635121941566
15.0,0.027217429131269455
16.0,0.02704486809670925
18.0,0.02670302800834179
20.0,0.026356035843491554
22.0,0.026007862761616707
24.0,0.025674156844615936
26.0,0.025361953303217888
28.0,0.025070061907172203
30.0,0.024781234562397003
32.0,0.024485018104314804
36.0,0.02391441911458969
40.0,0.023379690945148468
44.0,0.02287682704627514
48.0,0.022394057363271713
52.0,0.021907800808548927
56.0,0.021432213485240936
60.0,0.020967556163668633
64.0,0.02051970176398754
72.0,0.019707627594470978
80.0,0.018945394083857536
88.0,0.018224013969302177
96.0,0.01758943684399128
104.0,0.017039889469742775
112.0,0.016410555690526962
120.0,0.015787295997142792
128.0,0.015247230418026447
144.0,0.014334304258227348
160.0,0.013499101623892784
176.0,0.012615121901035309
192.0,0.011936087161302567
208.0,0.011370697058737278
224.0,0.01091044396162033
240.0,0.010466821491718292
256.0,0.010235916823148727
288.0,0.009433851577341557
320.0,0.008429295383393764
352.0,0.00777883967384696
384.0,0.0072996243834495544
416.0,0.006914511788636446
448.0,0.006347339600324631
480.0,0.005407711490988731
512.0,0.00421867286786437
576.0,0.002501789713278413
640.0,0.002105369931086898
704.0,0.0034977842587977648
768.0,0.004737229086458683
832.0,0.004453528672456741
896.0,0.0036262348294258118
960.0,0.0028969242703169584
1024.0,0.0016392706893384457
1152.0,0.0025133879389613867
1280.0,0.0016452227719128132
1408.0,-0.0002958715194836259
1536.0,0.0006734749185852706
1664.0,0.0008583397138863802
1792.0,-0.001300874981097877
1920.0,-0.0033057229593396187
2048.0,-0.004314451944082975
2304.0,-0.00075304921483621
2560.0,0.00281025399453938
2816.0,-0.0015306476270779967
3072.0,-0.0056160930544137955
3328.0,-0.007036484312266111
3584.0,-0.005225409287959337
3840.0,-0.005443467292934656
4096.0,-0.00244312291033566
4608.0,-0.004679164383560419
5120.0,0.001868387684226036
5632.0,-0.003516032826155424
6144.0,-0.0025967112742364407
6656.0,0.0008905447903089225
7168.0,7.612005720147863e-05
7680.0,0.0031973200384527445
8192.0,-0.0026619962882250547
9216.0,0.004099570214748383
10240.0,-0.0006234542233869433
11264.0,-0.0030395432841032743
12288.0,0.0012158568715676665
13312.0,-0.0002124448074027896
14336.0,0.00047692767111584544
end
