version,3.0
numOfCh,1
type,point
parent_name,2-cuts
ch_type,1_1
kcount,1
numberNandB,1
brightnessNandB,1
carpet pos,0
pc,0
Time (ms),CH1 Auto-Correlation
1.0,0.07951425015926361
2.0,0.07902653515338898
3.0,0.07854512333869934
4.0,0.07805915176868439
5.0,0.0775698572397232
6.0,0.07709085196256638
7.0,0.07661346346139908
8.0,0.0761554017663002
9.0,0.07570967078208923
10.0,0.07528218626976013
11.0,0.07485879957675934
12.0,0.0744393989443779
13.0,0.0740276575088501
14.0,0.07362955808639526
15.0,0.07323473691940308
16.0,0.07285082340240479
18.0,0.07206873595714569
20.0,0.07126210629940033
22.0,0.07043217122554779
24.0,0.06963316351175308
26.0,0.06885059177875519
28.0,0.06809060275554657
30.0,0.06734275072813034
32.0,0.0666271224617958
36.0,0.06524410098791122
40.0,0.06384041905403137
44.0,0.06245132163167
48.0,0.0611046701669693
52.0,0.05982697010040283
56.0,0.05859138444066048
60.0,0.057444509118795395
64.0,0.056329261511564255
72.0,0.05424412712454796
80.0,0.05229595676064491
88.0,0.05067845433950424
96.0,0.049329973757267
104.0,0.04813000187277794
112.0,0.047159384936094284
120.0,0.046271227300167084
128.0,0.045463867485523224
144.0,0.04401961341500282
160.0,0.042392101138830185
176.0,0.04067334160208702
192.0,0.03851160407066345
208.0,0.03628211095929146
224.0,0.03454649820923805
240.0,0.032868530601263046
256.0,0.03120976686477661
288.0,0.02895442210137844
320.0,0.027568990364670753
352.0,0.02615422010421753
384.0,0.02478097938001156
416.0,0.0232105515897274
448.0,0.02100847102701664
480.0,0.019720030948519707
512.0,0.019282901659607887
576.0,0.015877740457654
640.0,0.011213595978915691
704.0,0.009009357541799545
768.0,0.007326464634388685
832.0,0.007008891087025404
896.0,0.005419141612946987
960.0,0.0029300092719495296
1024.0,0.003339608432725072
1152.0,-0.0029598716646432877
1280.0,-0.00194747862406075
1408.0,0.0023723545018583536
1536.0,0.00038554129423573613
1664.0,-0.002867869334295392
1792.0,-0.0027146826032549143
1920.0,-0.0005082499701529741
2048.0,-0.0018319967202842236
2304.0,-0.0024180165491998196
2560.0,-0.010162288323044777
2816.0,-0.014443444088101387
3072.0,-0.012012295424938202
3328.0,-0.004442215897142887
3584.0,0.004896784201264381
3840.0,-0.002062178449705243
4096.0,-0.004188189748674631
4608.0,-0.008810555562376976
5120.0,-0.0016270419582724571
5632.0,0.0014994741650298238
6144.0,-0.01117710117250681
6656.0,-0.019261375069618225
7168.0,-0.009447697550058365
7680.0,-0.006068478338420391
8192.0,-0.0010517960181459785
9216.0,0.006121177226305008
10240.0,-0.0002548619522713125
11264.0,0.011494814418256283
12288.0,-0.0029433814343065023
13312.0,-0.004254932980984449
14336.0,0.01684545911848545
end
