version,3.0
numOfCh,1
type,point
parent_name,2-cuts
ch_type,1_1
kcount,1
numberNandB,1
brightnessNandB,1
carpet pos,0
pc,0
Time (ms),CH1 Auto-Correlation
1.0,0.0910484790802002
2.0,0.09049811959266663
3.0,0.08994600176811218
4.0,0.08939680457115173
5.0,0.08886431902647018
6.0,0.08834619075059891
7.0,0.0878414511680603
8.0,0.08734267204999924
9.0,0.0868534967303276
10.0,0.08637022972106934
11.0,0.0858851820230484
12.0,0.08540764451026917
13.0,0.08493483811616898
14.0,0.08446219563484192
15.0,0.08399533480405807
16.0,0.08352252095937729
18.0,0.08259555697441101
20.0,0.08173449337482452
22.0,0.08090220391750336
24.0,0.08010140061378479
26.0,0.07932990789413452
28.0,0.07859080284833908
30.0,0.07786328345537186
32.0,0.0771230086684227
36.0,0.07555993646383286
40.0,0.07394523173570633
44.0,0.07242213189601898
48.0,0.07099683582782745
52.0,0.06971772760152817
56.0,0.06852705776691437
60.0,0.0673639103770256
64.0,0.066273532807827
72.0,0.06430665403604507
80.0,0.06236831098794937
88.0,0.0605183020234108
96.0,0.058830376714468
104.0,0.05728772655129433
112.0,0.055787041783332825
120.0,0.054152823984622955
128.0,0.05263226479291916
144.0,0.050078149884939194
160.0,0.04797113686800003
176.0,0.046524010598659515
192.0,0.04568653553724289
208.0,0.04481976479291916
224.0,0.043669238686561584
240.0,0.04253874719142914
256.0,0.04140060395002365
288.0,0.03877418488264084
320.0,0.03462289273738861
352.0,0.03001886047422886
384.0,0.026824120432138443
416.0,0.025414489209651947
448.0,0.024494366720318794
480.0,0.02417556755244732
512.0,0.02309022657573223
576.0,0.016263052821159363
640.0,0.00906501803547144
704.0,0.006362820044159889
768.0,0.005498538725078106
832.0,0.0033633464481681585
896.0,-0.00046612846199423075
960.0,-0.005608661100268364
1024.0,-0.006502711214125156
1152.0,-0.008707496337592602
1280.0,-0.013917737640440464
1408.0,-0.016597364097833633
1536.0,-0.014814146794378757
1664.0,-0.008272583596408367
1792.0,-0.0067841229028999805
1920.0,-0.008242898620665073
2048.0,-0.006946737878024578
2304.0,0.0015637018950656056
2560.0,0.004837757907807827
2816.0,-0.00021751206077169627
3072.0,-0.004883503075689077
3328.0,-0.008260967209935188
3584.0,-0.00025540098431520164
3840.0,0.0036753322929143906
4096.0,-0.00017315585864707828
4608.0,0.005370426457375288
5120.0,0.0036555021069943905
5632.0,-0.011523164808750153
6144.0,-0.011209351941943169
6656.0,-0.0003545460640452802
7168.0,-2.788653910101857e-05
7680.0,-0.01949012652039528
8192.0,-0.036676522344350815
9216.0,0.0010709123453125358
10240.0,0.021406356245279312
11264.0,-0.0022384978365153074
12288.0,-0.019098864868283272
13312.0,-0.01489371620118618
14336.0,0.03226170688867569
end
