version,3.0
numOfCh,1
type,point
parent_name,2-cuts
ch_type,1_1
kcount,1
numberNandB,1
brightnessNandB,1
carpet pos,0
pc,0
Time (ms),CH1 Auto-Correlation
1.0,0.057313185185194016
2.0,0.05692022666335106
3.0,0.05652421712875366
4.0,0.05612858384847641
5.0,0.05574734881520271
6.0,0.0553748793900013
7.0,0.055008839815855026
8.0,0.05465628206729889
9.0,0.05430605635046959
10.0,0.05396774411201477
11.0,0.053645458072423935
12.0,0.05333373695611954
13.0,0.053033240139484406
14.0,0.052744608372449875
15.0,0.0524522066116333
16.0,0.05216439440846443
18.0,0.05160224065184593
20.0,0.05107184126973152
22.0,0.05055849626660347
24.0,0.050051040947437286
26.0,0.04954756796360016
28.0,0.049063947051763535
30.0,0.04857347533106804
32.0,0.048099905252456665
36.0,0.047170452773571014
40.0,0.046314213424921036
44.0,0.04549824073910713
48.0,0.044717684388160706
52.0,0.043968211859464645
56.0,0.04320099577307701
60.0,0.04244881868362427
64.0,0.04174473136663437
72.0,0.040434643626213074
80.0,0.03911731392145157
88.0,0.03785406053066254
96.0,0.03689036890864372
104.0,0.03619402274489403
112.0,0.03572366014122963
120.0,0.03529799357056618
128.0,0.034870002418756485
144.0,0.0341932512819767
160.0,0.03343424201011658
176.0,0.03226828947663307
192.0,0.03094271570444107
208.0,0.02973892353475094
224.0,0.028582105413079262
240.0,0.027692874893546104
256.0,0.026963448151946068
288.0,0.026087399572134018
320.0,0.02499069832265377
352.0,0.02346193604171276
384.0,0.02224777825176716
416.0,0.021798279136419296
448.0,0.022090118378400803
480.0,0.022620484232902527
512.0,0.02285170555114746
576.0,0.02223176322877407
640.0,0.022247392684221268
704.0,0.022150302305817604
768.0,0.020952347666025162
832.0,0.01955084688961506
896.0,0.016008421778678894
960.0,0.01470071729272604
1024.0,0.0137582803145051
1152.0,0.013906214386224747
1280.0,0.010949846357107162
1408.0,0.01006388757377863
1536.0,0.01077886950224638
1664.0,0.007981276139616966
1792.0,0.005641339346766472
1920.0,0.005739966407418251
2048.0,0.00370027800090611
2304.0,-0.001360138296149671
2560.0,-0.005426687188446522
2816.0,-0.005330638960003853
3072.0,-0.007023039739578962
3328.0,-0.009432253427803516
3584.0,-0.006631382275372744
3840.0,-0.004730422981083393
4096.0,-0.007599412463605404
4608.0,-0.007307607214897871
5120.0,-0.00036437902599573135
5632.0,0.007075061090290546
6144.0,0.00243369210511446
6656.0,0.004945016000419855
7168.0,0.0036695622839033604
7680.0,-0.0005559868877753615
8192.0,-0.012801568023860455
9216.0,-0.02219579555094242
10240.0,-0.03312365338206291
11264.0,-0.010203882120549679
12288.0,0.011273534037172794
13312.0,0.004911727737635374
14336.0,0.021651891991496086
end
