version,3.0
numOfCh,1
type,point
parent_name,2-cuts
ch_type,1_1
kcount,1
numberNandB,1
brightnessNandB,1
carpet pos,0
pc,0
Time (ms),CH1 Auto-Correlation
1.0,0.047591667622327805
2.0,0.04722021892666817
3.0,0.04686589166522026
4.0,0.046515218913555145
5.0,0.04617386311292648
6.0,0.04584064707159996
7.0,0.04550918936729431
8.0,0.04517829418182373
9.0,0.04485529661178589
10.0,0.04454318434000015
11.0,0.04424341022968292
12.0,0.04394744336605072
13.0,0.043652985244989395
14.0,0.043350592255592346
15.0,0.04305628314614296
16.0,0.04275994375348091
18.0,0.042203038930892944
20.0,0.04166766256093979
22.0,0.04116301238536835
24.0,0.040680140256881714
26.0,0.04020082205533981
28.0,0.03972015902400017
30.0,0.039219360798597336
32.0,0.038698840886354446
36.0,0.037687063217163086
40.0,0.03670243173837662
44.0,0.03578640893101692
48.0,0.034859612584114075
52.0,0.03393943980336189
56.0,0.03303089365363121
60.0,0.032168641686439514
64.0,0.03134758025407791
72.0,0.02976682223379612
80.0,0.028190208598971367
88.0,0.026664400473237038
96.0,0.02532285824418068
104.0,0.024076474830508232
112.0,0.022854983806610107
120.0,0.021691344678401947
128.0,0.020767509937286377
144.0,0.018917318433523178
160.0,0.016930721700191498
176.0,0.015215071849524975
192.0,0.013729177415370941
208.0,0.012287983670830727
224.0,0.010713823139667511
240.0,0.009152921847999096
256.0,0.008031847886741161
288.0,0.006979980040341616
320.0,0.005935566499829292
352.0,0.005071313586086035
384.0,0.004762138240039349
416.0,0.005205893889069557
448.0,0.005069337785243988
480.0,0.004607641603797674
512.0,0.0037726140581071377
576.0,0.0024428756441920996
640.0,0.0027629141695797443
704.0,0.006172573659569025
768.0,0.007390381768345833
832.0,0.008319055661559105
896.0,0.007691107224673033
960.0,0.00580771267414093
1024.0,0.005363225471228361
1152.0,0.00569400517269969
1280.0,0.0038270496297627687
1408.0,0.0019014017889276147
1536.0,0.0017945736180990934
1664.0,4.858030297327787e-05
1792.0,-0.0013497278559952974
1920.0,-0.002740283263847232
2048.0,0.0003034001274500042
2304.0,0.0002183355827583
2560.0,-0.002412482164800167
2816.0,0.00039833373739384115
3072.0,-0.0016995869809761643
3328.0,0.0002201828028773889
3584.0,0.0016402535839006305
3840.0,-0.0017335579032078385
4096.0,-0.00487281521782279
4608.0,0.00034787587355822325
5120.0,-0.0032174086663872004
5632.0,-0.002467291196808219
6144.0,-0.0006282935501076281
6656.0,-0.00487659452483058
7168.0,-0.0015082878526300192
7680.0,-0.009517701342701912
8192.0,-0.00031837369897402823
9216.0,0.0003818850382231176
10240.0,0.00489804707467556
11264.0,-0.0005677402950823307
12288.0,-0.008457722142338753
13312.0,-0.0030456578824669123
14336.0,0.002002624562010169
end
