version,3.0
numOfCh,1
type,point
parent_name,2-cuts
ch_type,1_1
kcount,1
numberNandB,1
brightnessNandB,1
carpet pos,0
pc,0
Time (ms),CH1 Auto-Correlation
1.0,0.06934194266796112
2.0,0.06874620914459229
3.0,0.06817015260457993
4.0,0.06758897006511688
5.0,0.06703103333711624
6.0,0.06647209078073502
7.0,0.06590741127729416
8.0,0.06535165011882782
9.0,0.0647960975766182
10.0,0.06424234807491302
11.0,0.06369821727275848
12.0,0.0631333440542221
13.0,0.0625811517238617
14.0,0.06203640252351761
15.0,0.061493679881095886
16.0,0.060959506779909134
18.0,0.05988701432943344
20.0,0.05884333327412605
22.0,0.057852186262607574
24.0,0.05691487714648247
26.0,0.05601717159152031
28.0,0.05518398433923721
30.0,0.054383788257837296
32.0,0.05359124392271042
36.0,0.05216618627309799
40.0,0.05093803256750107
44.0,0.04972000792622566
48.0,0.0485781729221344
52.0,0.04746125638484955
56.0,0.046328261494636536
60.0,0.04521486908197403
64.0,0.0440329983830452
72.0,0.04168520122766495
80.0,0.039506539702415466
88.0,0.03757278621196747
96.0,0.03599746152758598
104.0,0.034638550132513046
112.0,0.0334765762090683
120.0,0.03230293095111847
128.0,0.031003041192889214
144.0,0.028123900294303894
160.0,0.025303347036242485
176.0,0.022678786888718605
192.0,0.02009904757142067
208.0,0.017460741102695465
224.0,0.015269597060978413
240.0,0.013555812649428844
256.0,0.011564199812710285
288.0,0.0073022679425776005
320.0,0.0053795077838003635
352.0,0.004932586569339037
384.0,0.0050906045362353325
416.0,0.005477377213537693
448.0,0.0038299669977277517
480.0,0.0015171959530562162
512.0,0.00034177902853116393
576.0,0.00033408746821805835
640.0,-0.0018648529658094049
704.0,-0.0019400562159717083
768.0,-4.864274160354398e-05
832.0,0.0014863465912640095
896.0,0.004308510571718216
960.0,0.004861928056925535
1024.0,0.004213674925267696
1152.0,0.004932062700390816
1280.0,0.006003910675644875
1408.0,0.006335620302706957
1536.0,0.007456806022673845
1664.0,0.009644645266234875
1792.0,0.008907089941203594
1920.0,0.0027482081204652786
2048.0,-0.00023610354401171207
2304.0,0.0038259595166891813
2560.0,-0.0013060118071734905
2816.0,0.00047816208098083735
3072.0,-0.0047790189273655415
3328.0,-0.005218484438955784
3584.0,-0.0011445677373558283
3840.0,-0.0001458433544030413
4096.0,0.0037784825544804335
4608.0,0.0027772090397775173
5120.0,-0.0008836258202791214
5632.0,0.0036602062173187733
6144.0,0.0024026588071137667
6656.0,-0.001058036694303155
7168.0,-0.0045520709827542305
7680.0,-0.005341692361980677
8192.0,-0.00724906288087368
9216.0,-0.003139160107821226
10240.0,-0.0008997484110295773
11264.0,-0.0013982746750116348
12288.0,-0.008017423562705517
13312.0,-0.013582872226834297
14336.0,-0.0362565815448761
end
