version,3.0
numOfCh,1
type,point
parent_name,2-cuts
ch_type,1_1
kcount,1
numberNandB,1
brightnessNandB,1
carpet pos,0
pc,0
Time (ms),CH1 Auto-Correlation
1.0,0.02982172556221485
2.0,0.029616866260766983
3.0,0.029411153867840767
4.0,0.02920214645564556
5.0,0.02899860218167305
6.0,0.028793321922421455
7.0,0.02859164960682392
8.0,0.028396008536219597
9.0,0.02820245735347271
10.0,0.028015868738293648
11.0,0.027828693389892578
12.0,0.02763998880982399
13.0,0.0274499598890543
14.0,0.027261827141046524
15.0,0.027072016149759293
16.0,0.026886511594057083
18.0,0.026528267189860344
20.0,0.026184512302279472
22.0,0.025840476155281067
24.0,0.025504738092422485
26.0,0.02516397088766098
28.0,0.024829939007759094
30.0,0.02450382150709629
32.0,0.024199102073907852
36.0,0.023626845329999924
40.0,0.023093611001968384
44.0,0.022591667249798775
48.0,0.0221087709069252
52.0,0.021654276177287102
56.0,0.02121417410671711
60.0,0.02078736200928688
64.0,0.020366348326206207
72.0,0.019504301249980927
80.0,0.01870880462229252
88.0,0.017927872017025948
96.0,0.01719444803893566
104.0,0.01653951033949852
112.0,0.015980685129761696
120.0,0.015500529669225216
128.0,0.015014122240245342
144.0,0.014218907803297043
160.0,0.01356014795601368
176.0,0.012793680652976036
192.0,0.011791442520916462
208.0,0.010644359514117241
224.0,0.009549957700073719
240.0,0.008582856506109238
256.0,0.007601949851959944
288.0,0.005612604320049286
320.0,0.004128503147512674
352.0,0.0031791571527719498
384.0,0.0026715677231550217
416.0,0.001991772325709462
448.0,0.0010758688440546393
480.0,0.00037813829840160906
512.0,0.0002507620956748724
576.0,0.0006210958235897124
640.0,0.00010134387412108481
704.0,-0.0002428345469525084
768.0,-0.0002525234594941139
832.0,-0.0001799992605810985
896.0,-0.0006654149037785828
960.0,-0.0010278107365593314
1024.0,-0.0017196143744513392
1152.0,-0.002478356473147869
1280.0,-0.0028888722881674767
1408.0,-0.0025787402410060167
1536.0,-0.0003145023947581649
1664.0,0.0007373698172159493
1792.0,0.00022056582383811474
1920.0,-0.0016076605534180999
2048.0,-0.003132917219772935
2304.0,3.2995158107951283e-05
2560.0,0.0028300173580646515
2816.0,0.005555717274546623
3072.0,0.0008612839155830443
3328.0,-0.0018492569215595722
3584.0,-0.002562051173299551
3840.0,-0.006914874538779259
4096.0,-0.0091624166816473
4608.0,-0.0017411252483725548
5120.0,-0.0009680903167463839
5632.0,0.0015664478996768594
6144.0,-0.0002774885797407478
6656.0,-0.0036788787692785263
7168.0,-0.0037917380686849356
7680.0,-0.004011644050478935
8192.0,0.004051168914884329
9216.0,0.0018646442331373692
10240.0,0.004129108972847462
11264.0,0.00448839645832777
12288.0,0.00027445281739346683
13312.0,-0.0022132364101707935
14336.0,-0.010062902234494686
end
