version,3.0
numOfCh,1
type,point
parent_name,2-cuts
ch_type,1_1
kcount,1
numberNandB,1
brightnessNandB,1
carpet pos,0
pc,0
Time (ms),CH1 Auto-Correlation
1.0,0.031378552317619324
2.0,0.0311885979026556
3.0,0.030998768284916878
4.0,0.030814863741397858
5.0,0.030636070296168327
6.0,0.030458591878414154
7.0,0.030282242223620415
8.0,0.030104272067546844
9.0,0.029932809993624687
10.0,0.029762016609311104
11.0,0.029594795778393745
12.0,0.029430067166686058
13.0,0.029272468760609627
14.0,0.029116390272974968
15.0,0.028960170224308968
16.0,0.02880820631980896
18.0,0.02850845828652382
20.0,0.02820981666445732
22.0,0.027918901294469833
24.0,0.027627913281321526
26.0,0.027341198176145554
28.0,0.02706160396337509
30.0,0.026786094531416893
32.0,0.026514114812016487
36.0,0.025987699627876282
40.0,0.025446880608797073
44.0,0.024932151660323143
48.0,0.024435441941022873
52.0,0.02397286146879196
56.0,0.023539822548627853
60.0,0.023113535717129707
64.0,0.022703321650624275
72.0,0.021927671507000923
80.0,0.021227458491921425
88.0,0.020561717450618744
96.0,0.0199416596442461
104.0,0.019415967166423798
112.0,0.01892472803592682
120.0,0.018381992354989052
128.0,0.017809947952628136
144.0,0.016836224123835564
160.0,0.015897372737526894
176.0,0.01509725209325552
192.0,0.014320100657641888
208.0,0.013486695475876331
224.0,0.012636678293347359
240.0,0.011990565806627274
256.0,0.011484440416097641
288.0,0.010590077377855778
320.0,0.009686838835477829
352.0,0.008961259387433529
384.0,0.008056141436100006
416.0,0.006979831960052252
448.0,0.005957538727670908
480.0,0.005267976783216
512.0,0.004420240875333548
576.0,0.002309790113940835
640.0,0.001756519777700305
704.0,0.0010670117335394025
768.0,-0.00022734385856892914
832.0,0.00013749430945608765
896.0,0.0009910812368616462
960.0,0.0007017374155111611
1024.0,-0.00030608740053139627
1152.0,-0.001594503759406507
1280.0,0.00012022502778563648
1408.0,0.0014953359495848417
1536.0,0.0023949728347361088
1664.0,0.002107907785102725
1792.0,7.652044587302953e-05
1920.0,-0.002970573492348194
2048.0,-0.00477619981393218
2304.0,-0.002111257053911686
2560.0,0.001114208367653191
2816.0,0.002376505872234702
3072.0,0.0016576548805460334
3328.0,-6.0926748119527474e-05
3584.0,-0.0035378672182559967
3840.0,-0.005544072948396206
4096.0,-0.00505327433347702
4608.0,-0.003752542193979025
5120.0,-0.004969436675310135
5632.0,-0.005998259875923395
6144.0,-0.0006205069948919117
6656.0,-0.0015593583229929209
7168.0,-0.0036895181983709335
7680.0,0.003573477501049638
8192.0,-0.0016690437914803624
9216.0,0.005920853931456804
10240.0,0.007014078553766012
11264.0,-0.00464840792119503
12288.0,-0.001692290068604052
13312.0,-0.006378752179443836
14336.0,0.013197948224842548
end
