version,3.0
numOfCh,1
type,point
parent_name,2-cuts
ch_type,1_1
kcount,1
numberNandB,1
brightnessNandB,1
carpet pos,0
pc,0
Time (ms),CH1 Auto-Correlation
1.0,0.06133121997117996
2.0,0.06081746146082878
3.0,0.06031569838523865
4.0,0.059831928461790085
5.0,0.05934472382068634
6.0,0.05887283384799957
7.0,0.05843118578195572
8.0,0.0579945370554924
9.0,0.0575559064745903
10.0,0.05711277946829796
11.0,0.05667715519666672
12.0,0.05624350905418396
13.0,0.055818598717451096
14.0,0.055388253182172775
15.0,0.05495899170637131
16.0,0.054540425539016724
18.0,0.05371787026524544
20.0,0.052950091660022736
22.0,0.052212055772542953
24.0,0.05147358402609825
26.0,0.05075182020664215
28.0,0.050040353089571
30.0,0.04937294125556946
32.0,0.04875772446393967
36.0,0.04760594293475151
40.0,0.04653167724609375
44.0,0.045439768582582474
48.0,0.04435615986585617
52.0,0.04329976066946983
56.0,0.042227767407894135
60.0,0.04123816639184952
64.0,0.04027017578482628
72.0,0.03858720511198044
80.0,0.03716247156262398
88.0,0.03583115339279175
96.0,0.034514907747507095
104.0,0.03307310491800308
112.0,0.031457532197237015
120.0,0.029822034761309624
128.0,0.028247425332665443
144.0,0.02581135369837284
160.0,0.02389419637620449
176.0,0.022170914337038994
192.0,0.020609650760889053
208.0,0.019497480243444443
224.0,0.018076827749609947
240.0,0.016684703528881073
256.0,0.015605343505740166
288.0,0.014323906041681767
320.0,0.013980475254356861
352.0,0.01359378919005394
384.0,0.01219993270933628
416.0,0.010125123895704746
448.0,0.007829999551177025
480.0,0.005274909548461437
512.0,0.002740249503403902
576.0,-0.0017128740437328815
640.0,-0.006926476489752531
704.0,-0.007313509006053209
768.0,-0.006930003874003887
832.0,-0.005974781233817339
896.0,-0.0037377383559942245
960.0,-0.0047879405319690704
1024.0,-0.003987262025475502
1152.0,0.003079334506765008
1280.0,0.0057072713971138
1408.0,0.0063811964355409145
1536.0,0.005998789332807064
1664.0,0.008036235347390175
1792.0,0.004582508001476526
1920.0,-0.0011982088908553123
2048.0,-0.0033210115507245064
2304.0,-0.005926100537180901
2560.0,-0.00783025287091732
2816.0,0.0034406071063131094
3072.0,0.008831685408949852
3328.0,0.010536350309848785
3584.0,0.008947920985519886
3840.0,0.003974508494138718
4096.0,-0.003519725287333131
4608.0,-0.0068359277211129665
5120.0,0.012020429596304893
5632.0,-0.004263630136847496
6144.0,-0.006176854483783245
6656.0,0.005907506216317415
7168.0,-0.005031667184084654
7680.0,-0.012846318073570728
8192.0,0.005060432944446802
9216.0,-0.005043135955929756
10240.0,-0.0026673839893192053
11264.0,-0.0016685359878465533
12288.0,-0.015921464189887047
13312.0,-0.020116781815886497
14336.0,0.011875621043145657
end
