version,3.0
numOfCh,1
type,point
parent_name,2-cuts
ch_type,1_1
kcount,1
numberNandB,1
brightnessNandB,1
carpet pos,0
pc,0
Time (ms),CH1 Auto-Correlation
1.0,0.09936611354351044
2.0,0.09896071255207062
3.0,0.09855308383703232
4.0,0.09815502911806107
5.0,0.09776400029659271
6.0,0.09738387912511826
7.0,0.09700942784547806
8.0,0.09663735330104828
9.0,0.09626491367816925
10.0,0.09590808302164078
11.0,0.0955474004149437
12.0,0.0951833426952362
13.0,0.0948236882686615
14.0,0.09447698295116425
15.0,0.09412603825330734
16.0,0.09378799796104431
18.0,0.09313320368528366
20.0,0.09247913211584091
22.0,0.09182484447956085
24.0,0.09119907021522522
26.0,0.09059445559978485
28.0,0.0899813249707222
30.0,0.08935856074094772
32.0,0.08874824643135071
36.0,0.08755113184452057
40.0,0.08640056848526001
44.0,0.08537095040082932
48.0,0.0843934640288353
52.0,0.0834340900182724
56.0,0.0824284553527832
60.0,0.08145036548376083
64.0,0.08050063252449036
72.0,0.0788191631436348
80.0,0.07727190107107162
88.0,0.07573337852954865
96.0,0.07431481033563614
104.0,0.0730147734284401
112.0,0.07182450592517853
120.0,0.07063670456409454
128.0,0.0694899708032608
144.0,0.06760544329881668
160.0,0.0662103146314621
176.0,0.0648866817355156
192.0,0.0638379454612732
208.0,0.06301818788051605
224.0,0.06226711720228195
240.0,0.06141034513711929
256.0,0.06085367873311043
288.0,0.05995063856244087
320.0,0.059447042644023895
352.0,0.0594983734190464
384.0,0.05891392007470131
416.0,0.0576738640666008
448.0,0.05730224400758743
480.0,0.05762339010834694
512.0,0.05809476226568222
576.0,0.05819280818104744
640.0,0.05445671081542969
704.0,0.050286293029785156
768.0,0.04779958724975586
832.0,0.04636651650071144
896.0,0.04775664582848549
960.0,0.0485152006149292
1024.0,0.04784529656171799
1152.0,0.044763896614313126
1280.0,0.038086459040641785
1408.0,0.03499293327331543
1536.0,0.035661619156599045
1664.0,0.03708244487643242
1792.0,0.03566606715321541
1920.0,0.03293537348508835
2048.0,0.02950851432979107
2304.0,0.03198393061757088
2560.0,0.02388341911137104
2816.0,0.02318538911640644
3072.0,0.021487031131982803
3328.0,0.02111518569290638
3584.0,0.013034738600254059
3840.0,0.016939831897616386
4096.0,0.013777111656963825
4608.0,0.010935690253973007
5120.0,0.008197029121220112
5632.0,0.013479606248438358
6144.0,-0.0016339763533324003
6656.0,-0.018156075850129128
7168.0,-0.028208795934915543
7680.0,-0.044194888323545456
8192.0,-0.05699940770864487
9216.0,-0.06507542729377747
10240.0,-0.04935011640191078
11264.0,-0.04468241706490517
12288.0,-0.03559068217873573
13312.0,-0.05461248382925987
14336.0,-0.06954829394817352
end
