version,3.0
numOfCh,1
type,point
parent_name,2-cuts
ch_type,1_1
kcount,1
numberNandB,1
brightnessNandB,1
carpet pos,0
pc,0
Time (ms),CH1 Auto-Correlation
1.0,0.06629739701747894
2.0,0.06586628407239914
3.0,0.06543800234794617
4.0,0.06501761078834534
5.0,0.06460155546665192
6.0,0.06418050825595856
7.0,0.06376136094331741
8.0,0.06335537880659103
9.0,0.06294536590576172
10.0,0.06254708021879196
11.0,0.06214870139956474
12.0,0.0617498941719532
13.0,0.061357852071523666
14.0,0.06096015125513077
15.0,0.060579814016819
16.0,0.06020708009600639
18.0,0.05947953462600708
20.0,0.058780428022146225
22.0,0.05809437483549118
24.0,0.05742188170552254
26.0,0.056749776005744934
28.0,0.056069277226924896
30.0,0.05540614202618599
32.0,0.054767291992902756
36.0,0.053659360855817795
40.0,0.05267655476927757
44.0,0.051719315350055695
48.0,0.05076892301440239
52.0,0.049865223467350006
56.0,0.049008071422576904
60.0,0.04810629040002823
64.0,0.047229401767253876
72.0,0.04557396471500397
80.0,0.043882668018341064
88.0,0.04244815185666084
96.0,0.041204195469617844
104.0,0.040081266313791275
112.0,0.039246998727321625
120.0,0.03859100490808487
128.0,0.037997111678123474
144.0,0.03690236434340477
160.0,0.036028631031513214
176.0,0.035424694418907166
192.0,0.03487313911318779
208.0,0.03392549231648445
224.0,0.03242316097021103
240.0,0.031271666288375854
256.0,0.030084535479545593
288.0,0.027353160083293915
320.0,0.026132993400096893
352.0,0.025007357820868492
384.0,0.023365363478660583
416.0,0.021639635786414146
448.0,0.01980603113770485
480.0,0.01849868707358837
512.0,0.017414085566997528
576.0,0.0174654982984066
640.0,0.017756449058651924
704.0,0.01590956188738346
768.0,0.012280483730137348
832.0,0.010171055793762207
896.0,0.008962146937847137
960.0,0.006341222673654556
1024.0,0.0024953021202236414
1152.0,0.0004744929901789874
1280.0,-0.002394099486991763
1408.0,-0.0053993212059140205
1536.0,-0.006742164492607117
1664.0,-0.008871538564562798
1792.0,-0.006960065104067326
1920.0,-0.005455149337649345
2048.0,-0.005675717256963253
2304.0,0.0055686128325760365
2560.0,0.014073420315980911
2816.0,0.016500307247042656
3072.0,0.018586328253149986
3328.0,0.016773363575339317
3584.0,0.018860911950469017
3840.0,0.013251300901174545
4096.0,0.0038040245417505503
4608.0,-0.004085978493094444
5120.0,-0.016001639887690544
5632.0,-0.010733939707279205
6144.0,0.004979740362614393
6656.0,0.005489767529070377
7168.0,0.0010735637042671442
7680.0,-0.01576281525194645
8192.0,-0.024328533560037613
9216.0,-0.012807780876755714
10240.0,0.001246590749360621
11264.0,-0.02262272872030735
12288.0,-0.021990975365042686
13312.0,0.011460133828222752
14336.0,-0.013722687028348446
end
