version,3.0
numOfCh,1
type,point
parent_name,2-cuts
ch_type,1_1
kcount,1
numberNandB,1
brightnessNandB,1
carpet pos,0
pc,0
Time (ms),CH1 Auto-Correlation
1.0,0.06885203719139099
2.0,0.0683482363820076
3.0,0.06785667687654495
4.0,0.06736147403717041
5.0,0.0668877512216568
6.0,0.06641186028718948
7.0,0.06593725830316544
8.0,0.06547955423593521
9.0,0.06504089385271072
10.0,0.06460648030042648
11.0,0.06417263299226761
12.0,0.06374145299196243
13.0,0.06332099437713623
14.0,0.06289950758218765
15.0,0.062469661235809326
16.0,0.06203336641192436
18.0,0.06118408590555191
20.0,0.06036444008350372
22.0,0.05955340713262558
24.0,0.058746714144945145
26.0,0.057945623993873596
28.0,0.057194784283638
30.0,0.056477297097444534
32.0,0.05575942620635033
36.0,0.0543413981795311
40.0,0.05290505290031433
44.0,0.05148618668317795
48.0,0.050166770815849304
52.0,0.048980291932821274
56.0,0.04791966825723648
60.0,0.04698667302727699
64.0,0.04604281857609749
72.0,0.044180769473314285
80.0,0.042411454021930695
88.0,0.040807388722896576
96.0,0.03941322863101959
104.0,0.038228441029787064
112.0,0.03716563060879707
120.0,0.03616417571902275
128.0,0.03532227873802185
144.0,0.03393157199025154
160.0,0.03260122984647751
176.0,0.03134208172559738
192.0,0.03025718405842781
208.0,0.02948405034840107
224.0,0.02885134518146515
240.0,0.02828933298587799
256.0,0.027233563363552094
288.0,0.025135768577456474
320.0,0.022917771711945534
352.0,0.021292738616466522
384.0,0.01989952102303505
416.0,0.0178796648979187
448.0,0.01532120630145073
480.0,0.013679390773177147
512.0,0.013516543433070183
576.0,0.014496581628918648
640.0,0.013164026662707329
704.0,0.012921514920890331
768.0,0.012523289769887924
832.0,0.012434092350304127
896.0,0.013778218999505043
960.0,0.014790911227464676
1024.0,0.011099816299974918
1152.0,0.004464732017368078
1280.0,0.0010534747270867229
1408.0,-0.0034033693373203278
1536.0,-0.003927427344024181
1664.0,-0.005106681026518345
1792.0,-0.0019464625511318445
1920.0,0.0001263246376765892
2048.0,-0.001996787032112479
2304.0,-0.003111460478976369
2560.0,-0.0010164272971451283
2816.0,0.002866965252906084
3072.0,0.0039385836571455
3328.0,-0.0004350038943812251
3584.0,-0.004175914451479912
3840.0,-0.004325172398239374
4096.0,-0.006614107172936201
4608.0,-0.007771975826472044
5120.0,-0.006746683735400438
5632.0,-0.0030112992972135544
6144.0,-0.007301750127226114
6656.0,0.00011849380098283291
7168.0,-0.0015808379976078868
7680.0,0.009836389683187008
8192.0,0.0036218869499862194
9216.0,0.002374169183894992
10240.0,0.010272420942783356
11264.0,-0.009803973138332367
12288.0,-0.0358000211417675
13312.0,-0.02577773667871952
14336.0,0.007093796040862799
end
