version,3.0
numOfCh,1
type,point
parent_name,2-cuts
ch_type,1_1
kcount,1
numberNandB,1
brightnessNandB,1
carpet pos,0
pc,0
Time (ms),CH1 Auto-Correlation
1.0,0.027143076062202454
2.0,0.026941724121570587
3.0,0.026740826666355133
4.0,0.026538683101534843
5.0,0.02633795514702797
6.0,0.026137659326195717
7.0,0.025935916230082512
8.0,0.02573927864432335
9.0,0.025545910000801086
10.0,0.02535705640912056
11.0,0.025174273177981377
12.0,0.024992085993289948
13.0,0.024817215278744698
14.0,0.02463953010737896
15.0,0.02445894479751587
16.0,0.024281419813632965
18.0,0.023941298946738243
20.0,0.023610983043909073
22.0,0.02328271046280861
24.0,0.022963063791394234
26.0,0.02264920249581337
28.0,0.022348908707499504
30.0,0.02206653170287609
32.0,0.021787475794553757
36.0,0.02126133441925049
40.0,0.02076658047735691
44.0,0.020310156047344208
48.0,0.019861934706568718
52.0,0.019421353936195374
56.0,0.018972568213939667
60.0,0.01854184828698635
64.0,0.018143927678465843
72.0,0.01734880916774273
80.0,0.01653185859322548
88.0,0.015767071396112442
96.0,0.015021664090454578
104.0,0.014331655576825142
112.0,0.013745639473199844
120.0,0.01323117408901453
128.0,0.012761201709508896
144.0,0.0118861123919487
160.0,0.010970218107104301
176.0,0.01000119373202324
192.0,0.00915037002414465
208.0,0.008321708999574184
224.0,0.0075384811498224735
240.0,0.006930619012564421
256.0,0.006395355798304081
288.0,0.005503668449819088
320.0,0.0042794267646968365
352.0,0.0028253053314983845
384.0,0.0015215645544230938
416.0,0.0004191143671050668
448.0,-0.00011363898374838755
480.0,-0.00026820533093996346
512.0,-0.0001063038143911399
576.0,0.00035611167550086975
640.0,-0.00017225484771188349
704.0,-7.248838755913312e-06
768.0,0.0004007104435004294
832.0,0.0015200997004285455
896.0,0.002447225386276841
960.0,0.002961996477097273
1024.0,0.0032507977448403835
1152.0,0.003944336902350187
1280.0,0.001972195692360401
1408.0,0.0007105321856215596
1536.0,-0.0013220827095210552
1664.0,-0.0038301071617752314
1792.0,-0.003595147980377078
1920.0,-0.0030153831467032433
2048.0,-0.002052612602710724
2304.0,-0.0027578873559832573
2560.0,-0.0034267413429915905
2816.0,-0.003556955372914672
3072.0,-0.00227608485147357
3328.0,-0.0015378028620034456
3584.0,-0.006546327844262123
3840.0,-0.008661451749503613
4096.0,-0.0023814989253878593
4608.0,-0.002629136433824897
5120.0,0.0019064971711486578
5632.0,0.004398169927299023
6144.0,0.0024528121575713158
6656.0,0.0026085583958774805
7168.0,0.002404311904683709
7680.0,2.056295852526091e-05
8192.0,0.0023686811327934265
9216.0,-0.0036166980862617493
10240.0,-0.004086061846464872
11264.0,0.002381054451689124
12288.0,0.004556046798825264
13312.0,-0.0012556563597172499
14336.0,-0.0020847709383815527
end
