version,3.0
numOfCh,1
type,point
parent_name,2-cuts
ch_type,1_1
kcount,1
numberNandB,1
brightnessNandB,1
carpet pos,0
pc,0
Time (ms),CH1 Auto-Correlation
1.0,0.07915341109037399
2.0,0.07875090837478638
3.0,0.07834649831056595
4.0,0.07794694602489471
5.0,0.07754035294055939
6.0,0.07712490856647491
7.0,0.07671643793582916
8.0,0.07631176710128784
9.0,0.07590620219707489
10.0,0.07550157606601715
11.0,0.07510614395141602
12.0,0.07472027838230133
13.0,0.07433713227510452
14.0,0.07397562265396118
15.0,0.07361363619565964
16.0,0.07325990498065948
18.0,0.07257412374019623
20.0,0.07192033529281616
22.0,0.07131171971559525
24.0,0.07072720676660538
26.0,0.07016932219266891
28.0,0.06964969635009766
30.0,0.06912687420845032
32.0,0.0686320960521698
36.0,0.067638099193573
40.0,0.06661678850650787
44.0,0.06558207422494888
48.0,0.06449662148952484
52.0,0.06338879466056824
56.0,0.06228998675942421
60.0,0.06128633767366409
64.0,0.06035808473825455
72.0,0.05862146615982056
80.0,0.05700963735580444
88.0,0.05541231110692024
96.0,0.053867191076278687
104.0,0.05230671912431717
112.0,0.05087260901927948
120.0,0.04966108128428459
128.0,0.0487431101500988
144.0,0.04681442305445671
160.0,0.04434499517083168
176.0,0.04164891317486763
192.0,0.0395401306450367
208.0,0.037667546421289444
224.0,0.03592212498188019
240.0,0.034221258014440536
256.0,0.032755039632320404
288.0,0.0308648981153965
320.0,0.029597919434309006
352.0,0.02835259959101677
384.0,0.026737496256828308
416.0,0.025131026282906532
448.0,0.023551462218165398
480.0,0.02175392396748066
512.0,0.019935332238674164
576.0,0.016092652454972267
640.0,0.012316289357841015
704.0,0.011552917771041393
768.0,0.010979915037751198
832.0,0.009132051840424538
896.0,0.008444263599812984
960.0,0.00887315534055233
1024.0,0.0070199822075665
1152.0,0.002110921312123537
1280.0,6.573028076672927e-05
1408.0,-0.0005070099723525345
1536.0,-0.006297671236097813
1664.0,-0.013166787102818489
1792.0,-0.015520473010838032
1920.0,-0.014350244775414467
2048.0,-0.011991843581199646
2304.0,-0.0135550107806921
2560.0,-0.012917391955852509
2816.0,-0.008256018161773682
3072.0,-0.012212966568768024
3328.0,-0.008682508021593094
3584.0,-0.007724353577941656
3840.0,-0.005038276314735413
4096.0,-0.011279328726232052
4608.0,-0.005438897758722305
5120.0,0.011973406188189983
5632.0,0.0030225967057049274
6144.0,0.003770140465348959
6656.0,0.002732309512794018
7168.0,0.0003961685870308429
7680.0,0.000317149271722883
8192.0,-0.00673248153179884
9216.0,-0.010391220450401306
10240.0,0.011393746361136436
11264.0,-0.005013619549572468
12288.0,-0.025607913732528687
13312.0,0.016090404242277145
14336.0,0.008737899363040924
end
