version,3.0
numOfCh,1
type,point
parent_name,2-cuts
ch_type,1_1
kcount,1
numberNandB,1
brightnessNandB,1
carpet pos,0
pc,0
Time (ms),CH1 Auto-Correlation
1.0,0.06274097412824631
2.0,0.06230491027235985
3.0,0.06187530979514122
4.0,0.0614568293094635
5.0,0.06104927510023117
6.0,0.06064653396606445
7.0,0.06025104969739914
8.0,0.05986186861991882
9.0,0.05947346240282059
10.0,0.059096165001392365
11.0,0.05871507152915001
12.0,0.05834309756755829
13.0,0.05798404663801193
14.0,0.05763116478919983
15.0,0.05729250982403755
16.0,0.05694553628563881
18.0,0.05624682828783989
20.0,0.055530060082674026
22.0,0.05482832342386246
24.0,0.054143764078617096
26.0,0.053472619503736496
28.0,0.05279688909649849
30.0,0.052126895636320114
32.0,0.05146082490682602
36.0,0.05018210783600807
40.0,0.04896421357989311
44.0,0.04786115139722824
48.0,0.046817004680633545
52.0,0.04580533504486084
56.0,0.04486333951354027
60.0,0.044021837413311005
64.0,0.04324435815215111
72.0,0.041632819920778275
80.0,0.04002765193581581
88.0,0.03861673176288605
96.0,0.037255771458148956
104.0,0.03603222221136093
112.0,0.03501453995704651
120.0,0.03398929163813591
128.0,0.03294285759329796
144.0,0.030793026089668274
160.0,0.028869422152638435
176.0,0.027000561356544495
192.0,0.025644632056355476
208.0,0.024461278691887856
224.0,0.02358471229672432
240.0,0.022586707025766373
256.0,0.021606173366308212
288.0,0.02020939253270626
320.0,0.01892329379916191
352.0,0.017194073647260666
384.0,0.0155026251450181
416.0,0.013884246349334717
448.0,0.011685119941830635
480.0,0.00979685690253973
512.0,0.00842415913939476
576.0,0.005333974491804838
640.0,0.001273058238439262
704.0,-0.004606923088431358
768.0,-0.008684925734996796
832.0,-0.01134725846350193
896.0,-0.011556793935596943
960.0,-0.009725749492645264
1024.0,-0.008092323318123817
1152.0,-0.0113692507147789
1280.0,-0.010289415717124939
1408.0,-0.007059037685394287
1536.0,0.0007342988974414766
1664.0,0.004256793763488531
1792.0,0.0029603256843984127
1920.0,0.0023325441870838404
2048.0,0.007495602127164602
2304.0,0.0030110736843198538
2560.0,-0.0009736448409967124
2816.0,-0.005283798556774855
3072.0,-0.0030895681120455265
3328.0,-0.0021890071220695972
3584.0,-0.002335889730602503
3840.0,-0.003662344766780734
4096.0,-0.005878299940377474
4608.0,-0.007801260333508253
5120.0,-0.00388256530277431
5632.0,-0.004084100015461445
6144.0,-0.004087254870682955
6656.0,-0.0019795869011431932
7168.0,-0.0019545401446521282
7680.0,-0.010236972011625767
8192.0,0.004722832702100277
9216.0,-0.0009249483700841665
10240.0,0.008530690334737301
11264.0,0.009196662344038486
12288.0,0.0014779615448787808
13312.0,-0.016370045021176338
14336.0,0.0005514281801879406
end
