version,3.0
numOfCh,1
type,point
parent_name,2-cuts
ch_type,1_1
kcount,1
numberNandB,1
brightnessNandB,1
carpet pos,0
pc,0
Time (ms),CH1 Auto-Correlation
1.0,0.10031726956367493
2.0,0.09971412271261215
3.0,0.09913740307092667
4.0,0.09857445955276489
5.0,0.09801866859197617
6.0,0.09747743606567383
7.0,0.09693191200494766
8.0,0.09640452265739441
9.0,0.09587439894676208
10.0,0.09533577412366867
11.0,0.09482651203870773
12.0,0.09433151036500931
13.0,0.09385771304368973
14.0,0.09338253736495972
15.0,0.09292019158601761
16.0,0.09246659278869629
18.0,0.09155473858118057
20.0,0.09065330773591995
22.0,0.08978702872991562
24.0,0.0889299213886261
26.0,0.08811471611261368
28.0,0.0873214602470398
30.0,0.08654184639453888
32.0,0.0857609435915947
36.0,0.08411450684070587
40.0,0.08254120498895645
44.0,0.08099742978811264
48.0,0.07938128709793091
52.0,0.07765104621648788
56.0,0.07594015449285507
60.0,0.07430191338062286
64.0,0.0727732703089714
72.0,0.07003933191299438
80.0,0.06767631322145462
88.0,0.0656140074133873
96.0,0.063788503408432
104.0,0.0619814433157444
112.0,0.06023520231246948
120.0,0.05855677276849747
128.0,0.05690179392695427
144.0,0.05375363305211067
160.0,0.05144791677594185
176.0,0.04991002008318901
192.0,0.04877690598368645
208.0,0.04798261448740959
224.0,0.04675544798374176
240.0,0.04575362056493759
256.0,0.044007036834955215
288.0,0.039964765310287476
320.0,0.03660554438829422
352.0,0.033909399062395096
384.0,0.03165002167224884
416.0,0.02937440015375614
448.0,0.027702484279870987
480.0,0.02509094774723053
512.0,0.02193305268883705
576.0,0.01844138279557228
640.0,0.01580694317817688
704.0,0.012851826846599579
768.0,0.008978238329291344
832.0,0.007011413108557463
896.0,0.004292901139706373
960.0,0.0024017812684178352
1024.0,0.00031866595963947475
1152.0,-0.004169439896941185
1280.0,-0.000923380721360445
1408.0,-0.0027650136034935713
1536.0,-0.0010642822599038482
1664.0,-0.0060541159473359585
1792.0,-0.008608165197074413
1920.0,-0.008521175011992455
2048.0,-0.007945232093334198
2304.0,-0.010029424913227558
2560.0,-0.0037658761721104383
2816.0,-0.004633038770407438
3072.0,-0.00310325319878757
3328.0,-0.0004061651125084609
3584.0,0.003751421347260475
3840.0,0.010849024169147015
4096.0,0.019957086071372032
4608.0,0.01741706021130085
5120.0,0.01179707981646061
5632.0,-0.006672813091427088
6144.0,-0.028415799140930176
6656.0,-0.021605415269732475
7168.0,-0.009104238823056221
7680.0,-0.019312487915158272
8192.0,-0.02213164046406746
9216.0,0.011424192227423191
10240.0,-0.001978586195036769
11264.0,-0.029216814786195755
12288.0,0.006458067335188389
13312.0,-0.015195978805422783
14336.0,0.03433253616094589
end
