version,3.0
numOfCh,1
type,point
parent_name,2-cuts
ch_type,1_1
kcount,1
numberNandB,1
brightnessNandB,1
carpet pos,0
pc,0
Time (ms),CH1 Auto-Correlation
1.0,0.026372665539383888
2.0,0.026182811707258224
3.0,0.025992201641201973
4.0,0.02580084837973118
5.0,0.025613591074943542
6.0,0.025433477014303207
7.0,0.02525777742266655
8.0,0.025083787739276886
9.0,0.024913012981414795
10.0,0.024744225665926933
11.0,0.024576013907790184
12.0,0.024408424273133278
13.0,0.024246465414762497
14.0,0.024087511003017426
15.0,0.023927049711346626
16.0,0.023768965154886246
18.0,0.023466065526008606
20.0,0.023161817342042923
22.0,0.022870026528835297
24.0,0.022579271346330643
26.0,0.022293124347925186
28.0,0.022005373612046242
30.0,0.021718254312872887
32.0,0.021438954398036003
36.0,0.020894836634397507
40.0,0.020353451371192932
44.0,0.019834386184811592
48.0,0.019359983503818512
52.0,0.018912892788648605
56.0,0.018509091809391975
60.0,0.01811928302049637
64.0,0.01774132251739502
72.0,0.01696927286684513
80.0,0.016173390671610832
88.0,0.015428634360432625
96.0,0.014826050028204918
104.0,0.014244237914681435
112.0,0.013758937828242779
120.0,0.013323266059160233
128.0,0.012949199415743351
144.0,0.012257293798029423
160.0,0.011578316800296307
176.0,0.010886230506002903
192.0,0.01002644281834364
208.0,0.00908505916595459
224.0,0.008042293600738049
240.0,0.007135765627026558
256.0,0.006630213465541601
288.0,0.005990803241729736
320.0,0.005314800888299942
352.0,0.005022816825658083
384.0,0.005206025671213865
416.0,0.005416535306721926
448.0,0.005109111312776804
480.0,0.005027729086577892
512.0,0.005393023137003183
576.0,0.0065674083307385445
640.0,0.006527468096464872
704.0,0.005972073879092932
768.0,0.00522695854306221
832.0,0.004184577614068985
896.0,0.002838468411937356
960.0,0.0015280316583812237
1024.0,0.001103051588870585
1152.0,0.0009276334312744439
1280.0,0.0026540576945990324
1408.0,0.0026495957281440496
1536.0,0.0012979250168427825
1664.0,0.0006829227786511183
1792.0,0.0022242858540266752
1920.0,0.003113118000328541
2048.0,0.001287981984205544
2304.0,-0.0012928080977872014
2560.0,0.001140788896009326
2816.0,0.001844217418693006
3072.0,-3.9804086554795504e-05
3328.0,-0.0002856304927263409
3584.0,-0.0041268207132816315
3840.0,-0.004403071478009224
4096.0,-0.005897212773561478
4608.0,-0.0029033073224127293
5120.0,-8.564122254028916e-05
5632.0,9.648629202274606e-05
6144.0,6.930625386303291e-05
6656.0,0.0006182609940879047
7168.0,0.0010432099224999547
7680.0,0.004912515636533499
8192.0,0.006972485221922398
9216.0,-8.145524043357e-05
10240.0,-0.005710070952773094
11264.0,-0.004280313849449158
12288.0,-0.010713919065892696
13312.0,-0.009521419182419777
14336.0,-0.0006250212900340557
end
