version,3.0
numOfCh,1
type,point
parent_name,2-cuts
ch_type,1_1
kcount,1
numberNandB,1
brightnessNandB,1
carpet pos,0
pc,0
Time (ms),CH1 Auto-Correlation
1.0,0.092317134141922
2.0,0.0919049084186554
3.0,0.0915093719959259
4.0,0.09111958742141724
5.0,0.09075003117322922
6.0,0.09038723260164261
7.0,0.09002799540758133
8.0,0.08965638279914856
9.0,0.0892779678106308
10.0,0.08889896422624588
11.0,0.08851949870586395
12.0,0.08815665543079376
13.0,0.0878024697303772
14.0,0.08746752887964249
15.0,0.08714096248149872
16.0,0.08682439476251602
18.0,0.0861787497997284
20.0,0.08553007245063782
22.0,0.08488709479570389
24.0,0.08425714075565338
26.0,0.08363445848226547
28.0,0.08300960063934326
30.0,0.08241067081689835
32.0,0.08184466511011124
36.0,0.08074882626533508
40.0,0.07969825714826584
44.0,0.07861266285181046
48.0,0.07758034020662308
52.0,0.07654621452093124
56.0,0.07558265328407288
60.0,0.07464276254177094
64.0,0.0738038495182991
72.0,0.0723762959241867
80.0,0.07097698003053665
88.0,0.0695018321275711
96.0,0.06807174533605576
104.0,0.06677520275115967
112.0,0.06564437597990036
120.0,0.06478109955787659
128.0,0.06400007009506226
144.0,0.06211100518703461
160.0,0.06024836376309395
176.0,0.058392468839883804
192.0,0.05648650601506233
208.0,0.05475538969039917
224.0,0.05307286977767944
240.0,0.051588524132966995
256.0,0.05011508986353874
288.0,0.04698556661605835
320.0,0.04407168924808502
352.0,0.041876088827848434
384.0,0.04067309573292732
416.0,0.0397663414478302
448.0,0.03835875913500786
480.0,0.03701719269156456
512.0,0.035748403519392014
576.0,0.036788422614336014
640.0,0.03744829073548317
704.0,0.035882461816072464
768.0,0.03371661156415939
832.0,0.03253377601504326
896.0,0.03076963685452938
960.0,0.029060902073979378
1024.0,0.027944844216108322
1152.0,0.02511262148618698
1280.0,0.025485150516033173
1408.0,0.024946562945842743
1536.0,0.023734157904982567
1664.0,0.023487232625484467
1792.0,0.020436588674783707
1920.0,0.020001638680696487
2048.0,0.021216031163930893
2304.0,0.021599629893898964
2560.0,0.02074819803237915
2816.0,0.020767942070961
3072.0,0.012458437122404575
3328.0,0.0017920829122886062
3584.0,-0.0024156635627150536
3840.0,-0.0015771666076034307
4096.0,0.0056693172082304955
4608.0,0.0052374303340911865
5120.0,-0.004986362997442484
5632.0,-0.01934410072863102
6144.0,-0.022953752428293228
6656.0,-0.030420104041695595
7168.0,-0.03235386312007904
7680.0,-0.03914237022399902
8192.0,-0.04073365777730942
9216.0,-0.023032953962683678
10240.0,-0.01517139095813036
11264.0,-0.01865333691239357
12288.0,-0.021688217297196388
13312.0,-0.01263444498181343
14336.0,-0.0008703297353349626
end
