version,3.0
numOfCh,1
type,point
parent_name,2-cuts
ch_type,1_1
kcount,1
numberNandB,1
brightnessNandB,1
carpet pos,0
pc,0
Time (ms),CH1 Auto-Correlation
1.0,0.12245552241802216
2.0,0.12194152176380157
3.0,0.12142813205718994
4.0,0.12092486768960953
5.0,0.12041106820106506
6.0,0.1199013888835907
7.0,0.11940202862024307
8.0,0.11891074478626251
9.0,0.1184309870004654
10.0,0.11797904968261719
11.0,0.11751248687505722
12.0,0.11704710125923157
13.0,0.11658541113138199
14.0,0.11611873656511307
15.0,0.1156570166349411
16.0,0.11519970744848251
18.0,0.11428166180849075
20.0,0.11335833370685577
22.0,0.11245593428611755
24.0,0.11158578842878342
26.0,0.11072909832000732
28.0,0.10989444702863693
30.0,0.10904978215694427
32.0,0.10820860415697098
36.0,0.10649237036705017
40.0,0.10485737025737762
44.0,0.10331736505031586
48.0,0.10183980315923691
52.0,0.10038335621356964
56.0,0.09889905899763107
60.0,0.09752192348241806
64.0,0.09625008702278137
72.0,0.09387659281492233
80.0,0.09181001782417297
88.0,0.08994198590517044
96.0,0.08827012777328491
104.0,0.08678372949361801
112.0,0.08552802354097366
120.0,0.08414357155561447
128.0,0.08275554329156876
144.0,0.08037419617176056
160.0,0.07818880677223206
176.0,0.07632170617580414
192.0,0.0743647888302803
208.0,0.07183785736560822
224.0,0.06883177161216736
240.0,0.06590903550386429
256.0,0.0636831670999527
288.0,0.06042094528675079
320.0,0.05741037800908089
352.0,0.0555388443171978
384.0,0.05419737473130226
416.0,0.05265917629003525
448.0,0.05095167085528374
480.0,0.049607615917921066
512.0,0.04714271053671837
576.0,0.03973317891359329
640.0,0.0347231924533844
704.0,0.03133435919880867
768.0,0.027901215478777885
832.0,0.026996005326509476
896.0,0.02816261537373066
960.0,0.027705786749720573
1024.0,0.023620057851076126
1152.0,0.015812315046787262
1280.0,0.007936839014291763
1408.0,0.007033111527562141
1536.0,0.009235798381268978
1664.0,0.006260797381401062
1792.0,0.0021884338930249214
1920.0,0.0053386748768389225
2048.0,0.007597946096211672
2304.0,0.003548027016222477
2560.0,0.011512581259012222
2816.0,0.002541629131883383
3072.0,0.0002192532701883465
3328.0,-0.015218214131891727
3584.0,-0.012296131812036037
3840.0,-0.016393188387155533
4096.0,-0.015690317377448082
4608.0,-0.025660427287220955
5120.0,-0.0373225100338459
5632.0,-0.04037497565150261
6144.0,-0.042902763932943344
6656.0,-0.020814379677176476
7168.0,-0.040652621537446976
7680.0,-0.013721316121518612
8192.0,0.0030734657775610685
9216.0,0.02312161959707737
10240.0,0.006857508793473244
11264.0,0.003070307895541191
12288.0,0.029768619686365128
13312.0,-0.010020182467997074
14336.0,-0.008954521268606186
end
