version,3.0
numOfCh,1
type,point
parent_name,2-cuts
ch_type,1_1
kcount,1
numberNandB,1
brightnessNandB,1
carpet pos,0
pc,0
Time (ms),CH1 Auto-Correlation
1.0,0.029570171609520912
2.0,0.029354153200984
3.0,0.02913827635347843
4.0,0.028918687254190445
5.0,0.028701024129986763
6.0,0.02848988026380539
7.0,0.028284959495067596
8.0,0.02808048576116562
9.0,0.027875086292624474
10.0,0.02766965702176094
11.0,0.02746567130088806
12.0,0.0272661205381155
13.0,0.02706882357597351
14.0,0.026875272393226624
15.0,0.026680923998355865
16.0,0.026482732966542244
18.0,0.02610776200890541
20.0,0.025742897763848305
22.0,0.025399066507816315
24.0,0.025072528049349785
26.0,0.024759391322731972
28.0,0.02445835992693901
30.0,0.02415306121110916
32.0,0.02384272776544094
36.0,0.023221125826239586
40.0,0.022602025419473648
44.0,0.022001920267939568
48.0,0.02144029177725315
52.0,0.020921552553772926
56.0,0.020406130701303482
60.0,0.019908323884010315
64.0,0.019438065588474274
72.0,0.018578361719846725
80.0,0.017762301489710808
88.0,0.017047395929694176
96.0,0.016455059871077538
104.0,0.015941228717565536
112.0,0.015475834719836712
120.0,0.015038455836474895
128.0,0.014661358669400215
144.0,0.014200239442288876
160.0,0.014005050994455814
176.0,0.013758288696408272
192.0,0.013613127171993256
208.0,0.013473468832671642
224.0,0.013248279690742493
240.0,0.013085385784506798
256.0,0.012890293262898922
288.0,0.012429220601916313
320.0,0.012259101495146751
352.0,0.012253864668309689
384.0,0.012841190211474895
416.0,0.013415568508207798
448.0,0.013233884237706661
480.0,0.012581280432641506
512.0,0.011516334488987923
576.0,0.0089036263525486
640.0,0.0070614865981042385
704.0,0.005983235314488411
768.0,0.005465916357934475
832.0,0.005421468988060951
896.0,0.005239709746092558
960.0,0.004818071611225605
1024.0,0.004349784925580025
1152.0,0.0031158775091171265
1280.0,0.0012083795154467225
1408.0,0.0012498176656663418
1536.0,0.00023007470008451492
1664.0,-0.0009856558172032237
1792.0,-0.0028979391790926456
1920.0,-0.0014936249935999513
2048.0,-0.0032196242827922106
2304.0,-0.004883944522589445
2560.0,-0.00713129248470068
2816.0,-0.009923908859491348
3072.0,-0.009175590239465237
3328.0,-0.007703162729740143
3584.0,-0.0062116035260260105
3840.0,-0.00501142768189311
4096.0,-0.0022996440529823303
4608.0,0.003529810579493642
5120.0,0.005393638275563717
5632.0,0.005113291088491678
6144.0,0.0021744389086961746
6656.0,0.0023706944193691015
7168.0,-0.0039943126030266285
7680.0,-0.01124547515064478
8192.0,-0.010926750488579273
9216.0,-0.006035314407199621
10240.0,0.0031546836253255606
11264.0,0.008754061535000801
12288.0,0.004356118850409985
13312.0,0.0009140123729594052
14336.0,-0.0033386372961103916
end
