version,3.0
numOfCh,1
type,point
parent_name,2-cuts
ch_type,1_1
kcount,1
numberNandB,1
brightnessNandB,1
carpet pos,0
pc,0
Time (ms),CH1 Auto-Correlation
1.0,0.03721384331583977
2.0,0.03700830414891243
3.0,0.03680780902504921
4.0,0.036608874797821045
5.0,0.036413829773664474
6.0,0.03622005507349968
7.0,0.03602581098675728
8.0,0.035829320549964905
9.0,0.03563457727432251
10.0,0.03544187545776367
11.0,0.03524971008300781
12.0,0.03505854308605194
13.0,0.03487326204776764
14.0,0.034687917679548264
15.0,0.03450615331530571
16.0,0.034321386367082596
18.0,0.033951569348573685
20.0,0.03360003978013992
22.0,0.033259183168411255
24.0,0.03292863443493843
26.0,0.032605987042188644
28.0,0.03228252753615379
30.0,0.031969957053661346
32.0,0.031660180538892746
36.0,0.03105670027434826
40.0,0.03044099733233452
44.0,0.029816891998052597
48.0,0.029200667515397072
52.0,0.028599685057997704
56.0,0.028033504262566566
60.0,0.027502020820975304
64.0,0.02699851617217064
72.0,0.026078861206769943
80.0,0.025271866470575333
88.0,0.02456020936369896
96.0,0.023913603276014328
104.0,0.023288777098059654
112.0,0.02261274680495262
120.0,0.021895624697208405
128.0,0.021283835172653198
144.0,0.020293280482292175
160.0,0.019197460263967514
176.0,0.018200766295194626
192.0,0.01747477427124977
208.0,0.017062067985534668
224.0,0.016643011942505836
240.0,0.016290899366140366
256.0,0.015823237597942352
288.0,0.014608068391680717
320.0,0.013588004745543003
352.0,0.012650853022933006
384.0,0.011523332446813583
416.0,0.010334571823477745
448.0,0.009278188459575176
480.0,0.00859914068132639
512.0,0.007834440097212791
576.0,0.0054443469271063805
640.0,0.004270415287464857
704.0,0.0033543244935572147
768.0,0.002226211130619049
832.0,0.0003344986180309206
896.0,-0.0013105307007208467
960.0,-0.0029685012996196747
1024.0,-0.003640140639618039
1152.0,-0.007164015434682369
1280.0,-0.010282383300364017
1408.0,-0.01314446423202753
1536.0,-0.014136916026473045
1664.0,-0.010782716795802116
1792.0,-0.008675760589540005
1920.0,-0.0069216275587677956
2048.0,-0.006063111592084169
2304.0,-0.004216229543089867
2560.0,-0.001085587777197361
2816.0,0.001468183472752571
3072.0,0.00479311915114522
3328.0,0.006431302987039089
3584.0,0.007854600436985493
3840.0,0.0063563683070242405
4096.0,6.392907380359247e-05
4608.0,-0.006437582895159721
5120.0,-0.013068116270005703
5632.0,-0.0016928467666730285
6144.0,0.0038891658186912537
6656.0,0.010546700097620487
7168.0,0.004460281226783991
7680.0,0.0032690921798348427
8192.0,-0.005536046344786882
9216.0,-0.0016230788314715028
10240.0,0.0062118349596858025
11264.0,-0.0019082267535850406
12288.0,-0.004518906120210886
13312.0,-0.0034546873066574335
14336.0,0.0042184763588011265
end
