version,3.0
numOfCh,1
type,point
parent_name,2-cuts
ch_type,1_1
kcount,1
numberNandB,1
brightnessNandB,1
carpet pos,0
pc,0
Time (ms),CH1 Auto-Correlation
1.0,0.07500965148210526
2.0,0.07444198429584503
3.0,0.07388509809970856
4.0,0.07334058731794357
5.0,0.07279903441667557
6.0,0.07224569469690323
7.0,0.07170451432466507
8.0,0.07117413729429245
9.0,0.07065700739622116
10.0,0.0701504573225975
11.0,0.06964542716741562
12.0,0.06916456669569016
13.0,0.06868937611579895
14.0,0.06821934133768082
15.0,0.06775469332933426
16.0,0.06730347126722336
18.0,0.06640466302633286
20.0,0.06553196161985397
22.0,0.0646931454539299
24.0,0.06388986855745316
26.0,0.06314548850059509
28.0,0.06241631880402565
30.0,0.06172420084476471
32.0,0.06105440482497215
36.0,0.05973841995000839
40.0,0.05842764675617218
44.0,0.057139284908771515
48.0,0.0558834969997406
52.0,0.0546065978705883
56.0,0.053341094404459
60.0,0.05218544974923134
64.0,0.05114731565117836
72.0,0.04916784167289734
80.0,0.04711248353123665
88.0,0.045114755630493164
96.0,0.04322351515293121
104.0,0.041482117027044296
112.0,0.03994293138384819
120.0,0.03821064531803131
128.0,0.03646477684378624
144.0,0.034371182322502136
160.0,0.033294860273599625
176.0,0.032307326793670654
192.0,0.031156465411186218
208.0,0.029779819771647453
224.0,0.028638135641813278
240.0,0.028157096356153488
256.0,0.0277901291847229
288.0,0.025812754407525063
320.0,0.02316432259976864
352.0,0.021521294489502907
384.0,0.019887540489435196
416.0,0.018659040331840515
448.0,0.01857220195233822
480.0,0.018246086314320564
512.0,0.01715007796883583
576.0,0.014623341150581837
640.0,0.01301497220993042
704.0,0.011129959486424923
768.0,0.009762672707438469
832.0,0.009657935239374638
896.0,0.010464333929121494
960.0,0.00818437896668911
1024.0,0.006628797855228186
1152.0,0.006982502993196249
1280.0,0.008637215942144394
1408.0,0.010403997264802456
1536.0,0.007744808681309223
1664.0,0.003294088877737522
1792.0,0.0008118028636090457
1920.0,-0.0016944610979408026
2048.0,-0.005970937665551901
2304.0,-0.00849132239818573
2560.0,0.000546600203961134
2816.0,0.006075573153793812
3072.0,0.011037500575184822
3328.0,0.007199294865131378
3584.0,0.0027674955781549215
3840.0,0.005094087217003107
4096.0,0.00306052528321743
4608.0,0.0010151640744879842
5120.0,-0.01089740265160799
5632.0,-0.0033736976329237223
6144.0,0.003181561827659607
6656.0,0.0010035757441073656
7168.0,0.00953234825283289
7680.0,0.002637898549437523
8192.0,-0.012598661705851555
9216.0,-0.010917763225734234
10240.0,-0.007254042197018862
11264.0,-0.025781866163015366
12288.0,-0.02937905862927437
13312.0,-0.006681087892502546
14336.0,-0.010210101492702961
end
