version,3.0
numOfCh,1
type,point
parent_name,2-cuts
ch_type,1_1
kcount,1
numberNandB,1
brightnessNandB,1
carpet pos,0
pc,0
Time (ms),CH1 Auto-Correlation
1.0,0.027022387832403183
2.0,0.026827989146113396
3.0,0.026638852432370186
4.0,0.026447167620062828
5.0,0.026254603639245033
6.0,0.026063229888677597
7.0,0.025871172547340393
8.0,0.02568618766963482
9.0,0.025502964854240417
10.0,0.025318693369627
11.0,0.025140080600976944
12.0,0.024963166564702988
13.0,0.024786176159977913
14.0,0.024610256776213646
15.0,0.024435661733150482
16.0,0.024258801713585854
18.0,0.023906966671347618
20.0,0.023554638028144836
22.0,0.023210309445858
24.0,0.02287682518362999
26.0,0.022545328363776207
28.0,0.022221751511096954
30.0,0.021909791976213455
32.0,0.02159416861832142
36.0,0.020978249609470367
40.0,0.0203914362937212
44.0,0.019864952191710472
48.0,0.01935167983174324
52.0,0.018853630870580673
56.0,0.018371107056736946
60.0,0.01792263053357601
64.0,0.01749587617814541
72.0,0.016705723479390144
80.0,0.015951745212078094
88.0,0.01522216945886612
96.0,0.014556489884853363
104.0,0.014032859355211258
112.0,0.013520601205527782
120.0,0.01303010806441307
128.0,0.012640664353966713
144.0,0.011788471601903439
160.0,0.010698080994188786
176.0,0.009552552364766598
192.0,0.008495141752064228
208.0,0.007698172703385353
224.0,0.007192105986177921
240.0,0.006893119774758816
256.0,0.0068423873744904995
288.0,0.006930314935743809
320.0,0.0071325418539345264
352.0,0.007365441415458918
384.0,0.007600719574838877
416.0,0.007669608574360609
448.0,0.007692723069339991
480.0,0.007962681353092194
512.0,0.008066609501838684
576.0,0.007925862446427345
640.0,0.006126839201897383
704.0,0.006123961880803108
768.0,0.00656169094145298
832.0,0.005337665323168039
896.0,0.004631862975656986
960.0,0.004077156074345112
1024.0,0.005156963597983122
1152.0,0.005031155422329903
1280.0,0.002651591319590807
1408.0,0.001893491018563509
1536.0,0.0015421363059431314
1664.0,0.0005901411059312522
1792.0,-0.000439475872553885
1920.0,-0.002896590158343315
2048.0,-0.004737398121505976
2304.0,-0.0041737970896065235
2560.0,-0.005295035429298878
2816.0,-0.005977186840027571
3072.0,-0.00886644795536995
3328.0,-0.00843961164355278
3584.0,-0.009326543658971786
3840.0,-0.008736366406083107
4096.0,-0.008300485089421272
4608.0,-0.005238066427409649
5120.0,-9.314759518019855e-05
5632.0,0.00224697170779109
6144.0,0.004406617488712072
6656.0,0.007058263290673494
7168.0,0.007252794224768877
7680.0,0.00611640652641654
8192.0,0.003159311367198825
9216.0,8.402139792451635e-05
10240.0,-0.0037627078127115965
11264.0,-0.006722384598106146
12288.0,-0.002861138666048646
13312.0,0.003504346124827862
14336.0,0.0032162058632820845
end
