version,3.0
numOfCh,1
type,point
parent_name,2-cuts
ch_type,1_1
kcount,1
numberNandB,1
brightnessNandB,1
carpet pos,0
pc,0
Time (ms),CH1 Auto-Correlation
1.0,0.020733045414090157
2.0,0.020525246858596802
3.0,0.02032320946455002
4.0,0.02012047916650772
5.0,0.01991661824285984
6.0,0.01971421018242836
7.0,0.019514314830303192
8.0,0.019319752231240273
9.0,0.019129678606987
10.0,0.018939701840281487
11.0,0.01875394396483898
12.0,0.01857256516814232
13.0,0.018397729843854904
14.0,0.018229052424430847
15.0,0.018060682341456413
16.0,0.01789119653403759
18.0,0.01756434328854084
20.0,0.017248395830392838
22.0,0.016931790858507156
24.0,0.016624271869659424
26.0,0.016312332823872566
28.0,0.01600741222500801
30.0,0.015728410333395004
32.0,0.01544755045324564
36.0,0.014910170808434486
40.0,0.014417125843465328
44.0,0.013959957286715508
48.0,0.01351088471710682
52.0,0.013060455210506916
56.0,0.012596286833286285
60.0,0.012125457637012005
64.0,0.011696286499500275
72.0,0.010856335051357746
80.0,0.010137689299881458
88.0,0.009559044614434242
96.0,0.00899310503154993
104.0,0.008389413356781006
112.0,0.00779960211366415
120.0,0.00732361851260066
128.0,0.0069746277295053005
144.0,0.006379759404808283
160.0,0.0058049531653523445
176.0,0.005210195668041706
192.0,0.00472054211422801
208.0,0.00437879515811801
224.0,0.0041344789788126945
240.0,0.004012740682810545
256.0,0.0037871708627790213
288.0,0.003099038964137435
320.0,0.002372428309172392
352.0,0.00211005425080657
384.0,0.0023377828765660524
416.0,0.002734265523031354
448.0,0.0028488768730312586
480.0,0.002581558655947447
512.0,0.002442838391289115
576.0,0.003040305571630597
640.0,0.0030041178688406944
704.0,0.0025481441989541054
768.0,0.0021168680395931005
832.0,0.0020416618790477514
896.0,0.0031410695519298315
960.0,0.0034266242291778326
1024.0,0.003371053608134389
1152.0,0.0028696381486952305
1280.0,0.0026357860770076513
1408.0,0.0022133500315248966
1536.0,0.001978561282157898
1664.0,0.0015794041100889444
1792.0,0.0011045086430385709
1920.0,0.00259333080612123
2048.0,0.0028709277976304293
2304.0,0.0017979257972911
2560.0,0.002342629712074995
2816.0,0.0034516716841608286
3072.0,0.00086531403940171
3328.0,0.001001973869279027
3584.0,-0.0007337813731282949
3840.0,-0.0011082207784056664
4096.0,-0.0005855557392351329
4608.0,-0.0029322828631848097
5120.0,-4.2314553866162896e-05
5632.0,-0.003424694063141942
6144.0,-0.0007955129840411246
6656.0,-0.002524222247302532
7168.0,-0.004777368623763323
7680.0,-0.0014789899578318
8192.0,-0.0016667913878336549
9216.0,-0.0013421087060123682
10240.0,-0.0018650270067155361
11264.0,0.0005250024260021746
12288.0,-0.0009417240507900715
13312.0,-0.001274780253879726
14336.0,-0.0029621138237416744
end
