version,3.0
numOfCh,1
type,point
parent_name,2-cuts
ch_type,1_1
kcount,1
numberNandB,1
brightnessNandB,1
carpet pos,0
pc,0
Time (ms),CH1 Auto-Correlation
1.0,0.08309145271778107
2.0,0.08238045871257782
3.0,0.08169464021921158
4.0,0.08103831112384796
5.0,0.08040127158164978
6.0,0.07978762686252594
7.0,0.07917514443397522
8.0,0.07857486605644226
9.0,0.07797769457101822
10.0,0.07737629860639572
11.0,0.0767965093255043
12.0,0.07622546702623367
13.0,0.07564674317836761
14.0,0.07508089393377304
15.0,0.07452506572008133
16.0,0.07398048788309097
18.0,0.07292670011520386
20.0,0.0719042718410492
22.0,0.0709436759352684
24.0,0.07004736363887787
26.0,0.06916318088769913
28.0,0.06828198581933975
30.0,0.06741366535425186
32.0,0.06655397266149521
36.0,0.06489109247922897
40.0,0.06325425952672958
44.0,0.06162538379430771
48.0,0.06005703657865524
52.0,0.05850447714328766
56.0,0.056939683854579926
60.0,0.055405788123607635
64.0,0.05389070510864258
72.0,0.05117246136069298
80.0,0.04893254488706589
88.0,0.046955402940511703
96.0,0.04526645690202713
104.0,0.043525658547878265
112.0,0.04153957962989807
120.0,0.03954397514462471
128.0,0.03776225075125694
144.0,0.034678682684898376
160.0,0.03146668151021004
176.0,0.02793916128575802
192.0,0.024685001000761986
208.0,0.02170625329017639
224.0,0.018968641757965088
240.0,0.01697441376745701
256.0,0.015221476554870605
288.0,0.012629201635718346
320.0,0.010731955990195274
352.0,0.00901823304593563
384.0,0.006503884680569172
416.0,0.003580700373277068
448.0,0.001320672919973731
480.0,-0.0011598116252571344
512.0,-0.003759284969419241
576.0,-0.006159977521747351
640.0,-0.00434233108535409
704.0,-0.004531445447355509
768.0,-0.001548685017041862
832.0,0.001490462338551879
896.0,0.0027793084736913443
960.0,0.00624951021745801
1024.0,0.006769209168851376
1152.0,0.006803031545132399
1280.0,0.001260379794985056
1408.0,-0.009293917566537857
1536.0,-0.011402679607272148
1664.0,-0.01478438638150692
1792.0,-0.011291317641735077
1920.0,-0.0010126878041774035
2048.0,0.0035762712359428406
2304.0,-0.0017112198984250426
2560.0,-0.008823792450129986
2816.0,-0.012559253722429276
3072.0,-0.0030347479041665792
3328.0,-0.0005301698693074286
3584.0,0.0014503528364002705
3840.0,-0.004981061909347773
4096.0,2.1533589460887015e-05
4608.0,0.0033692605793476105
5120.0,-0.004124914295971394
5632.0,-0.005546254571527243
6144.0,-0.004456919152289629
6656.0,-0.0001519860525149852
7168.0,0.0003758355160243809
7680.0,0.011301128193736076
8192.0,-0.0025423497427254915
9216.0,-0.0038150916807353497
10240.0,-0.0021388381719589233
11264.0,0.006886442191898823
12288.0,0.008390460163354874
13312.0,-0.022756969556212425
14336.0,-0.01040672417730093
end
