version,3.0
numOfCh,1
type,point
parent_name,2-cuts
ch_type,1_1
kcount,1
numberNandB,1
brightnessNandB,1
carpet pos,0
pc,0
Time (ms),CH1 Auto-Correlation
1.0,0.05342528596520424
2.0,0.0530368871986866
3.0,0.052649158984422684
4.0,0.05227027088403702
5.0,0.05189353600144386
6.0,0.05151847004890442
7.0,0.05114900693297386
8.0,0.05079007148742676
9.0,0.050436314195394516
10.0,0.05008281022310257
11.0,0.04973636567592621
12.0,0.04939498007297516
13.0,0.04905462637543678
14.0,0.0487167090177536
15.0,0.048380766063928604
16.0,0.0480516254901886
18.0,0.04741007462143898
20.0,0.04677706956863403
22.0,0.046163856983184814
24.0,0.04557187855243683
26.0,0.0449681431055069
28.0,0.04435577988624573
30.0,0.04375256597995758
32.0,0.043150585144758224
36.0,0.04200069606304169
40.0,0.04092459753155708
44.0,0.039905089884996414
48.0,0.03891093283891678
52.0,0.03797148913145065
56.0,0.03705295920372009
60.0,0.03615635260939598
64.0,0.035302434116601944
72.0,0.03365403786301613
80.0,0.03224434703588486
88.0,0.030957374721765518
96.0,0.02972203679382801
104.0,0.028549030423164368
112.0,0.027552438899874687
120.0,0.026666423305869102
128.0,0.02574034035205841
144.0,0.02432066574692726
160.0,0.023195412009954453
176.0,0.02225317806005478
192.0,0.021419033408164978
208.0,0.020823348313570023
224.0,0.019949890673160553
240.0,0.019384583458304405
256.0,0.01941206306219101
288.0,0.018682586029171944
320.0,0.017385117709636688
352.0,0.016772819682955742
384.0,0.016400208696722984
416.0,0.015101351775228977
448.0,0.013055233284831047
480.0,0.011882290244102478
512.0,0.010998287238180637
576.0,0.010094700381159782
640.0,0.009147618897259235
704.0,0.008857931941747665
768.0,0.008469062857329845
832.0,0.006599059794098139
896.0,0.005647584795951843
960.0,0.006913364864885807
1024.0,0.008100529201328754
1152.0,0.006874330807477236
1280.0,0.0086846724152565
1408.0,0.012823238968849182
1536.0,0.012030495330691338
1664.0,0.009949787519872189
1792.0,0.008484414778649807
1920.0,0.005929192528128624
2048.0,0.0035352378617972136
2304.0,-0.003658716334030032
2560.0,-0.005426194053143263
2816.0,-0.0033420901745557785
3072.0,-0.003003718564286828
3328.0,-0.003352711210027337
3584.0,-0.008103793486952782
3840.0,-0.0142828905954957
4096.0,-0.016603365540504456
4608.0,-0.014596029184758663
5120.0,-0.009816582314670086
5632.0,-0.012162772938609123
6144.0,-0.0037854521069675684
6656.0,0.0009536936413496733
7168.0,-0.002380889840424061
7680.0,0.00399301340803504
8192.0,0.012937645427882671
9216.0,0.014834326691925526
10240.0,0.008072146214544773
11264.0,0.0003898547147400677
12288.0,-0.01578429527580738
13312.0,-0.020384471863508224
14336.0,-0.02483651600778103
end
