version,3.0
numOfCh,1
type,point
parent_name,2-cuts
ch_type,1_1
kcount,1
numberNandB,1
brightnessNandB,1
carpet pos,0
pc,0
Time (ms),CH1 Auto-Correlation
1.0,0.07385478168725967
2.0,0.07341951131820679
3.0,0.07298137247562408
4.0,0.07255339622497559
5.0,0.0721207931637764
6.0,0.07169361412525177
7.0,0.07126601040363312
8.0,0.07084222137928009
9.0,0.0704314187169075
10.0,0.07001841813325882
11.0,0.06962032616138458
12.0,0.06921333819627762
13.0,0.06879472732543945
14.0,0.06837891787290573
15.0,0.06796106696128845
16.0,0.06754371523857117
18.0,0.06671351194381714
20.0,0.06592461466789246
22.0,0.06516435742378235
24.0,0.06440112739801407
26.0,0.06362287700176239
28.0,0.06283867359161377
30.0,0.062068626284599304
32.0,0.06132061034440994
36.0,0.05983862653374672
40.0,0.058443307876586914
44.0,0.05705057457089424
48.0,0.05570865795016289
52.0,0.0544462725520134
56.0,0.05315966159105301
60.0,0.05190880969166756
64.0,0.050707221031188965
72.0,0.04813600331544876
80.0,0.04567458853125572
88.0,0.043497372418642044
96.0,0.041644129902124405
104.0,0.039988886564970016
112.0,0.03857365623116493
120.0,0.03742101415991783
128.0,0.03651399910449982
144.0,0.035092707723379135
160.0,0.034180112183094025
176.0,0.033585671335458755
192.0,0.03321857750415802
208.0,0.03255484253168106
224.0,0.03148067742586136
240.0,0.030154110863804817
256.0,0.028429724276065826
288.0,0.024337701499462128
320.0,0.020927026867866516
352.0,0.018089449033141136
384.0,0.0164386797696352
416.0,0.01668255217373371
448.0,0.0167386457324028
480.0,0.015137959271669388
512.0,0.01199264544993639
576.0,0.0059899152256548405
640.0,0.0059873079881072044
704.0,0.00848749466240406
768.0,0.008483421988785267
832.0,0.006636199075728655
896.0,0.003914801869541407
960.0,0.0016357603017240763
1024.0,-0.00025566667318344116
1152.0,-0.0031935828737914562
1280.0,-0.0030206323135644197
1408.0,-0.006233887281268835
1536.0,-0.00046741627738811076
1664.0,-0.0022643725387752056
1792.0,0.0010625383583828807
1920.0,0.003578428877517581
2048.0,0.005796272307634354
2304.0,0.007922074757516384
2560.0,0.00899659376591444
2816.0,0.0049361297860741615
3072.0,-0.0008671369287185371
3328.0,-0.018523437902331352
3584.0,-0.021448174491524696
3840.0,-0.013169736601412296
4096.0,-0.005175238009542227
4608.0,0.005936249624937773
5120.0,0.012355540879070759
5632.0,-0.0012123408960178494
6144.0,-0.011799290776252747
6656.0,-0.004892213270068169
7168.0,0.006504556629806757
7680.0,-0.0030816078651696444
8192.0,-0.004316376522183418
9216.0,0.008726920001208782
10240.0,0.005473004654049873
11264.0,0.001435807324014604
12288.0,-0.00528156291693449
13312.0,-0.026097098365426064
14336.0,-0.03168501332402229
end
