version,3.0
numOfCh,1
type,point
parent_name,2-cuts
ch_type,1_1
kcount,1
numberNandB,1
brightnessNandB,1
carpet pos,0
pc,0
Time (ms),CH1 Auto-Correlation
1.0,0.02689424343407154
2.0,0.026698194444179535
3.0,0.02650121971964836
4.0,0.026301991194486618
5.0,0.026098644360899925
6.0,0.02589389681816101
7.0,0.02569364197552204
8.0,0.02549418993294239
9.0,0.02529384195804596
10.0,0.02509782835841179
11.0,0.02490309812128544
12.0,0.02470848150551319
13.0,0.024514907971024513
14.0,0.024317855015397072
15.0,0.024122871458530426
16.0,0.023929832503199577
18.0,0.023554114624857903
20.0,0.023192813619971275
22.0,0.022833213210105896
24.0,0.022474130615592003
26.0,0.022123055532574654
28.0,0.021792808547616005
30.0,0.021468566730618477
32.0,0.02114252932369709
36.0,0.02049693465232849
40.0,0.01986612007021904
44.0,0.019289769232273102
48.0,0.01873311772942543
52.0,0.018181437626481056
56.0,0.017633384093642235
60.0,0.01707826927304268
64.0,0.016533339396119118
72.0,0.01550378929823637
80.0,0.014545955695211887
88.0,0.013660449534654617
96.0,0.012889169156551361
104.0,0.012171526439487934
112.0,0.0114994952455163
120.0,0.010871502570807934
128.0,0.010247883386909962
144.0,0.008821952156722546
160.0,0.0073790461756289005
176.0,0.006143173668533564
192.0,0.005268585868179798
208.0,0.0043699354864656925
224.0,0.003630936611443758
240.0,0.003341828938573599
256.0,0.003288281848654151
288.0,0.002920613158494234
320.0,0.0021401867270469666
352.0,0.001133239595219493
384.0,0.00019993858586531132
416.0,-0.0004492758016567677
448.0,-0.001187308575026691
480.0,-0.002054481767117977
512.0,-0.002425974467769265
576.0,-0.003055970650166273
640.0,-0.0028824550099670887
704.0,-0.0020256435964256525
768.0,-0.0018792434129863977
832.0,-0.0002064059372060001
896.0,0.0007374659180641174
960.0,0.001588987885043025
1024.0,0.0022423542104661465
1152.0,0.0012758519733324647
1280.0,0.0016970400465652347
1408.0,0.0020699116867035627
1536.0,7.88469915278256e-05
1664.0,-0.0006331484182737768
1792.0,-0.0017442924436181784
1920.0,-0.003262088168412447
2048.0,-0.0034354780800640583
2304.0,-0.002052357653155923
2560.0,0.0021814233623445034
2816.0,0.0025702996645122766
3072.0,-0.002075625117868185
3328.0,-0.00401984853670001
3584.0,-0.001391806174069643
3840.0,0.0006869192002341151
4096.0,0.0006547096418216825
4608.0,-0.0013444401556625962
5120.0,0.0014650319935753942
5632.0,0.0032532098703086376
6144.0,-0.0016850216779857874
6656.0,0.0008809666614979506
7168.0,-0.003735503414645791
7680.0,-0.0034359877463430166
8192.0,-0.0010031127603724599
9216.0,0.0019315348472446203
10240.0,-0.0004134806804358959
11264.0,-0.001821877551265061
12288.0,-0.000929430068936199
13312.0,-0.005972595419734716
14336.0,0.012299777008593082
end
