version,3.0
numOfCh,1
type,point
parent_name,2-cuts
ch_type,1_1
kcount,1
numberNandB,1
brightnessNandB,1
carpet pos,0
pc,0
Time (ms),CH1 Auto-Correlation
1.0,0.07345916330814362
2.0,0.07306133210659027
3.0,0.07267006486654282
4.0,0.07228751480579376
5.0,0.07191528379917145
6.0,0.07155600935220718
7.0,0.07120027393102646
8.0,0.07086077332496643
9.0,0.07052625715732574
10.0,0.07019859552383423
11.0,0.06988048553466797
12.0,0.0695573166012764
13.0,0.069240503013134
14.0,0.06891193240880966
15.0,0.06859048455953598
16.0,0.0682792067527771
18.0,0.0676698386669159
20.0,0.06709448993206024
22.0,0.06655319035053253
24.0,0.06602171063423157
26.0,0.06552019715309143
28.0,0.06504074484109879
30.0,0.06457678228616714
32.0,0.06411410868167877
36.0,0.06322525441646576
40.0,0.0623713955283165
44.0,0.06153317168354988
48.0,0.0607021190226078
52.0,0.05986646190285683
56.0,0.0590616799890995
60.0,0.05827910453081131
64.0,0.05759203061461449
72.0,0.056381162256002426
80.0,0.05531121790409088
88.0,0.05423273518681526
96.0,0.05307290703058243
104.0,0.05198904126882553
112.0,0.0509377121925354
120.0,0.04988158121705055
128.0,0.048891980201005936
144.0,0.046907808631658554
160.0,0.04491441696882248
176.0,0.04285619035363197
192.0,0.04096982628107071
208.0,0.039303895086050034
224.0,0.03772349655628204
240.0,0.03625292703509331
256.0,0.03498992696404457
288.0,0.032677315175533295
320.0,0.03078237920999527
352.0,0.029395537450909615
384.0,0.027793481945991516
416.0,0.02628437802195549
448.0,0.02417895942926407
480.0,0.021553345024585724
512.0,0.019136765971779823
576.0,0.014833048917353153
640.0,0.012007452547550201
704.0,0.011144900694489479
768.0,0.011604673229157925
832.0,0.013858234509825706
896.0,0.012118144892156124
960.0,0.00865917094051838
1024.0,0.004472420085221529
1152.0,-0.004022045526653528
1280.0,-0.009512670338153839
1408.0,-0.009830540977418423
1536.0,-0.01142400037497282
1664.0,-0.012499796226620674
1792.0,-0.009338408708572388
1920.0,-0.008922171778976917
2048.0,-0.012961933389306068
2304.0,-0.007738074753433466
2560.0,-0.004914599936455488
2816.0,-0.0040284148417413235
3072.0,-0.008110297843813896
3328.0,-0.007427053526043892
3584.0,-0.006776625756174326
3840.0,-0.011997486464679241
4096.0,-0.008898414671421051
4608.0,0.0009598390315659344
5120.0,-0.005758561193943024
5632.0,-0.0024306667037308216
6144.0,0.0036628192756325006
6656.0,0.0077304900623857975
7168.0,0.016863983124494553
7680.0,-0.00163729686755687
8192.0,-0.008967223577201366
9216.0,0.005979651119560003
10240.0,0.003097191685810685
11264.0,0.0035311367828398943
12288.0,-0.011855012737214565
13312.0,-0.015223796479403973
14336.0,-0.010902673937380314
end
