version,3.0
numOfCh,1
type,point
parent_name,2-cuts
ch_type,1_1
kcount,1
numberNandB,1
brightnessNandB,1
carpet pos,0
pc,0
Time (ms),CH1 Auto-Correlation
1.0,0.061366476118564606
2.0,0.06094304844737053
3.0,0.060532182455062866
4.0,0.06013108417391777
5.0,0.05973410606384277
6.0,0.05934076011180878
7.0,0.05895087495446205
8.0,0.05855322629213333
9.0,0.058157652616500854
10.0,0.057759467512369156
11.0,0.05737349018454552
12.0,0.056996241211891174
13.0,0.056625694036483765
14.0,0.05625411123037338
15.0,0.05588003993034363
16.0,0.05551869794726372
18.0,0.05482316017150879
20.0,0.054130688309669495
22.0,0.053451281040906906
24.0,0.052805423736572266
26.0,0.052166931331157684
28.0,0.05152804031968117
30.0,0.05091693252325058
32.0,0.05033304914832115
36.0,0.04918961226940155
40.0,0.048118896782398224
44.0,0.047096941620111465
48.0,0.04605996981263161
52.0,0.04499335214495659
56.0,0.04395105317234993
60.0,0.0429539754986763
64.0,0.041956961154937744
72.0,0.04022398591041565
80.0,0.038715194910764694
88.0,0.03727361187338829
96.0,0.03580613434314728
104.0,0.034350454807281494
112.0,0.0328906811773777
120.0,0.03150493651628494
128.0,0.03011811152100563
144.0,0.027607010677456856
160.0,0.025498326867818832
176.0,0.02368236519396305
192.0,0.022237928584218025
208.0,0.021231582388281822
224.0,0.020315324887633324
240.0,0.019779223948717117
256.0,0.01961202546954155
288.0,0.01836162805557251
320.0,0.017487907782197
352.0,0.01736125536262989
384.0,0.015933318063616753
416.0,0.014357347972691059
448.0,0.012495007365942001
480.0,0.00983124878257513
512.0,0.007197870872914791
576.0,0.0025696437805891037
640.0,0.0022152739111334085
704.0,0.0033779358491301537
768.0,0.005612977780401707
832.0,0.00460623437538743
896.0,0.0038581129629164934
960.0,0.0043888879008591175
1024.0,0.004336518235504627
1152.0,0.006493058055639267
1280.0,0.006722642574459314
1408.0,0.007213756907731295
1536.0,0.005529680289328098
1664.0,0.008538627997040749
1792.0,0.009166424162685871
1920.0,0.008397424593567848
2048.0,0.01126952189952135
2304.0,0.011862198822200298
2560.0,7.53906206227839e-05
2816.0,-0.006030377000570297
3072.0,-0.002055935561656952
3328.0,-0.0020416835322976112
3584.0,-0.006156101357191801
3840.0,-0.012234562076628208
4096.0,-0.01642739772796631
4608.0,-0.010808667168021202
5120.0,-0.006884876172989607
5632.0,-0.011376182548701763
6144.0,-0.01937626115977764
6656.0,-0.006723196245729923
7168.0,-0.0007633620407432318
7680.0,-0.0051681408658623695
8192.0,-0.0003027011116500944
9216.0,4.849812830798328e-05
10240.0,0.004928817972540855
11264.0,0.001746390131302178
12288.0,0.00018441361316945404
13312.0,0.0008423911640420556
14336.0,-0.0029706531204283237
end
