version,3.0
numOfCh,1
type,point
parent_name,2-cuts
ch_type,1_1
kcount,1
numberNandB,1
brightnessNandB,1
carpet pos,0
pc,0
Time (ms),CH1 Auto-Correlation
1.0,0.028734270483255386
2.0,0.028547657653689384
3.0,0.028363294899463654
4.0,0.028183043003082275
5.0,0.02800070308148861
6.0,0.027823826298117638
7.0,0.027646910399198532
8.0,0.027472522109746933
9.0,0.027300776913762093
10.0,0.027134278789162636
11.0,0.026963111013174057
12.0,0.026793181896209717
13.0,0.026623588055372238
14.0,0.02645803801715374
15.0,0.026294589042663574
16.0,0.026133820414543152
18.0,0.025816112756729126
20.0,0.025503704324364662
22.0,0.025208842009305954
24.0,0.024922354146838188
26.0,0.02463546022772789
28.0,0.024342909455299377
30.0,0.024057941511273384
32.0,0.02378675527870655
36.0,0.023278407752513885
40.0,0.022797580808401108
44.0,0.022312860935926437
48.0,0.02183697558939457
52.0,0.02137787640094757
56.0,0.02094164676964283
60.0,0.020506197586655617
64.0,0.020092841237783432
72.0,0.01928846351802349
80.0,0.01851905882358551
88.0,0.017770307138562202
96.0,0.017046354711055756
104.0,0.01640062965452671
112.0,0.01582450233399868
120.0,0.015261627733707428
128.0,0.01475222222507
144.0,0.013751955702900887
160.0,0.012971365824341774
176.0,0.012294028885662556
192.0,0.011658048257231712
208.0,0.011134863831102848
224.0,0.010667074471712112
240.0,0.010313509963452816
256.0,0.009828111156821251
288.0,0.008826548233628273
320.0,0.0078085013665258884
352.0,0.006705125328153372
384.0,0.005790218710899353
416.0,0.004944175016134977
448.0,0.004098076838999987
480.0,0.003256045514717698
512.0,0.0025813099928200245
576.0,0.002020127372816205
640.0,0.0019142001401633024
704.0,0.0016951955622062087
768.0,0.0015213884180411696
832.0,0.0009709947044029832
896.0,0.00037279739626683295
960.0,0.0004174153145868331
1024.0,0.0014319762121886015
1152.0,0.0019267707830294967
1280.0,0.002197399502620101
1408.0,0.0016769163776189089
1536.0,-0.0009447775082662702
1664.0,-0.003980843350291252
1792.0,-0.006886000279337168
1920.0,-0.008535094559192657
2048.0,-0.009334960021078587
2304.0,-0.007910750806331635
2560.0,-0.004416537471115589
2816.0,-0.004877767525613308
3072.0,-0.00807784404605627
3328.0,-0.008135418407619
3584.0,-0.0037082694470882416
3840.0,0.0018136772559955716
4096.0,0.0058872513473033905
4608.0,0.004291712772101164
5120.0,0.007343686185777187
5632.0,0.006371721625328064
6144.0,0.003209226531907916
6656.0,0.0002757767797447741
7168.0,-0.006111225113272667
7680.0,-0.00825107004493475
8192.0,-0.003433958161622286
9216.0,0.00207052705809474
10240.0,0.0032882560044527054
11264.0,-0.001165325054898858
12288.0,-0.002479711314663291
13312.0,-0.0005243144696578383
14336.0,0.0012179105542600155
end
