version,3.0
numOfCh,1
type,point
parent_name,2-cuts
ch_type,1_1
kcount,1
numberNandB,1
brightnessNandB,1
carpet pos,0
pc,0
Time (ms),CH1 Auto-Correlation
1.0,0.026996271684765816
2.0,0.026814358308911324
3.0,0.026636667549610138
4.0,0.026456382125616074
5.0,0.02627783827483654
6.0,0.026105526834726334
7.0,0.02593541145324707
8.0,0.02577006071805954
9.0,0.025603948161005974
10.0,0.025436270982027054
11.0,0.025272225961089134
12.0,0.02511088363826275
13.0,0.02495102770626545
14.0,0.024794260039925575
15.0,0.024638565257191658
16.0,0.02448751963675022
18.0,0.024184351786971092
20.0,0.02389626018702984
22.0,0.023612873628735542
24.0,0.023343350738286972
26.0,0.023084023967385292
28.0,0.02283012680709362
30.0,0.022576820105314255
32.0,0.022336987778544426
36.0,0.021867094561457634
40.0,0.021376674994826317
44.0,0.020897334441542625
48.0,0.020423976704478264
52.0,0.019953258335590363
56.0,0.01949005387723446
60.0,0.01905989833176136
64.0,0.01865260675549507
72.0,0.017926763743162155
80.0,0.017262158915400505
88.0,0.016581181436777115
96.0,0.015901844948530197
104.0,0.0153158288449049
112.0,0.014763147570192814
120.0,0.014191884547472
128.0,0.013604812324047089
144.0,0.012512433342635632
160.0,0.011640393175184727
176.0,0.010982939973473549
192.0,0.010585183277726173
208.0,0.01027850341051817
224.0,0.009946808218955994
240.0,0.009446617215871811
256.0,0.009031843394041061
288.0,0.008631533943116665
320.0,0.008015120401978493
352.0,0.0074730683118104935
384.0,0.006899665109813213
416.0,0.006778356619179249
448.0,0.006430742330849171
480.0,0.00619195681065321
512.0,0.005712983664125204
576.0,0.004756338894367218
640.0,0.0034595888573676348
704.0,0.0019043998327106237
768.0,0.0014276880538091063
832.0,0.0018187640234827995
896.0,0.00277611892670393
960.0,0.00324508105404675
1024.0,0.003708761418238282
1152.0,0.0032439983915537596
1280.0,0.0036923077423125505
1408.0,0.003579270327463746
1536.0,0.0016645371215417981
1664.0,0.00024554814444854856
1792.0,-0.0003085405915044248
1920.0,-0.000670107954647392
2048.0,-0.0017968382453545928
2304.0,-0.0026007185224443674
2560.0,0.00013196391228120774
2816.0,0.00016611898900009692
3072.0,-0.001085349591448903
3328.0,-0.0021111289970576763
3584.0,-0.002790997037664056
3840.0,-0.0031581486109644175
4096.0,-0.0042883832938969135
4608.0,-0.002505766460672021
5120.0,0.002614266937598586
5632.0,-0.0010618258966132998
6144.0,-0.0037887119688093662
6656.0,-0.0017194109968841076
7168.0,-0.0071543254889547825
7680.0,0.000591281452216208
8192.0,0.0012671485310420394
9216.0,-0.002874534809961915
10240.0,-0.0013448555255308747
11264.0,-0.0016294197412207723
12288.0,0.0025124617386609316
13312.0,0.005639026407152414
14336.0,0.004374832380563021
end
