version,3.0
numOfCh,1
type,point
parent_name,2-cuts
ch_type,1_1
kcount,1
numberNandB,1
brightnessNandB,1
carpet pos,0
pc,0
Time (ms),CH1 Auto-Correlation
1.0,0.13728924095630646
2.0,0.13670188188552856
3.0,0.1361282616853714
4.0,0.13555578887462616
5.0,0.134995236992836
6.0,0.1344357132911682
7.0,0.13386838138103485
8.0,0.1333080232143402
9.0,0.13275383412837982
10.0,0.1322014033794403
11.0,0.13165636360645294
12.0,0.13112090528011322
13.0,0.13058699667453766
14.0,0.13005927205085754
15.0,0.1295420229434967
16.0,0.1290314644575119
18.0,0.1279875934123993
20.0,0.12699244916439056
22.0,0.12600885331630707
24.0,0.12503087520599365
26.0,0.12410109490156174
28.0,0.12320832163095474
30.0,0.1223268136382103
32.0,0.12146122753620148
36.0,0.11980938911437988
40.0,0.11819490790367126
44.0,0.11661456525325775
48.0,0.11509792506694794
52.0,0.11363548785448074
56.0,0.11227825284004211
60.0,0.11100416630506516
64.0,0.10976821184158325
72.0,0.10740900039672852
80.0,0.10521785914897919
88.0,0.10310061275959015
96.0,0.10088267922401428
104.0,0.09879764914512634
112.0,0.09671161323785782
120.0,0.09460916370153427
128.0,0.09232821315526962
144.0,0.08847875148057938
160.0,0.08545999974012375
176.0,0.08288693428039551
192.0,0.08058018982410431
208.0,0.07832180708646774
224.0,0.07566776871681213
240.0,0.07288774847984314
256.0,0.07033071666955948
288.0,0.06613051146268845
320.0,0.06322876363992691
352.0,0.059892438352108
384.0,0.05629029870033264
416.0,0.05151498690247536
448.0,0.0465557686984539
480.0,0.04166831448674202
512.0,0.037153832614421844
576.0,0.030323106795549393
640.0,0.023194249719381332
704.0,0.01642049290239811
768.0,0.011866087093949318
832.0,0.006235309410840273
896.0,0.0018159446772187948
960.0,0.0007422413909807801
1024.0,0.001790948212146759
1152.0,0.00285449274815619
1280.0,-0.002839939435943961
1408.0,-0.0026987907476723194
1536.0,-0.002302387962117791
1664.0,-0.001604104065336287
1792.0,-0.004283714573830366
1920.0,-0.003089041216298938
2048.0,0.006694192066788673
2304.0,0.006051399279385805
2560.0,-0.005930421873927116
2816.0,-0.013506456278264523
3072.0,-0.015078981406986713
3328.0,-0.005601414944976568
3584.0,-0.005742779932916164
3840.0,-0.009800218977034092
4096.0,-0.01984415575861931
4608.0,-0.02160617522895336
5120.0,-0.016736434772610664
5632.0,-0.026439394801855087
6144.0,-0.030533522367477417
6656.0,-0.04186461865901947
7168.0,-0.026954183354973793
7680.0,-0.0031830784864723682
8192.0,-0.0028544908855110407
9216.0,0.0176302008330822
10240.0,-0.0032606497406959534
11264.0,0.06298907101154327
12288.0,0.040844183415174484
13312.0,0.042594898492097855
14336.0,-0.04706704616546631
end
