version,3.0
numOfCh,1
type,point
parent_name,2-cuts
ch_type,1_1
kcount,1
numberNandB,1
brightnessNandB,1
carpet pos,0
pc,0
Time (ms),CH1 Auto-Correlation
1.0,0.11218076944351196
2.0,0.11160878092050552
3.0,0.11101164668798447
4.0,0.11043253540992737
5.0,0.1098622977733612
6.0,0.10930462181568146
7.0,0.10875269770622253
8.0,0.1082131415605545
9.0,0.1076938658952713
10.0,0.1071796640753746
11.0,0.1066790521144867
12.0,0.10618185997009277
13.0,0.10567674040794373
14.0,0.10518600046634674
15.0,0.1047133207321167
16.0,0.10423573106527328
18.0,0.10323906689882278
20.0,0.10227251052856445
22.0,0.10131987929344177
24.0,0.10036332160234451
26.0,0.09945301711559296
28.0,0.09858722984790802
30.0,0.09772152453660965
32.0,0.09688358008861542
36.0,0.09525362402200699
40.0,0.09362511336803436
44.0,0.0920557975769043
48.0,0.09061402082443237
52.0,0.08924277871847153
56.0,0.08788038790225983
60.0,0.08651897311210632
64.0,0.08523353189229965
72.0,0.08292969316244125
80.0,0.0806908905506134
88.0,0.0785757377743721
96.0,0.07662375271320343
104.0,0.07468389719724655
112.0,0.07285019755363464
120.0,0.07096554338932037
128.0,0.06927144527435303
144.0,0.06643813103437424
160.0,0.0633438378572464
176.0,0.06068726256489754
192.0,0.058869827538728714
208.0,0.05708375200629234
224.0,0.05525950714945793
240.0,0.053771499544382095
256.0,0.052332665771245956
288.0,0.049136385321617126
320.0,0.044872041791677475
352.0,0.040154945105314255
384.0,0.0346708670258522
416.0,0.028893543407320976
448.0,0.023117469623684883
480.0,0.018688393756747246
512.0,0.014694995246827602
576.0,0.008571657352149487
640.0,0.0035669005010277033
704.0,-0.0011507639428600669
768.0,-0.00626639649271965
832.0,-0.008478372357785702
896.0,-0.007716191001236439
960.0,-0.008672583848237991
1024.0,-0.009936908259987831
1152.0,-0.012764452025294304
1280.0,-0.02045973390340805
1408.0,-0.025485331192612648
1536.0,-0.023422207683324814
1664.0,-0.020202212035655975
1792.0,-0.011811034753918648
1920.0,-0.0009543377673253417
2048.0,0.007559690624475479
2304.0,0.02008543163537979
2560.0,0.022722171619534492
2816.0,0.013236080296337605
3072.0,0.005254749674350023
3328.0,-0.006654704920947552
3584.0,-0.014851889573037624
3840.0,-0.020726921036839485
4096.0,-0.023689378052949905
4608.0,-0.018300656229257584
5120.0,-0.0006094813579693437
5632.0,-0.006565208546817303
6144.0,-0.01231495663523674
6656.0,-0.020287422463297844
7168.0,-0.00836561992764473
7680.0,-0.001718665473163128
8192.0,0.003626612713560462
9216.0,-0.011866969056427479
10240.0,0.02310614287853241
11264.0,0.0326988510787487
12288.0,-0.0023808509577065706
13312.0,0.04983813688158989
14336.0,-0.0301631111651659
end
