version,3.0
numOfCh,1
type,point
parent_name,2-cuts
ch_type,1_1
kcount,1
numberNandB,1
brightnessNandB,1
carpet pos,0
pc,0
Time (ms),CH1 Auto-Correlation
1.0,0.052978869527578354
2.0,0.05261309817433357
3.0,0.052254676818847656
4.0,0.05190502852201462
5.0,0.05155466869473457
6.0,0.051203854382038116
7.0,0.05085153505206108
8.0,0.05050058290362358
9.0,0.050144925713539124
10.0,0.04977966845035553
11.0,0.04943294823169708
12.0,0.04909219220280647
13.0,0.048762205988168716
14.0,0.04843658208847046
15.0,0.048104964196681976
16.0,0.04777350649237633
18.0,0.047144368290901184
20.0,0.04654674604535103
22.0,0.04596199095249176
24.0,0.04539018124341965
26.0,0.04481419548392296
28.0,0.04424559324979782
30.0,0.04367963224649429
32.0,0.04313761368393898
36.0,0.042151354253292084
40.0,0.0412147119641304
44.0,0.040355049073696136
48.0,0.03952346369624138
52.0,0.03876286372542381
56.0,0.03807695209980011
60.0,0.03744592145085335
64.0,0.03684816136956215
72.0,0.035815849900245667
80.0,0.03491763398051262
88.0,0.034058138728141785
96.0,0.03319704905152321
104.0,0.03226977959275246
112.0,0.03146389126777649
120.0,0.03079412132501602
128.0,0.030174028128385544
144.0,0.028703968971967697
160.0,0.0269737858325243
176.0,0.025316668674349785
192.0,0.024005062878131866
208.0,0.02307390794157982
224.0,0.022192491218447685
240.0,0.02087956853210926
256.0,0.019665423780679703
288.0,0.017878258600831032
320.0,0.016787705942988396
352.0,0.016165735200047493
384.0,0.01617860049009323
416.0,0.016243554651737213
448.0,0.01655764691531658
480.0,0.016981298103928566
512.0,0.01719016022980213
576.0,0.016333313658833504
640.0,0.01413291972130537
704.0,0.01227363757789135
768.0,0.011594091542065144
832.0,0.010240291245281696
896.0,0.009631705470383167
960.0,0.008589550852775574
1024.0,0.007340595126152039
1152.0,0.007775736972689629
1280.0,0.008463654667139053
1408.0,0.0077770771458745
1536.0,0.005343773867934942
1664.0,0.002324707107618451
1792.0,0.0015920537989586592
1920.0,-0.00019433785928413272
2048.0,-0.0017644312465563416
2304.0,-0.005037569906562567
2560.0,-0.005245111882686615
2816.0,-0.00048473518108949065
3072.0,-0.0052325609140098095
3328.0,-0.006985167972743511
3584.0,-0.006258990615606308
3840.0,-0.009863615036010742
4096.0,-0.0069222901947796345
4608.0,-0.004830112215131521
5120.0,0.00261673447676003
5632.0,0.004722192417830229
6144.0,0.011438471265137196
6656.0,0.011061212047934532
7168.0,0.0004479333874769509
7680.0,-0.005485564470291138
8192.0,-0.0094907833263278
9216.0,-0.011058495379984379
10240.0,-0.018491322174668312
11264.0,-0.010644725523889065
12288.0,0.0026816315948963165
13312.0,-0.0027742856182157993
14336.0,0.0089078014716506
end
