version,3.0
numOfCh,1
type,point
parent_name,2-cuts
ch_type,1_1
kcount,1
numberNandB,1
brightnessNandB,1
carpet pos,0
pc,0
Time (ms),CH1 Auto-Correlation
1.0,0.05553010106086731
2.0,0.055138424038887024
3.0,0.0547456368803978
4.0,0.05435589700937271
5.0,0.05396749824285507
6.0,0.053581252694129944
7.0,0.053198348730802536
8.0,0.05281361564993858
9.0,0.05244492366909981
10.0,0.05209330469369888
11.0,0.05173945426940918
12.0,0.05139978602528572
13.0,0.051054660230875015
14.0,0.05070606991648674
15.0,0.050356119871139526
16.0,0.049997467547655106
18.0,0.04929313808679581
20.0,0.04859038442373276
22.0,0.047914113849401474
24.0,0.047253891825675964
26.0,0.0466187559068203
28.0,0.04599862918257713
30.0,0.045400962233543396
32.0,0.04478081315755844
36.0,0.0435737669467926
40.0,0.04246095195412636
44.0,0.041401710361242294
48.0,0.04034919664263725
52.0,0.03933458402752876
56.0,0.03840356692671776
60.0,0.037470147013664246
64.0,0.036502499133348465
72.0,0.03479006886482239
80.0,0.03309313952922821
88.0,0.03143469989299774
96.0,0.029827173799276352
104.0,0.028375321999192238
112.0,0.027093514800071716
120.0,0.025974441319704056
128.0,0.024887314066290855
144.0,0.023091411218047142
160.0,0.021634945645928383
176.0,0.020313763990998268
192.0,0.01911543495953083
208.0,0.017723755910992622
224.0,0.01635655201971531
240.0,0.014887730590999126
256.0,0.013043712824583054
288.0,0.010201504454016685
320.0,0.00795848947018385
352.0,0.007468576543033123
384.0,0.007627138867974281
416.0,0.007962017320096493
448.0,0.008814956061542034
480.0,0.008882619440555573
512.0,0.009022831916809082
576.0,0.010436106473207474
640.0,0.011429431848227978
704.0,0.013167903758585453
768.0,0.013433386571705341
832.0,0.011996041052043438
896.0,0.010908572003245354
960.0,0.006125426385551691
1024.0,-0.0011367108672857285
1152.0,-0.005754040088504553
1280.0,-0.0030678275506943464
1408.0,0.0018560054013505578
1536.0,0.0027002717833966017
1664.0,0.000843044719658792
1792.0,-0.0020552692003548145
1920.0,-0.0022571992594748735
2048.0,0.00026735386927612126
2304.0,0.0036576215643435717
2560.0,-0.0031316273380070925
2816.0,-0.0040322598069906235
3072.0,-0.006056469399482012
3328.0,-0.010958495549857616
3584.0,-0.013618050143122673
3840.0,-0.014272637665271759
4096.0,-0.01093323715031147
4608.0,-0.010865486226975918
5120.0,-0.00695940712466836
5632.0,-0.006250114645808935
6144.0,0.004545681644231081
6656.0,0.007386101875454187
7168.0,0.009853881783783436
7680.0,0.003957410808652639
8192.0,0.007042096462100744
9216.0,0.006280247587710619
10240.0,-0.003116575302556157
11264.0,-0.005193479359149933
12288.0,-0.005200557876378298
13312.0,-0.0015488223871216178
14336.0,-0.005849987268447876
end
