version,3.0
numOfCh,1
type,point
parent_name,2-cuts
ch_type,1_1
kcount,1
numberNandB,1
brightnessNandB,1
carpet pos,0
pc,0
Time (ms),CH1 Auto-Correlation
1.0,0.09843475371599197
2.0,0.09792967140674591
3.0,0.09743024408817291
4.0,0.0969371572136879
5.0,0.09645248204469681
6.0,0.09597520530223846
7.0,0.09550122171640396
8.0,0.09505215287208557
9.0,0.0946023166179657
10.0,0.09417607635259628
11.0,0.09375756978988647
12.0,0.09335348010063171
13.0,0.09295489639043808
14.0,0.09255851060152054
15.0,0.09216289967298508
16.0,0.09176614135503769
18.0,0.09097355604171753
20.0,0.09019806981086731
22.0,0.08945148438215256
24.0,0.08872614055871964
26.0,0.08803506940603256
28.0,0.08737679570913315
30.0,0.08676309883594513
32.0,0.08617404103279114
36.0,0.08507757633924484
40.0,0.08410616964101791
44.0,0.08312883973121643
48.0,0.08216586709022522
52.0,0.08123917132616043
56.0,0.08036009967327118
60.0,0.07951919734477997
64.0,0.07875918596982956
72.0,0.07730169594287872
80.0,0.07572679221630096
88.0,0.07400019466876984
96.0,0.07230573147535324
104.0,0.07083045691251755
112.0,0.06953835487365723
120.0,0.06832747906446457
128.0,0.06699121743440628
144.0,0.06456518173217773
160.0,0.06256336718797684
176.0,0.060524728149175644
192.0,0.05859239399433136
208.0,0.0567280612885952
224.0,0.05461748689413071
240.0,0.05254519358277321
256.0,0.050765346735715866
288.0,0.048811573535203934
320.0,0.04678967222571373
352.0,0.04468616098165512
384.0,0.04374799132347107
416.0,0.04438856244087219
448.0,0.045155949890613556
480.0,0.044864948838949203
512.0,0.04358944669365883
576.0,0.03956140577793121
640.0,0.03598460927605629
704.0,0.03151736781001091
768.0,0.02634488418698311
832.0,0.022393127903342247
896.0,0.019445156678557396
960.0,0.01840486004948616
1024.0,0.01881122589111328
1152.0,0.019340692088007927
1280.0,0.021536992862820625
1408.0,0.020734507590532303
1536.0,0.019677551463246346
1664.0,0.019579317420721054
1792.0,0.0219478290528059
1920.0,0.017530711367726326
2048.0,0.012159948237240314
2304.0,0.006940972525626421
2560.0,-0.0032332055270671844
2816.0,-0.006810557097196579
3072.0,-5.872316614841111e-05
3328.0,0.0020272990223020315
3584.0,0.0024099566508084536
3840.0,-0.006166360806673765
4096.0,-0.018425757065415382
4608.0,-0.0281077828258276
5120.0,-0.03265273943543434
5632.0,-0.051709387451410294
6144.0,-0.05203624814748764
6656.0,-0.024775095283985138
7168.0,-0.011845776811242104
7680.0,-0.012583092786371708
8192.0,-0.004855616018176079
9216.0,0.0038329698145389557
10240.0,0.015001733787357807
11264.0,0.02721254713833332
12288.0,0.01152845099568367
13312.0,-0.0024801455438137054
14336.0,-0.013972179964184761
end
