version,3.0
numOfCh,1
type,point
parent_name,2-cuts
ch_type,1_1
kcount,1
numberNandB,1
brightnessNandB,1
carpet pos,0
pc,0
Time (ms),CH1 Auto-Correlation
1.0,0.03199068456888199
2.0,0.03179403021931648
3.0,0.03160057216882706
4.0,0.03140687197446823
5.0,0.031214987859129906
6.0,0.03102649375796318
7.0,0.030841553583741188
8.0,0.030656317248940468
9.0,0.030476603657007217
10.0,0.030297407880425453
11.0,0.030121995136141777
12.0,0.02994624711573124
13.0,0.02977028116583824
14.0,0.029596710577607155
15.0,0.02942853793501854
16.0,0.02926521934568882
18.0,0.028943410143256187
20.0,0.02861730009317398
22.0,0.028290346264839172
24.0,0.027959100902080536
26.0,0.027623232454061508
28.0,0.027284547686576843
30.0,0.026950005441904068
32.0,0.02662096731364727
36.0,0.026007141917943954
40.0,0.02546451799571514
44.0,0.02499917708337307
48.0,0.024547545239329338
52.0,0.02408883348107338
56.0,0.023620303720235825
60.0,0.023157667368650436
64.0,0.022738507017493248
72.0,0.022000716999173164
80.0,0.021373530849814415
88.0,0.020885784178972244
96.0,0.020500600337982178
104.0,0.020111083984375
112.0,0.019757525995373726
120.0,0.019404908642172813
128.0,0.018964942544698715
144.0,0.017945634201169014
160.0,0.016958286985754967
176.0,0.016098627820611
192.0,0.015276930294930935
208.0,0.01466408558189869
224.0,0.014300839975476265
240.0,0.013982797041535378
256.0,0.013630019500851631
288.0,0.012492640875279903
320.0,0.0111537529155612
352.0,0.010239309631288052
384.0,0.00958134513348341
416.0,0.008937680162489414
448.0,0.008723970502614975
480.0,0.00823751650750637
512.0,0.007724687922745943
576.0,0.005924062803387642
640.0,0.004822865128517151
704.0,0.0029492720495909452
768.0,0.001767591806128621
832.0,0.001308206468820572
896.0,0.001427904819138348
960.0,0.0010344815673306584
1024.0,0.0010337673593312502
1152.0,0.00109141506254673
1280.0,0.00182970124296844
1408.0,0.0020533909555524588
1536.0,0.0033520192373543978
1664.0,0.0036820301320403814
1792.0,0.0018072236562147737
1920.0,0.001848753890953958
2048.0,0.002365223364904523
2304.0,0.0028241092804819345
2560.0,0.004025054629892111
2816.0,0.0013223004061728716
3072.0,0.0020999335683882236
3328.0,0.0024497194681316614
3584.0,-6.48174318484962e-05
3840.0,0.0011191408848389983
4096.0,0.0019475356675684452
4608.0,0.003288275096565485
5120.0,0.000629345653578639
5632.0,-0.002112667541950941
6144.0,-0.004093765281140804
6656.0,-0.002318255603313446
7168.0,0.0003535152936819941
7680.0,-0.006051290314644575
8192.0,-0.005724580492824316
9216.0,-0.0059891389682888985
10240.0,-0.0031801860313862562
11264.0,-0.006352975033223629
12288.0,-0.010567798279225826
13312.0,-0.006894408259540796
14336.0,0.00040419260039925575
end
