version,3.0
numOfCh,1
type,point
parent_name,2-cuts
ch_type,1_1
kcount,1
numberNandB,1
brightnessNandB,1
carpet pos,0
pc,0
Time (ms),CH1 Auto-Correlation
1.0,0.057928070425987244
2.0,0.05741231516003609
3.0,0.05691011995077133
4.0,0.05640774965286255
5.0,0.05592931807041168
6.0,0.055454012006521225
7.0,0.05499976500868797
8.0,0.054553862661123276
9.0,0.0541052520275116
10.0,0.05366472527384758
11.0,0.05324060469865799
12.0,0.052829984575510025
13.0,0.05243488401174545
14.0,0.05204109102487564
15.0,0.05164480209350586
16.0,0.05124460905790329
18.0,0.050477925688028336
20.0,0.0497385635972023
22.0,0.0490000881254673
24.0,0.04824663698673248
26.0,0.04751390591263771
28.0,0.04680492728948593
30.0,0.04612289369106293
32.0,0.045452896505594254
36.0,0.044221702963113785
40.0,0.04305405542254448
44.0,0.041932154446840286
48.0,0.040783751755952835
52.0,0.03968008980154991
56.0,0.03858783096075058
60.0,0.037543319165706635
64.0,0.03656403347849846
72.0,0.03466833010315895
80.0,0.03286399692296982
88.0,0.031336523592472076
96.0,0.03006460703909397
104.0,0.02893078327178955
112.0,0.027708789333701134
120.0,0.02627805434167385
128.0,0.02501150593161583
144.0,0.023232921957969666
160.0,0.022194167599081993
176.0,0.020893165841698647
192.0,0.019299134612083435
208.0,0.017969945445656776
224.0,0.01711839810013771
240.0,0.016164883971214294
256.0,0.015200160443782806
288.0,0.013510193675756454
320.0,0.012012531980872154
352.0,0.011149099096655846
384.0,0.010586032643914223
416.0,0.01064269058406353
448.0,0.011915464885532856
480.0,0.01281704567372799
512.0,0.013467781245708466
576.0,0.013298905454576015
640.0,0.013280988670885563
704.0,0.010884898714721203
768.0,0.00913162250071764
832.0,0.008232383988797665
896.0,0.005668008234351873
960.0,0.004396780859678984
1024.0,0.004000650253146887
1152.0,0.005416732281446457
1280.0,0.009306228719651699
1408.0,0.007629475090652704
1536.0,0.0035605847369879484
1664.0,0.002505168318748474
1792.0,0.004121025558561087
1920.0,0.0015601211925968528
2048.0,-0.0008267869125120342
2304.0,-0.004342364147305489
2560.0,-0.008579429239034653
2816.0,-0.00785120204091072
3072.0,-0.005060364026576281
3328.0,-0.01167120411992073
3584.0,-0.013951173052191734
3840.0,-0.012593838386237621
4096.0,-0.014610007405281067
4608.0,-0.007837173528969288
5120.0,-0.007133656647056341
5632.0,-0.004563166759908199
6144.0,0.0020738604944199324
6656.0,0.005299302749335766
7168.0,0.007864183746278286
7680.0,0.008153446950018406
8192.0,0.006232444662600756
9216.0,-0.003135518403723836
10240.0,-0.0007800075109116733
11264.0,-0.00940769910812378
12288.0,-0.004270586185157299
13312.0,0.008203870616853237
14336.0,-0.003580583957955241
end
