version,3.0
numOfCh,1
type,point
parent_name,2-cuts
ch_type,1_1
kcount,1
numberNandB,1
brightnessNandB,1
carpet pos,0
pc,0
Time (ms),CH1 Auto-Correlation
1.0,0.03363822028040886
2.0,0.033430084586143494
3.0,0.033223386853933334
4.0,0.03302378207445145
5.0,0.03282726928591728
6.0,0.03263157233595848
7.0,0.03243568167090416
8.0,0.03223910555243492
9.0,0.03204407915472984
10.0,0.03185812756419182
11.0,0.03167400136590004
12.0,0.03149288520216942
13.0,0.031312331557273865
14.0,0.031133975833654404
15.0,0.030958449468016624
16.0,0.03078356198966503
18.0,0.030439181253314018
20.0,0.03010363131761551
22.0,0.029777975752949715
24.0,0.0294609684497118
26.0,0.029148606583476067
28.0,0.028841441497206688
30.0,0.028534675016999245
32.0,0.02822553738951683
36.0,0.027652228251099586
40.0,0.027142304927110672
44.0,0.02665700763463974
48.0,0.02618977054953575
52.0,0.02576214261353016
56.0,0.02533944696187973
60.0,0.02491130866110325
64.0,0.024470221251249313
72.0,0.023578139021992683
80.0,0.0227110106498003
88.0,0.02184305712580681
96.0,0.021008877083659172
104.0,0.02022109180688858
112.0,0.019460691139101982
120.0,0.018743691965937614
128.0,0.018136944621801376
144.0,0.017149684950709343
160.0,0.016304636374115944
176.0,0.015710346400737762
192.0,0.01530640572309494
208.0,0.015048078261315823
224.0,0.014748865738511086
240.0,0.014277065172791481
256.0,0.013676650822162628
288.0,0.012853048741817474
320.0,0.012165420688688755
352.0,0.011700966395437717
384.0,0.01150787528604269
416.0,0.010776616632938385
448.0,0.009829957038164139
480.0,0.0087873674929142
512.0,0.007561652921140194
576.0,0.006554624065756798
640.0,0.005921066273003817
704.0,0.00551284896209836
768.0,0.004428116139024496
832.0,0.002484377007931471
896.0,0.0016152329044416547
960.0,0.00225467630662024
1024.0,0.0027112632524222136
1152.0,0.0023768851533532143
1280.0,0.001039130031131208
1408.0,-0.0007625134312547743
1536.0,-0.004601647611707449
1664.0,-0.005236298777163029
1792.0,-0.0049742283299565315
1920.0,-0.003850833512842655
2048.0,6.785730511182919e-05
2304.0,0.003555092727765441
2560.0,0.004355859011411667
2816.0,0.0006743357516825199
3072.0,-0.0030086420010775328
3328.0,-0.0018617426976561546
3584.0,-0.0008440550300292671
3840.0,-0.0031611069571226835
4096.0,-0.003533332608640194
4608.0,-0.0011563614243641496
5120.0,-0.0014449317241087556
5632.0,-0.002129640430212021
6144.0,0.00020662906172219664
6656.0,-0.000727337843272835
7168.0,0.0013150108279660344
7680.0,-0.006360928062349558
8192.0,-0.005778071004897356
9216.0,-0.008038750849664211
10240.0,-0.0072286189533770084
11264.0,0.0008845572010613978
12288.0,0.0026196083053946495
13312.0,0.013175331056118011
14336.0,0.00923796184360981
end
