version,3.0
numOfCh,1
type,point
parent_name,2-cuts
ch_type,1_1
kcount,1
numberNandB,1
brightnessNandB,1
carpet pos,0
pc,0
Time (ms),CH1 Auto-Correlation
1.0,0.05942292511463165
2.0,0.05901734530925751
3.0,0.05862261354923248
4.0,0.058237116783857346
5.0,0.05786287784576416
6.0,0.057488467544317245
7.0,0.057117901742458344
8.0,0.0567542128264904
9.0,0.05639219284057617
10.0,0.05603441223502159
11.0,0.055687207728624344
12.0,0.05534924939274788
13.0,0.055011287331581116
14.0,0.05468077212572098
15.0,0.05435556918382645
16.0,0.05402614548802376
18.0,0.05338672176003456
20.0,0.05275098234415054
22.0,0.052125100046396255
24.0,0.05153042823076248
26.0,0.0509663000702858
28.0,0.050431251525878906
30.0,0.04992322251200676
32.0,0.04944011569023132
36.0,0.048490893095731735
40.0,0.047563400119543076
44.0,0.046649493277072906
48.0,0.045747432857751846
52.0,0.04478546604514122
56.0,0.04377739876508713
60.0,0.04277002811431885
64.0,0.041825588792562485
72.0,0.04016699641942978
80.0,0.038650643080472946
88.0,0.03725555166602135
96.0,0.03586353361606598
104.0,0.03455140069127083
112.0,0.03342512249946594
120.0,0.03240782395005226
128.0,0.03131726756691933
144.0,0.028904905542731285
160.0,0.026801759377121925
176.0,0.0251004695892334
192.0,0.023407353088259697
208.0,0.021778656169772148
224.0,0.02045169472694397
240.0,0.01938489079475403
256.0,0.01858622021973133
288.0,0.01642957143485546
320.0,0.014368334785103798
352.0,0.013317393139004707
384.0,0.012083041481673717
416.0,0.010954971425235271
448.0,0.010273925960063934
480.0,0.009848074987530708
512.0,0.008812321349978447
576.0,0.00723373144865036
640.0,0.006748787127435207
704.0,0.0059255086816847324
768.0,0.006261024158447981
832.0,0.005885002203285694
896.0,0.0053247069008648396
960.0,0.004951667506247759
1024.0,0.004784720949828625
1152.0,0.0006688148714601994
1280.0,-0.0022790401708334684
1408.0,-0.005791075062006712
1536.0,-0.006007922347635031
1664.0,-0.002151968190446496
1792.0,-0.0015755798667669296
1920.0,-0.004798869602382183
2048.0,-0.007598671596497297
2304.0,-0.009341854602098465
2560.0,-0.007267894223332405
2816.0,-0.004428739659488201
3072.0,-0.006332075223326683
3328.0,-0.00631907070055604
3584.0,-0.00048228001105599105
3840.0,0.004446729552000761
4096.0,-8.540969429304823e-05
4608.0,-0.005005124025046825
5120.0,0.0005504388827830553
5632.0,0.0008234821143560112
6144.0,-0.0032520173117518425
6656.0,0.00033170217648148537
7168.0,-0.0064187669195234776
7680.0,0.002167308237403631
8192.0,-0.007939880713820457
9216.0,-0.004804934840649366
10240.0,0.0007108825375325978
11264.0,-0.0019894116558134556
12288.0,0.021489543840289116
13312.0,0.02307133376598358
14336.0,-0.014287009835243225
end
