version,3.0
numOfCh,1
type,point
parent_name,2-cuts
ch_type,1_1
kcount,1
numberNandB,1
brightnessNandB,1
carpet pos,0
pc,0
Time (ms),CH1 Auto-Correlation
1.0,0.034586817026138306
2.0,0.034397196024656296
3.0,0.034211233258247375
4.0,0.03402838110923767
5.0,0.03384925052523613
6.0,0.03367488458752632
7.0,0.033509161323308945
8.0,0.03335035964846611
9.0,0.03319660201668739
10.0,0.03304034844040871
11.0,0.03288679197430611
12.0,0.03273382782936096
13.0,0.03258621692657471
14.0,0.032442525029182434
15.0,0.03230311721563339
16.0,0.03216565400362015
18.0,0.03189790993928909
20.0,0.0316421240568161
22.0,0.03139549493789673
24.0,0.031151549890637398
26.0,0.030923139303922653
28.0,0.030700819566845894
30.0,0.030476247891783714
32.0,0.030253393575549126
36.0,0.029798120260238647
40.0,0.02934378571808338
44.0,0.028907375410199165
48.0,0.02848515287041664
52.0,0.028082726523280144
56.0,0.02766680158674717
60.0,0.02727014571428299
64.0,0.026885855942964554
72.0,0.026150818914175034
80.0,0.025407379493117332
88.0,0.02467891201376915
96.0,0.024023016914725304
104.0,0.023451633751392365
112.0,0.02287496253848076
120.0,0.02232849784195423
128.0,0.021810520440340042
144.0,0.020755959674715996
160.0,0.019704066216945648
176.0,0.018724532797932625
192.0,0.01767086423933506
208.0,0.016705261543393135
224.0,0.015816213563084602
240.0,0.015085947699844837
256.0,0.014511766843497753
288.0,0.01354278065264225
320.0,0.012519510462880135
352.0,0.011364124715328217
384.0,0.010442492552101612
416.0,0.00993338692933321
448.0,0.009559117257595062
480.0,0.009087858721613884
512.0,0.008806323632597923
576.0,0.00872964970767498
640.0,0.008446721360087395
704.0,0.007820110768079758
768.0,0.006606444716453552
832.0,0.00604281248524785
896.0,0.005538556259125471
960.0,0.005483886227011681
1024.0,0.005174955818802118
1152.0,0.004397701472043991
1280.0,0.00266491761431098
1408.0,0.0015136690344661474
1536.0,0.0014495858922600746
1664.0,0.0017692992696538568
1792.0,0.0018086661584675312
1920.0,0.0011175390100106597
2048.0,-0.00018505984917283058
2304.0,0.0009489115327596664
2560.0,0.0017435065237805247
2816.0,0.004040863364934921
3072.0,0.004316328093409538
3328.0,0.005470925942063332
3584.0,0.005030506290495396
3840.0,3.337228190503083e-05
4096.0,-0.0018472373485565186
4608.0,-0.0037041613832116127
5120.0,-0.007081643678247929
5632.0,-0.009189887903630733
6144.0,-0.007996328175067902
6656.0,-0.00971389003098011
7168.0,-0.012297190725803375
7680.0,-0.007724123075604439
8192.0,-0.006523631047457457
9216.0,0.0004613910859916359
10240.0,-0.005279741249978542
11264.0,-0.004896791651844978
12288.0,0.018939515575766563
13312.0,-0.0007933786837384105
14336.0,-0.00014623181778006256
end
