version,3.0
numOfCh,1
type,point
parent_name,2-cuts
ch_type,1_1
kcount,1
numberNandB,1
brightnessNandB,1
carpet pos,0
pc,0
Time (ms),CH1 Auto-Correlation
1.0,0.0772378146648407
2.0,0.07671351730823517
3.0,0.0761861577630043
4.0,0.07566024363040924
5.0,0.07515368610620499
6.0,0.07466255873441696
7.0,0.07418601214885712
8.0,0.07371658831834793
9.0,0.07325214892625809
10.0,0.07278439402580261
11.0,0.07234156876802444
12.0,0.07190534472465515
13.0,0.07147155702114105
14.0,0.07104381173849106
15.0,0.07061633467674255
16.0,0.07018391042947769
18.0,0.06934744119644165
20.0,0.06854544579982758
22.0,0.06776124238967896
24.0,0.06696662306785583
26.0,0.06620891392230988
28.0,0.06548722833395004
30.0,0.06476613879203796
32.0,0.06405463814735413
36.0,0.06264322251081467
40.0,0.06121864542365074
44.0,0.0597911961376667
48.0,0.058450888842344284
52.0,0.05717796832323074
56.0,0.055970557034015656
60.0,0.054846759885549545
64.0,0.05379364266991615
72.0,0.05187661573290825
80.0,0.05017637833952904
88.0,0.04865206405520439
96.0,0.04711358621716499
104.0,0.04564915969967842
112.0,0.04449381306767464
120.0,0.0434127077460289
128.0,0.042141277343034744
144.0,0.03945891931653023
160.0,0.036829713732004166
176.0,0.034768857061862946
192.0,0.032677847892045975
208.0,0.030720630660653114
224.0,0.029102548956871033
240.0,0.027130773290991783
256.0,0.024979859590530396
288.0,0.022425523027777672
320.0,0.02013096585869789
352.0,0.018231086432933807
384.0,0.0169187244027853
416.0,0.016378754749894142
448.0,0.015638893470168114
480.0,0.014538128860294819
512.0,0.01271016988903284
576.0,0.010885047726333141
640.0,0.008225259371101856
704.0,0.007769378367811441
768.0,0.00733706122264266
832.0,0.00962755922228098
896.0,0.012185339815914631
960.0,0.01375789288431406
1024.0,0.01436565164476633
1152.0,0.01221699733287096
1280.0,0.004293519072234631
1408.0,-0.0018942971946671605
1536.0,-0.007043001241981983
1664.0,-0.010639642365276814
1792.0,-0.012049760669469833
1920.0,-0.007200330961495638
2048.0,0.00022021708718966693
2304.0,-0.0006451813969761133
2560.0,-0.007176821120083332
2816.0,-0.013572998344898224
3072.0,-0.004545208998024464
3328.0,0.0003025817568413913
3584.0,0.0022804627660661936
3840.0,-0.0019687802996486425
4096.0,0.0013228183379396796
4608.0,-0.010389450937509537
5120.0,-0.020725836977362633
5632.0,-0.02182081714272499
6144.0,-0.013973231427371502
6656.0,-0.004141106270253658
7168.0,0.00412882212549448
7680.0,0.013412369415163994
8192.0,0.0019233358325436711
9216.0,-0.0043637421913445
10240.0,0.009169838391244411
11264.0,0.02111239917576313
12288.0,0.0003945930511690676
13312.0,-0.020099716261029243
14336.0,-0.00451613450422883
end
