version,3.0
numOfCh,1
type,point
parent_name,2-cuts
ch_type,1_1
kcount,1
numberNandB,1
brightnessNandB,1
carpet pos,0
pc,0
Time (ms),CH1 Auto-Correlation
1.0,0.0766993835568428
2.0,0.0762985497713089
3.0,0.07590077817440033
4.0,0.07550934702157974
5.0,0.0751216933131218
6.0,0.07473134994506836
7.0,0.0743369534611702
8.0,0.07393183559179306
9.0,0.07353558391332626
10.0,0.07314804196357727
11.0,0.07275755703449249
12.0,0.07236816734075546
13.0,0.07197802513837814
14.0,0.07159218192100525
15.0,0.0712122917175293
16.0,0.07083941996097565
18.0,0.07011265307664871
20.0,0.06939525157213211
22.0,0.06870362907648087
24.0,0.06803523749113083
26.0,0.06739823520183563
28.0,0.06676653027534485
30.0,0.06613954901695251
32.0,0.06554128974676132
36.0,0.0644298568367958
40.0,0.06335104256868362
44.0,0.062314052134752274
48.0,0.0613199807703495
52.0,0.06043893098831177
56.0,0.05959217622876167
60.0,0.05879829823970795
64.0,0.0580197311937809
72.0,0.05660279467701912
80.0,0.055218689143657684
88.0,0.053910788148641586
96.0,0.05254969373345375
104.0,0.05132177844643593
112.0,0.050133585929870605
120.0,0.04895010218024254
128.0,0.04782763868570328
144.0,0.04564474895596504
160.0,0.04360198229551315
176.0,0.041859645396471024
192.0,0.04022929072380066
208.0,0.038827743381261826
224.0,0.03755991905927658
240.0,0.036246027797460556
256.0,0.034693293273448944
288.0,0.032017916440963745
320.0,0.030104773119091988
352.0,0.027488553896546364
384.0,0.025113895535469055
416.0,0.023523231968283653
448.0,0.02257617749273777
480.0,0.021525893360376358
512.0,0.020144259557127953
576.0,0.015980558469891548
640.0,0.014216783456504345
704.0,0.014104697853326797
768.0,0.013547559268772602
832.0,0.013919802382588387
896.0,0.014357431791722775
960.0,0.014364921487867832
1024.0,0.0124583188444376
1152.0,0.006199665367603302
1280.0,0.005312531720846891
1408.0,0.004254832398146391
1536.0,-0.0010461962083354592
1664.0,-0.0023482588585466146
1792.0,-0.0032723231706768274
1920.0,-0.0025740317068994045
2048.0,-0.0008180296281352639
2304.0,-0.0011443558614701033
2560.0,-0.011864479631185532
2816.0,-0.013687625527381897
3072.0,-0.014420479536056519
3328.0,-0.006315722595900297
3584.0,-0.0050296299159526825
3840.0,-0.011675948277115822
4096.0,-0.007980799302458763
4608.0,-0.005470454692840576
5120.0,-0.010473634116351604
5632.0,-0.009906426072120667
6144.0,-0.014566986821591854
6656.0,-0.0077443779446184635
7168.0,-0.012897772714495659
7680.0,-0.01349006686359644
8192.0,-0.011738419532775879
9216.0,-0.0007537597557529807
10240.0,0.019646789878606796
11264.0,0.03189076483249664
12288.0,-0.00045731832506135106
13312.0,-0.02280634082853794
14336.0,-0.012243821285665035
end
