version,3.0
numOfCh,1
type,point
parent_name,2-cuts
ch_type,1_1
kcount,1
numberNandB,1
brightnessNandB,1
carpet pos,0
pc,0
Time (ms),CH1 Auto-Correlation
1.0,0.07964926213026047
2.0,0.07911928743124008
3.0,0.07860208302736282
4.0,0.07808437943458557
5.0,0.07757345587015152
6.0,0.07708057761192322
7.0,0.07657763361930847
8.0,0.0760834738612175
9.0,0.07559779286384583
10.0,0.0750996544957161
11.0,0.07459379732608795
12.0,0.07410994172096252
13.0,0.07362961769104004
14.0,0.07316113263368607
15.0,0.07267801463603973
16.0,0.07220011949539185
18.0,0.07125157862901688
20.0,0.0703103095293045
22.0,0.06941068172454834
24.0,0.0685543566942215
26.0,0.06770830601453781
28.0,0.06689005345106125
30.0,0.06606872379779816
32.0,0.06525964289903641
36.0,0.0637250691652298
40.0,0.06234489008784294
44.0,0.061106812208890915
48.0,0.05990308150649071
52.0,0.058753009885549545
56.0,0.05766616761684418
60.0,0.056711602956056595
64.0,0.05581043288111687
72.0,0.054087597876787186
80.0,0.05265713855624199
88.0,0.05161019787192345
96.0,0.05062195658683777
104.0,0.049460843205451965
112.0,0.04814613610506058
120.0,0.04691675305366516
128.0,0.045818962156772614
144.0,0.04397552087903023
160.0,0.042308367788791656
176.0,0.040778011083602905
192.0,0.03934233635663986
208.0,0.03836977481842041
224.0,0.037583865225315094
240.0,0.03648035228252411
256.0,0.03499043360352516
288.0,0.032134585082530975
320.0,0.029949188232421875
352.0,0.02659592591226101
384.0,0.02300914376974106
416.0,0.02106296643614769
448.0,0.020677048712968826
480.0,0.020262693986296654
512.0,0.019839167594909668
576.0,0.01807858981192112
640.0,0.01698123849928379
704.0,0.015345383435487747
768.0,0.013325672596693039
832.0,0.01238527987152338
896.0,0.012262098491191864
960.0,0.010959886014461517
1024.0,0.00872132834047079
1152.0,0.006834095809608698
1280.0,0.008468951098620892
1408.0,0.00909472443163395
1536.0,0.006508497521281242
1664.0,0.00030758563661947846
1792.0,-0.007257448509335518
1920.0,-0.012984604574739933
2048.0,-0.015951057896018028
2304.0,-0.011607269756495953
2560.0,-0.013139351271092892
2816.0,-0.013653470203280449
3072.0,-0.01789878122508526
3328.0,-0.022771218791604042
3584.0,-0.015993375331163406
3840.0,-0.0062055643647909164
4096.0,-0.004902110435068607
4608.0,-0.0077934470027685165
5120.0,-0.002576239174231887
5632.0,0.0020470996387302876
6144.0,-0.011797945946455002
6656.0,-0.01823924109339714
7168.0,-0.01838436909019947
7680.0,-0.009270557202398777
8192.0,0.012810161337256432
9216.0,0.024063952267169952
10240.0,0.024952972307801247
11264.0,0.0015716246562078595
12288.0,-0.023736000061035156
13312.0,-0.02150954119861126
14336.0,-0.009392100386321545
end
