version,3.0
numOfCh,1
type,point
parent_name,2-cuts
ch_type,1_1
kcount,1
numberNandB,1
brightnessNandB,1
carpet pos,0
pc,0
Time (ms),CH1 Auto-Correlation
1.0,0.06956139951944351
2.0,0.06902121752500534
3.0,0.06848613172769547
4.0,0.06796852499246597
5.0,0.0674453005194664
6.0,0.0669277235865593
7.0,0.06641905009746552
8.0,0.06591815501451492
9.0,0.065425805747509
10.0,0.06493601948022842
11.0,0.06446295231580734
12.0,0.06400492787361145
13.0,0.063557930290699
14.0,0.0631166622042656
15.0,0.062684066593647
16.0,0.062253840267658234
18.0,0.06138863041996956
20.0,0.0605626180768013
22.0,0.05978377163410187
24.0,0.05904816836118698
26.0,0.05833457410335541
28.0,0.057631734758615494
30.0,0.056925512850284576
32.0,0.05618298798799515
36.0,0.05462360754609108
40.0,0.05305612087249756
44.0,0.0515330471098423
48.0,0.05008098483085632
52.0,0.04871397092938423
56.0,0.047439612448215485
60.0,0.0462874099612236
64.0,0.04520043730735779
72.0,0.04315067082643509
80.0,0.041238266974687576
88.0,0.039423588663339615
96.0,0.037722501903772354
104.0,0.036035336554050446
112.0,0.03451412916183472
120.0,0.033144060522317886
128.0,0.03195797652006149
144.0,0.029425175860524178
160.0,0.027024250477552414
176.0,0.025504538789391518
192.0,0.024722225964069366
208.0,0.024198420345783234
224.0,0.02422526106238365
240.0,0.024315733462572098
256.0,0.0242434274405241
288.0,0.023486053571105003
320.0,0.02248791605234146
352.0,0.02175460197031498
384.0,0.021119462326169014
416.0,0.02070598490536213
448.0,0.021081343293190002
480.0,0.022039519622921944
512.0,0.02247818186879158
576.0,0.021187927573919296
640.0,0.016388189047574997
704.0,0.014624649658799171
768.0,0.012890273705124855
832.0,0.012619700282812119
896.0,0.013097678311169147
960.0,0.013060311786830425
1024.0,0.012679086066782475
1152.0,0.010617432184517384
1280.0,0.010272885672748089
1408.0,0.012271673418581486
1536.0,0.013108642771840096
1664.0,0.014309492893517017
1792.0,0.01968611218035221
1920.0,0.016119878739118576
2048.0,0.012229153886437416
2304.0,0.013705833815038204
2560.0,0.00621611624956131
2816.0,0.00499260937795043
3072.0,-0.00010781653691083193
3328.0,0.002294881036505103
3584.0,0.004071993753314018
3840.0,0.004504847805947065
4096.0,-0.003209345042705536
4608.0,-0.012881064787507057
5120.0,-0.012032008729875088
5632.0,0.0002968082844745368
6144.0,0.001373912557028234
6656.0,-0.007827396504580975
7168.0,-0.01212003268301487
7680.0,-0.006610917393118143
8192.0,-0.005245059262961149
9216.0,-0.011370436288416386
10240.0,-0.01578872837126255
11264.0,-0.02227332442998886
12288.0,-0.012263253331184387
13312.0,-0.013530556112527847
14336.0,-0.0035149387549608946
end
