version,3.0
numOfCh,1
type,point
parent_name,2-cuts
ch_type,1_1
kcount,1
numberNandB,1
brightnessNandB,1
carpet pos,0
pc,0
Time (ms),CH1 Auto-Correlation
1.0,0.08165667206048965
2.0,0.08108779788017273
3.0,0.08052617311477661
4.0,0.07997462153434753
5.0,0.07943235337734222
6.0,0.07889162003993988
7.0,0.07835095375776291
8.0,0.07782585173845291
9.0,0.07730641216039658
10.0,0.0767965242266655
11.0,0.07627624273300171
12.0,0.07574780285358429
13.0,0.0752142071723938
14.0,0.07468999922275543
15.0,0.07416950166225433
16.0,0.07365204393863678
18.0,0.07259669154882431
20.0,0.07155013829469681
22.0,0.0705108717083931
24.0,0.06950432807207108
26.0,0.06849317997694016
28.0,0.06750807166099548
30.0,0.0665229856967926
32.0,0.06555414199829102
36.0,0.0636175274848938
40.0,0.061635054647922516
44.0,0.05966964364051819
48.0,0.057776812463998795
52.0,0.055962808430194855
56.0,0.05428466573357582
60.0,0.05268459767103195
64.0,0.05117301270365715
72.0,0.048286404460668564
80.0,0.045531198382377625
88.0,0.04300414025783539
96.0,0.040701474994421005
104.0,0.03867111727595329
112.0,0.036822497844696045
120.0,0.035031069070100784
128.0,0.033520620316267014
144.0,0.0311080664396286
160.0,0.028912747278809547
176.0,0.02685265801846981
192.0,0.02508886344730854
208.0,0.023413160815835
224.0,0.021842345595359802
240.0,0.02031770721077919
256.0,0.019330723211169243
288.0,0.018058903515338898
320.0,0.017552414909005165
352.0,0.018627747893333435
384.0,0.02082446776330471
416.0,0.02174692414700985
448.0,0.02177511528134346
480.0,0.0204449649900198
512.0,0.018759939819574356
576.0,0.014611853286623955
640.0,0.009286805056035519
704.0,0.009947849437594414
768.0,0.009713212959468365
832.0,0.006225613411515951
896.0,0.0016398457810282707
960.0,-0.0012381450505927205
1024.0,-0.006713829468935728
1152.0,-0.01147295068949461
1280.0,-0.009764536283910275
1408.0,-0.011972841806709766
1536.0,-0.013904954306781292
1664.0,-0.011770392768085003
1792.0,-0.010092038661241531
1920.0,-0.0072866640985012054
2048.0,-0.0039695315062999725
2304.0,0.0035997023805975914
2560.0,0.008278689347207546
2816.0,0.012491440400481224
3072.0,0.009151877835392952
3328.0,-0.003783418331295252
3584.0,-0.008781759068369865
3840.0,-0.015734365209937096
4096.0,-0.020107291638851166
4608.0,-0.009066559374332428
5120.0,0.0029461178928613663
5632.0,0.010555315762758255
6144.0,0.0053105102851986885
6656.0,-0.0031797958072274923
7168.0,-0.003595189657062292
7680.0,-0.00133584626019001
8192.0,0.005005051381886005
9216.0,-0.006649115588515997
10240.0,-0.00869100634008646
11264.0,-0.006752494722604752
12288.0,-0.011575082316994667
13312.0,-0.007669346407055855
14336.0,0.007729630917310715
end
