version,3.0
numOfCh,1
type,point
parent_name,2-cuts
ch_type,1_1
kcount,1
numberNandB,1
brightnessNandB,1
carpet pos,0
pc,0
Time (ms),CH1 Auto-Correlation
1.0,0.027599457651376724
2.0,0.027403734624385834
3.0,0.027200972661376
4.0,0.0270034521818161
5.0,0.026803167536854744
6.0,0.02660277858376503
7.0,0.026402762159705162
8.0,0.02620668150484562
9.0,0.026016857475042343
10.0,0.025827603414654732
11.0,0.025638481602072716
12.0,0.025452878326177597
13.0,0.025267207995057106
14.0,0.02508191578090191
15.0,0.024898188188672066
16.0,0.0247181449085474
18.0,0.024367941543459892
20.0,0.02403213270008564
22.0,0.023703696206212044
24.0,0.0233880914747715
26.0,0.023088935762643814
28.0,0.022795965895056725
30.0,0.0225108303129673
32.0,0.02222743257880211
36.0,0.02169790491461754
40.0,0.021204974502325058
44.0,0.020725544542074203
48.0,0.020254068076610565
52.0,0.01980089768767357
56.0,0.019344307482242584
60.0,0.018900036811828613
64.0,0.01849164068698883
72.0,0.017738118767738342
80.0,0.01708296313881874
88.0,0.016517063602805138
96.0,0.016004124656319618
104.0,0.015515369363129139
112.0,0.015057217329740524
120.0,0.014690292999148369
128.0,0.014322825707495213
144.0,0.013655807822942734
160.0,0.013301974162459373
176.0,0.013000383973121643
192.0,0.01257548201829195
208.0,0.012004903517663479
224.0,0.011227206327021122
240.0,0.010446462780237198
256.0,0.009627860970795155
288.0,0.008642816916108131
320.0,0.007887881249189377
352.0,0.007072961889207363
384.0,0.006653996184468269
416.0,0.006267853081226349
448.0,0.005753316916525364
480.0,0.005384756252169609
512.0,0.005004717968404293
576.0,0.004103293642401695
640.0,0.0028785557951778173
704.0,0.0022264376748353243
768.0,0.0025989653076976538
832.0,0.0023243308532983065
896.0,0.0011809897841885686
960.0,4.370617898530327e-05
1024.0,-0.001311486936174333
1152.0,-0.0038382927887141705
1280.0,-0.0036076251417398453
1408.0,-0.004313372541218996
1536.0,-0.004819726105779409
1664.0,-0.005097383167594671
1792.0,-0.0046213846653699875
1920.0,-0.0041706133633852005
2048.0,-0.0030067055486142635
2304.0,-0.0021782182157039642
2560.0,-0.0022522355429828167
2816.0,-0.0019401168683543801
3072.0,-0.0032028707209974527
3328.0,-0.00711794150993228
3584.0,-0.007692241109907627
3840.0,-0.006246194243431091
4096.0,-0.003080974565818906
4608.0,0.0015656155301257968
5120.0,0.009203259833157063
5632.0,0.009677733294665813
6144.0,0.004683292005211115
6656.0,0.00018548834486864507
7168.0,-0.0015906356275081635
7680.0,-0.002356712007895112
8192.0,-0.004512174054980278
9216.0,-0.006951681338250637
10240.0,0.005268854089081287
11264.0,0.004617196973413229
12288.0,0.005006738472729921
13312.0,-0.007086778525263071
14336.0,-0.01006858330219984
end
