version,3.0
numOfCh,1
type,point
parent_name,2-cuts
ch_type,1_1
kcount,1
numberNandB,1
brightnessNandB,1
carpet pos,0
pc,0
Time (ms),CH1 Auto-Correlation
1.0,0.09249135106801987
2.0,0.09195390343666077
3.0,0.0914124920964241
4.0,0.09088461101055145
5.0,0.09036582708358765
6.0,0.08985564857721329
7.0,0.08935738354921341
8.0,0.08885800093412399
9.0,0.08835041522979736
10.0,0.08783385157585144
11.0,0.08731651306152344
12.0,0.08680278062820435
13.0,0.08629181981086731
14.0,0.08578111231327057
15.0,0.0852721706032753
16.0,0.08476495742797852
18.0,0.08375566452741623
20.0,0.08275876939296722
22.0,0.08180113881826401
24.0,0.08083382993936539
26.0,0.07986992597579956
28.0,0.0789063349366188
30.0,0.07795247435569763
32.0,0.07705582678318024
36.0,0.0753159373998642
40.0,0.07363133877515793
44.0,0.07196621596813202
48.0,0.0703265592455864
52.0,0.06868019700050354
56.0,0.06702559441328049
60.0,0.06545285135507584
64.0,0.0639725923538208
72.0,0.0613679401576519
80.0,0.05921207368373871
88.0,0.05747510865330696
96.0,0.05597515404224396
104.0,0.054621729999780655
112.0,0.05331578850746155
120.0,0.052075184881687164
128.0,0.0508529394865036
144.0,0.04865637049078941
160.0,0.046901438385248184
176.0,0.04530927538871765
192.0,0.04390685632824898
208.0,0.042968712747097015
224.0,0.04226778820157051
240.0,0.04180465638637543
256.0,0.041362252086400986
288.0,0.041069310158491135
320.0,0.04054205119609833
352.0,0.03842679783701897
384.0,0.034765250980854034
416.0,0.03256092593073845
448.0,0.030896645039319992
480.0,0.02860313095152378
512.0,0.026943910866975784
576.0,0.025656534358859062
640.0,0.024200299754738808
704.0,0.021822651848196983
768.0,0.018107615411281586
832.0,0.01341310329735279
896.0,0.011660085059702396
960.0,0.010080507956445217
1024.0,0.008264345116913319
1152.0,-0.004263199865818024
1280.0,-0.006393421906977892
1408.0,-0.0022017695009708405
1536.0,-0.002465373370796442
1664.0,0.00018560561875347048
1792.0,-0.0019574512261897326
1920.0,-0.0006275883642956614
2048.0,0.003955392632633448
2304.0,0.01008676365017891
2560.0,0.012018959037959576
2816.0,0.008167067542672157
3072.0,0.010508657433092594
3328.0,0.01117046270519495
3584.0,0.01252487488090992
3840.0,0.013461309485137463
4096.0,0.01912108063697815
4608.0,0.012723761610686779
5120.0,0.003864981234073639
5632.0,0.0013916774187237024
6144.0,-0.005432977341115475
6656.0,-0.008379246108233929
7168.0,-0.018859930336475372
7680.0,-0.014200147241353989
8192.0,-0.002894434379413724
9216.0,0.0018418736290186644
10240.0,-0.03575418144464493
11264.0,-0.0341104194521904
12288.0,-0.019136905670166016
13312.0,-0.03699473291635513
14336.0,-0.06432086229324341
end
