version,3.0
numOfCh,1
type,point
parent_name,2-cuts
ch_type,1_1
kcount,1
numberNandB,1
brightnessNandB,1
carpet pos,0
pc,0
Time (ms),CH1 Auto-Correlation
1.0,0.0715155154466629
2.0,0.07098938524723053
3.0,0.07047292590141296
4.0,0.06995730102062225
5.0,0.06944519281387329
6.0,0.06894320249557495
7.0,0.06843645870685577
8.0,0.06793204694986343
9.0,0.06742279976606369
10.0,0.06692138314247131
11.0,0.06642524152994156
12.0,0.06592919677495956
13.0,0.06544031947851181
14.0,0.0649549812078476
15.0,0.06448198854923248
16.0,0.06402689218521118
18.0,0.06313876062631607
20.0,0.062258847057819366
22.0,0.061431884765625
24.0,0.06065460667014122
26.0,0.05990099534392357
28.0,0.05914759635925293
30.0,0.05839146301150322
32.0,0.05764295533299446
36.0,0.056141842156648636
40.0,0.05473652109503746
44.0,0.053432222455739975
48.0,0.0522688589990139
52.0,0.05124903470277786
56.0,0.05030927062034607
60.0,0.04944319650530815
64.0,0.048609409481287
72.0,0.047018516808748245
80.0,0.04549282044172287
88.0,0.0440954752266407
96.0,0.042975835502147675
104.0,0.04205131158232689
112.0,0.04103255644440651
120.0,0.03991202265024185
128.0,0.038811735808849335
144.0,0.03673059865832329
160.0,0.03439522907137871
176.0,0.03133772686123848
192.0,0.02889883890748024
208.0,0.02768058143556118
224.0,0.027068650349974632
240.0,0.02651534043252468
256.0,0.02568541094660759
288.0,0.022753668949007988
320.0,0.01971915364265442
352.0,0.018435396254062653
384.0,0.017282279208302498
416.0,0.01556389406323433
448.0,0.014375679194927216
480.0,0.013774898834526539
512.0,0.013579804450273514
576.0,0.01218563225120306
640.0,0.009533166885375977
704.0,0.006780707277357578
768.0,0.003360225586220622
832.0,-0.0012706194538623095
896.0,-0.0028479848988354206
960.0,-0.004163302946835756
1024.0,-0.005629078950732946
1152.0,-0.004355002660304308
1280.0,-0.0064600021578371525
1408.0,-0.012801147997379303
1536.0,-0.013508477248251438
1664.0,-0.012813901528716087
1792.0,-0.013060888275504112
1920.0,-0.013896537944674492
2048.0,-0.016627229750156403
2304.0,-0.01789727248251438
2560.0,-0.012798125855624676
2816.0,-0.00838572159409523
3072.0,-0.005847632884979248
3328.0,0.005343307740986347
3584.0,0.010944100096821785
3840.0,0.005551006179302931
4096.0,0.003524541622027755
4608.0,0.0013336889678612351
5120.0,-0.001327837584540248
5632.0,0.0016592841129750013
6144.0,-0.0030890796333551407
6656.0,0.00137898582033813
7168.0,0.010527554899454117
7680.0,0.0035680073779076338
8192.0,-0.020235076546669006
9216.0,-0.0036056058015674353
10240.0,0.012640303932130337
11264.0,0.02052093856036663
12288.0,-0.015776613727211952
13312.0,-0.024499909952282906
14336.0,0.0075210146605968475
end
