version,3.0
numOfCh,1
type,point
parent_name,2-cuts
ch_type,1_1
kcount,1
numberNandB,1
brightnessNandB,1
carpet pos,0
pc,0
Time (ms),CH1 Auto-Correlation
1.0,0.0288099218159914
2.0,0.028628012165427208
3.0,0.028446663171052933
4.0,0.028264936059713364
5.0,0.028083231300115585
6.0,0.027902280911803246
7.0,0.02772406116127968
8.0,0.027552049607038498
9.0,0.027380401268601418
10.0,0.0272111464291811
11.0,0.027046775445342064
12.0,0.026881329715251923
13.0,0.02672164887189865
14.0,0.02656164951622486
15.0,0.02641046792268753
16.0,0.02626059763133526
18.0,0.025961387902498245
20.0,0.025668907910585403
22.0,0.02538374997675419
24.0,0.025104448199272156
26.0,0.024824365973472595
28.0,0.02455378882586956
30.0,0.02428683452308178
32.0,0.024014627560973167
36.0,0.023461928591132164
40.0,0.022897915914654732
44.0,0.022351454943418503
48.0,0.021820878610014915
52.0,0.021298253908753395
56.0,0.020815299823880196
60.0,0.020328110083937645
64.0,0.019841210916638374
72.0,0.01901497133076191
80.0,0.018332775682210922
88.0,0.017738716676831245
96.0,0.01716788113117218
104.0,0.016608580946922302
112.0,0.016068480908870697
120.0,0.015565161593258381
128.0,0.015036783181130886
144.0,0.01391586009413004
160.0,0.013003651052713394
176.0,0.012334617786109447
192.0,0.011766954325139523
208.0,0.011253816075623035
224.0,0.010842532850801945
240.0,0.0103868767619133
256.0,0.01001165620982647
288.0,0.009129458107054234
320.0,0.008347968570888042
352.0,0.0074686617590487
384.0,0.006331625860184431
416.0,0.005043848883360624
448.0,0.003928843419998884
480.0,0.0034557597246021032
512.0,0.003084051189944148
576.0,0.0013561781961470842
640.0,-0.0009564411593601108
704.0,-0.00243735290132463
768.0,-0.002393959788605571
832.0,-0.002589462324976921
896.0,-0.003196707693859935
960.0,-0.0042859772220253944
1024.0,-0.004178640432655811
1152.0,-0.0046640378423035145
1280.0,-0.0065108477137982845
1408.0,-0.006415158975869417
1536.0,-0.005873858463019133
1664.0,-0.0040972232818603516
1792.0,-0.004601127002388239
1920.0,-0.0026834607124328613
2048.0,-0.0012646687682718039
2304.0,9.381294512422755e-05
2560.0,-0.0022772708907723427
2816.0,-3.54009862348903e-05
3072.0,0.004132172092795372
3328.0,0.003947662189602852
3584.0,-0.00025904778158292174
3840.0,-0.002570506650954485
4096.0,-0.003864200320094824
4608.0,-0.002242396119982004
5120.0,0.0030854567885398865
5632.0,0.0031220403034240007
6144.0,-0.00037565300590358675
6656.0,0.001315490691922605
7168.0,-0.001034263870678842
7680.0,-0.005593668669462204
8192.0,-0.007598751224577427
9216.0,0.007090564351528883
10240.0,0.0016872052801772952
11264.0,-0.003230964532122016
12288.0,0.0035255607217550278
13312.0,-0.007141790818423033
14336.0,-0.004010320641100407
end
