version,3.0
numOfCh,1
type,point
parent_name,2-cuts
ch_type,1_1
kcount,1
numberNandB,1
brightnessNandB,1
carpet pos,0
pc,0
Time (ms),CH1 Auto-Correlation
1.0,0.042072147130966187
2.0,0.041873473674058914
3.0,0.041676003485918045
4.0,0.04148482158780098
5.0,0.04129636660218239
6.0,0.04110308736562729
7.0,0.040908053517341614
8.0,0.04072152078151703
9.0,0.040539395064115524
10.0,0.040356945246458054
11.0,0.0401776060461998
12.0,0.03999996557831764
13.0,0.039823587983846664
14.0,0.039646487683057785
15.0,0.03947504982352257
16.0,0.039301298558712006
18.0,0.03895621746778488
20.0,0.03861049562692642
22.0,0.038274262100458145
24.0,0.03795090317726135
26.0,0.037641484290361404
28.0,0.03733498230576515
30.0,0.03704799711704254
32.0,0.03677607327699661
36.0,0.03624260425567627
40.0,0.035721272230148315
44.0,0.035205017775297165
48.0,0.03468990698456764
52.0,0.034176331013441086
56.0,0.03367528319358826
60.0,0.03317972272634506
64.0,0.03267563134431839
72.0,0.031772028654813766
80.0,0.03096143901348114
88.0,0.03019341081380844
96.0,0.029433809220790863
104.0,0.028729796409606934
112.0,0.02794475294649601
120.0,0.027098365128040314
128.0,0.02622401714324951
144.0,0.02467907965183258
160.0,0.023612825199961662
176.0,0.022635621950030327
192.0,0.021805690601468086
208.0,0.02137644961476326
224.0,0.021183714270591736
240.0,0.021059030666947365
256.0,0.02077641524374485
288.0,0.019525926560163498
320.0,0.01829640008509159
352.0,0.017227178439497948
384.0,0.015923304483294487
416.0,0.014513214118778706
448.0,0.01337824109941721
480.0,0.012545108795166016
512.0,0.012144100852310658
576.0,0.010586945340037346
640.0,0.009547487832605839
704.0,0.009219546802341938
768.0,0.009406463243067265
832.0,0.009174109436571598
896.0,0.009710686281323433
960.0,0.011140245944261551
1024.0,0.012070235796272755
1152.0,0.009031974710524082
1280.0,0.006292715203016996
1408.0,0.004393226932734251
1536.0,0.004193246364593506
1664.0,0.005484672728925943
1792.0,0.0071817426942288876
1920.0,0.008653927594423294
2048.0,0.009174158796668053
2304.0,0.009031539782881737
2560.0,0.008504299446940422
2816.0,0.009639831259846687
3072.0,0.004846506752073765
3328.0,-0.0025839461013674736
3584.0,-0.0057799057103693485
3840.0,-0.0072420509532094
4096.0,-0.008634312078356743
4608.0,-0.012895368039608002
5120.0,-0.010521040298044682
5632.0,-0.0066465940326452255
6144.0,-0.009398207068443298
6656.0,-0.013315331190824509
7168.0,-0.014284924603998661
7680.0,-0.011853688396513462
8192.0,-0.0034523839130997658
9216.0,-0.0033758908975869417
10240.0,-0.002138030482456088
11264.0,0.0065301102586090565
12288.0,0.003667789977043867
13312.0,0.004292025696486235
14336.0,0.0038657127879559994
end
