version,3.0
numOfCh,1
type,point
parent_name,2-cuts
ch_type,1_1
kcount,1
numberNandB,1
brightnessNandB,1
carpet pos,0
pc,0
Time (ms),CH1 Auto-Correlation
1.0,0.06244160979986191
2.0,0.06200510635972023
3.0,0.06157122552394867
4.0,0.0611443854868412
5.0,0.06072281301021576
6.0,0.06030638515949249
7.0,0.05989142879843712
8.0,0.0594763308763504
9.0,0.05905839428305626
10.0,0.05863902345299721
11.0,0.05822531878948212
12.0,0.05781912803649902
13.0,0.05741482228040695
14.0,0.05701352655887604
15.0,0.05662180855870247
16.0,0.05623902380466461
18.0,0.055496085435152054
20.0,0.054788947105407715
22.0,0.05411718785762787
24.0,0.053482141345739365
26.0,0.05284509435296059
28.0,0.0522104874253273
30.0,0.05159946531057358
32.0,0.051027219742536545
36.0,0.04993994161486626
40.0,0.04887041449546814
44.0,0.047836944460868835
48.0,0.046816661953926086
52.0,0.04583827778697014
56.0,0.044885601848363876
60.0,0.043967679142951965
64.0,0.04308605566620827
72.0,0.041562989354133606
80.0,0.04014841094613075
88.0,0.03874347731471062
96.0,0.03737034648656845
104.0,0.03595726564526558
112.0,0.034601595252752304
120.0,0.03334629163146019
128.0,0.03222892805933952
144.0,0.0301273912191391
160.0,0.028269635513424873
176.0,0.026770716533064842
192.0,0.025219297036528587
208.0,0.023457372561097145
224.0,0.021752338856458664
240.0,0.02034721150994301
256.0,0.01933552511036396
288.0,0.01749172806739807
320.0,0.015449249185621738
352.0,0.012818480841815472
384.0,0.010176216252148151
416.0,0.007780052255839109
448.0,0.005546624772250652
480.0,0.003991341218352318
512.0,0.003214678494259715
576.0,-0.00024944005417637527
640.0,-0.0030114634428173304
704.0,-0.004340442828834057
768.0,-0.004472995176911354
832.0,-0.00400531617924571
896.0,-0.0035563716664910316
960.0,-0.0036576385609805584
1024.0,-0.004192087333649397
1152.0,-0.0030855988152325153
1280.0,-0.0022459926549345255
1408.0,0.0031732474453747272
1536.0,0.010508372448384762
1664.0,0.008364684879779816
1792.0,0.003367821453139186
1920.0,-0.0012251557782292366
2048.0,-0.005325159057974815
2304.0,-0.0053509073331952095
2560.0,0.0006891715456731617
2816.0,0.002432754496112466
3072.0,0.010106256231665611
3328.0,0.01199097279459238
3584.0,0.0038332161493599415
3840.0,0.0024036315735429525
4096.0,0.0003725893038790673
4608.0,-0.001467841095291078
5120.0,0.001919809845276177
5632.0,0.0007253562798723578
6144.0,0.001219138503074646
6656.0,-0.00455098133534193
7168.0,-0.009752451442182064
7680.0,-9.711836173664778e-05
8192.0,0.0043890997767448425
9216.0,-0.00637477170675993
10240.0,-0.01698421873152256
11264.0,0.004803429823368788
12288.0,-0.009040053933858871
13312.0,-0.015126611106097698
14336.0,0.013758569955825806
end
