version,3.0
numOfCh,1
type,point
parent_name,2-cuts
ch_type,1_1
kcount,1
numberNandB,1
brightnessNandB,1
carpet pos,0
pc,0
Time (ms),CH1 Auto-Correlation
1.0,0.03321905434131622
2.0,0.033022668212652206
3.0,0.03282846510410309
4.0,0.03263404592871666
5.0,0.03244970738887787
6.0,0.03227059170603752
7.0,0.03209846466779709
8.0,0.03193052113056183
9.0,0.03176378458738327
10.0,0.03160405531525612
11.0,0.03144463524222374
12.0,0.03128063306212425
13.0,0.031119296327233315
14.0,0.03096274845302105
15.0,0.030803263187408447
16.0,0.030648063868284225
18.0,0.030340222641825676
20.0,0.030038882046937943
22.0,0.02974695712327957
24.0,0.029459532350301743
26.0,0.029183652251958847
28.0,0.028907427564263344
30.0,0.028628643602132797
32.0,0.02835785411298275
36.0,0.027837147936224937
40.0,0.02730303443968296
44.0,0.0267722737044096
48.0,0.026267245411872864
52.0,0.025813689455389977
56.0,0.025372497737407684
60.0,0.024925054982304573
64.0,0.024517977610230446
72.0,0.023827923461794853
80.0,0.02317987196147442
88.0,0.022578401491045952
96.0,0.022006168961524963
104.0,0.02142607979476452
112.0,0.020924821496009827
120.0,0.020457470789551735
128.0,0.020037569105625153
144.0,0.019222132861614227
160.0,0.01838398352265358
176.0,0.01743100769817829
192.0,0.016642102971673012
208.0,0.016049467027187347
224.0,0.015450883656740189
240.0,0.0148785300552845
256.0,0.014391452074050903
288.0,0.013509534299373627
320.0,0.012595613487064838
352.0,0.01137817744165659
384.0,0.010445729829370975
416.0,0.009863283485174179
448.0,0.009523957036435604
480.0,0.009160448797047138
512.0,0.008701796643435955
576.0,0.007662552874535322
640.0,0.007113778032362461
704.0,0.00655025290325284
768.0,0.006898397114127874
832.0,0.006914956495165825
896.0,0.006327545735985041
960.0,0.0058179027400910854
1024.0,0.005356176290661097
1152.0,0.0037456213030964136
1280.0,0.00212778034619987
1408.0,0.0008785859099589288
1536.0,0.0008123890729621053
1664.0,-0.00010336987907066941
1792.0,-0.00025363164604641497
1920.0,0.0006759918760508299
2048.0,-0.0020960515830665827
2304.0,-0.003139557084068656
2560.0,-0.003436783328652382
2816.0,-0.0013908881228417158
3072.0,-0.002177477814257145
3328.0,-0.001729040639474988
3584.0,-0.0002718089963309467
3840.0,-0.002179908799007535
4096.0,-0.004597453400492668
4608.0,0.0006185517995618284
5120.0,0.003644074546173215
5632.0,0.0011853891192004085
6144.0,0.0026149414479732513
6656.0,0.0018876510439440608
7168.0,0.0013227263698354363
7680.0,-0.007426934316754341
8192.0,-0.010218664072453976
9216.0,-0.010600523091852665
10240.0,0.0014984715962782502
11264.0,-0.004917882848531008
12288.0,0.00194531527813524
13312.0,-0.0014160431455820799
14336.0,-0.005910428240895271
end
