version,3.0
numOfCh,1
type,point
parent_name,2-cuts
ch_type,1_1
kcount,1
numberNandB,1
brightnessNandB,1
carpet pos,0
pc,0
Time (ms),CH1 Auto-Correlation
1.0,0.024524416774511337
2.0,0.024308400228619576
3.0,0.024099860340356827
4.0,0.02389250136911869
5.0,0.023689186200499535
6.0,0.02348126471042633
7.0,0.023283326998353004
8.0,0.023084599524736404
9.0,0.02288733795285225
10.0,0.022695496678352356
11.0,0.022501477971673012
12.0,0.022308379411697388
13.0,0.02211879752576351
14.0,0.02193210832774639
15.0,0.021745741367340088
16.0,0.02156653068959713
18.0,0.021216990426182747
20.0,0.020879626274108887
22.0,0.020548880100250244
24.0,0.02023305371403694
26.0,0.019921472296118736
28.0,0.01961071416735649
30.0,0.019303996115922928
32.0,0.018994169309735298
36.0,0.018395982682704926
40.0,0.01784050092101097
44.0,0.01733189821243286
48.0,0.01684953272342682
52.0,0.016386061906814575
56.0,0.015921125188469887
60.0,0.015442587435245514
64.0,0.014943895861506462
72.0,0.014042956754565239
80.0,0.013280954211950302
88.0,0.012616965919733047
96.0,0.012062905356287956
104.0,0.011566836386919022
112.0,0.011110430583357811
120.0,0.01061815582215786
128.0,0.01007586158812046
144.0,0.009016849100589752
160.0,0.007921572774648666
176.0,0.007108020130544901
192.0,0.006672110874205828
208.0,0.0062965345568954945
224.0,0.005710534285753965
240.0,0.005214703269302845
256.0,0.004731119144707918
288.0,0.0034149447456002235
320.0,0.0025361692532896996
352.0,0.002215678570792079
384.0,0.0024994947016239166
416.0,0.0031425144989043474
448.0,0.0034356822725385427
480.0,0.0034951886627823114
512.0,0.0031502183992415667
576.0,0.002648595254868269
640.0,0.0020109752658754587
704.0,0.0016277667600661516
768.0,0.0014420512598007917
832.0,0.0010398554150015116
896.0,0.0007943486561998725
960.0,0.001159947831183672
1024.0,0.0018373565981164575
1152.0,0.0003464029578026384
1280.0,-0.0011101207928732038
1408.0,-0.00023529081954620779
1536.0,0.0006764008430764079
1664.0,0.0010327306808903813
1792.0,0.0019868353847414255
1920.0,0.0009543280466459692
2048.0,0.0014443115796893835
2304.0,0.0007456933381035924
2560.0,0.00013056700117886066
2816.0,0.00021643482614308596
3072.0,-0.0003881325537804514
3328.0,-0.00015614289441145957
3584.0,0.0018876442918553948
3840.0,0.002235579304397106
4096.0,-0.0005005343118682504
4608.0,-0.004862404894083738
5120.0,-0.006371877156198025
5632.0,-0.001656829030252993
6144.0,-0.0014248322695493698
6656.0,-0.0020188724156469107
7168.0,-0.003156464546918869
7680.0,-0.001643717521801591
8192.0,-0.001823404454626143
9216.0,-0.00014875332999508828
10240.0,0.002396476687863469
11264.0,-0.0031366776674985886
12288.0,0.0034432311076670885
13312.0,0.003403676673769951
14336.0,0.002117448952049017
end
