version,3.0
numOfCh,1
type,point
parent_name,2-cuts
ch_type,1_1
kcount,1
numberNandB,1
brightnessNandB,1
carpet pos,0
pc,0
Time (ms),CH1 Auto-Correlation
1.0,0.06293312460184097
2.0,0.06246389076113701
3.0,0.062014367431402206
4.0,0.06156105548143387
5.0,0.06111861765384674
6.0,0.06067637354135513
7.0,0.06024373695254326
8.0,0.0598088875412941
9.0,0.059374187141656876
10.0,0.05893171206116676
11.0,0.05849326774477959
12.0,0.05806376412510872
13.0,0.057627201080322266
14.0,0.0571979284286499
15.0,0.056765366345644
16.0,0.05632733553647995
18.0,0.05548161640763283
20.0,0.05468953400850296
22.0,0.05394437909126282
24.0,0.05323085933923721
26.0,0.05254223942756653
28.0,0.05187886580824852
30.0,0.05124419555068016
32.0,0.05063601955771446
36.0,0.04942474514245987
40.0,0.04826228320598602
44.0,0.04711996391415596
48.0,0.04605324566364288
52.0,0.04506760090589523
56.0,0.04414927214384079
60.0,0.043270666152238846
64.0,0.0424293577671051
72.0,0.04084064066410065
80.0,0.03925009444355965
88.0,0.03777647390961647
96.0,0.03641596809029579
104.0,0.03502582013607025
112.0,0.033648837357759476
120.0,0.03235137090086937
128.0,0.031201699748635292
144.0,0.02937011606991291
160.0,0.027257287874817848
176.0,0.025190068408846855
192.0,0.023309966549277306
208.0,0.02143554762005806
224.0,0.020073890686035156
240.0,0.01909053698182106
256.0,0.01811496913433075
288.0,0.016604924574494362
320.0,0.015719173476099968
352.0,0.015737982466816902
384.0,0.015407150611281395
416.0,0.015001690946519375
448.0,0.014935437589883804
480.0,0.015627894550561905
512.0,0.015926504507660866
576.0,0.015943672508001328
640.0,0.012765754014253616
704.0,0.009268836118280888
768.0,0.0071776024997234344
832.0,0.0064983731135725975
896.0,0.006491690408438444
960.0,0.0068261586129665375
1024.0,0.006776998285204172
1152.0,0.006689197849482298
1280.0,0.005439986474812031
1408.0,0.00502783665433526
1536.0,0.005568483378738165
1664.0,0.0031617647036910057
1792.0,-0.0021393427159637213
1920.0,-0.004427765030413866
2048.0,-0.007149568758904934
2304.0,-0.0016173355979844928
2560.0,-0.006595226936042309
2816.0,-0.00491716293618083
3072.0,-0.012860911898314953
3328.0,-0.01158839650452137
3584.0,-0.009043934755027294
3840.0,-0.0015589323593303561
4096.0,-0.00024324009427800775
4608.0,0.007022569887340069
5120.0,0.007577432785183191
5632.0,0.009333880618214607
6144.0,0.005503549240529537
6656.0,0.010006350465118885
7168.0,0.0014949887990951538
7680.0,-0.007387761492282152
8192.0,-0.00536576472222805
9216.0,-0.012707659043371677
10240.0,-0.0027073179371654987
11264.0,-0.00312886037863791
12288.0,-0.012939737178385258
13312.0,-0.020055506378412247
14336.0,-0.014649861492216587
end
