version,3.0
numOfCh,1
type,point
parent_name,2-cuts
ch_type,1_1
kcount,1
numberNandB,1
brightnessNandB,1
carpet pos,0
pc,0
Time (ms),CH1 Auto-Correlation
1.0,0.07990217208862305
2.0,0.07942309975624084
3.0,0.07894618064165115
4.0,0.07848084717988968
5.0,0.07800746709108353
6.0,0.07755711674690247
7.0,0.0771179124712944
8.0,0.07669012993574142
9.0,0.07625991851091385
10.0,0.0758272111415863
11.0,0.07540750503540039
12.0,0.07500240206718445
13.0,0.07460823655128479
14.0,0.07421639561653137
15.0,0.07382261008024216
16.0,0.07342194020748138
18.0,0.07260684669017792
20.0,0.07181251049041748
22.0,0.07105576992034912
24.0,0.07036729156970978
26.0,0.06971407681703568
28.0,0.06910470873117447
30.0,0.06849320977926254
32.0,0.06789505481719971
36.0,0.06676871329545975
40.0,0.06577979028224945
44.0,0.06490881741046906
48.0,0.06404289603233337
52.0,0.06313319504261017
56.0,0.062156010419130325
60.0,0.06120552495121956
64.0,0.060222309082746506
72.0,0.05838429182767868
80.0,0.05670325085520744
88.0,0.055208660662174225
96.0,0.05376356840133667
104.0,0.05232958495616913
112.0,0.05091499537229538
120.0,0.04961251839995384
128.0,0.04850127920508385
144.0,0.046526022255420685
160.0,0.044966623187065125
176.0,0.04365377128124237
192.0,0.04223025590181351
208.0,0.04066900908946991
224.0,0.03921286761760712
240.0,0.037795472890138626
256.0,0.03643535077571869
288.0,0.03353933244943619
320.0,0.030597655102610588
352.0,0.027202237397432327
384.0,0.024099472910165787
416.0,0.02066640742123127
448.0,0.018799753859639168
480.0,0.01699460856616497
512.0,0.015363284386694431
576.0,0.012367342598736286
640.0,0.010200144723057747
704.0,0.00695168087258935
768.0,0.00380652560852468
832.0,0.00092218944337219
896.0,0.0008916955557651818
960.0,0.0016005504876375198
1024.0,0.002325496869161725
1152.0,0.0034161058720201254
1280.0,0.0028204945847392082
1408.0,-0.0021795856300741434
1536.0,-0.005386724602431059
1664.0,-0.00567612936720252
1792.0,-0.0006778156384825706
1920.0,-0.0017338346224278212
2048.0,-0.004940671380609274
2304.0,-0.0042256079614162445
2560.0,-0.003613753244280815
2816.0,-0.006109562236815691
3072.0,-0.0037074037827551365
3328.0,-6.155543815111741e-05
3584.0,0.014640622772276402
3840.0,0.016053581610322
4096.0,0.0060637230053544044
4608.0,0.0010932263685390353
5120.0,0.0016619032248854637
5632.0,-0.01362115889787674
6144.0,-0.017304720357060432
6656.0,-0.00758454529568553
7168.0,-0.0022686440497636795
7680.0,-0.007130746729671955
8192.0,-0.012681425549089909
9216.0,-0.009367306716740131
10240.0,0.0005529834306798875
11264.0,-0.002616792917251587
12288.0,-0.01492039393633604
13312.0,0.0035131042823195457
14336.0,0.02481549233198166
end
