version,3.0
numOfCh,1
type,point
parent_name,2-cuts
ch_type,1_1
kcount,1
numberNandB,1
brightnessNandB,1
carpet pos,0
pc,0
Time (ms),CH1 Auto-Correlation
1.0,0.08488364517688751
2.0,0.0843309834599495
3.0,0.08378960192203522
4.0,0.08324933797121048
5.0,0.08269735425710678
6.0,0.08214038610458374
7.0,0.08158230781555176
8.0,0.08103416115045547
9.0,0.08049529790878296
10.0,0.07996068894863129
11.0,0.07944241911172867
12.0,0.0789312943816185
13.0,0.07841932773590088
14.0,0.07792127877473831
15.0,0.07741652429103851
16.0,0.07690346240997314
18.0,0.07590634375810623
20.0,0.07493114471435547
22.0,0.07399719208478928
24.0,0.07309793680906296
26.0,0.07220020890235901
28.0,0.07131017744541168
30.0,0.07044579833745956
32.0,0.06958012282848358
36.0,0.06792639940977097
40.0,0.06631425768136978
44.0,0.06477275490760803
48.0,0.0632522851228714
52.0,0.06183423474431038
56.0,0.06046416610479355
60.0,0.059154827147722244
64.0,0.05796609818935394
72.0,0.05573137849569321
80.0,0.05349598452448845
88.0,0.0513204000890255
96.0,0.04924757033586502
104.0,0.04762471839785576
112.0,0.04631699621677399
120.0,0.0451686717569828
128.0,0.04415076971054077
144.0,0.04242745414376259
160.0,0.041354164481163025
176.0,0.040527623146772385
192.0,0.039254385977983475
208.0,0.03773757442831993
224.0,0.03653009980916977
240.0,0.035468123853206635
256.0,0.034538354724645615
288.0,0.03088277578353882
320.0,0.02687111124396324
352.0,0.023249119520187378
384.0,0.019826790317893028
416.0,0.01747840829193592
448.0,0.014498606324195862
480.0,0.011537531390786171
512.0,0.010005890391767025
576.0,0.00815937202423811
640.0,0.005802040919661522
704.0,0.0038143163546919823
768.0,0.0002566934854257852
832.0,-0.004745172336697578
896.0,-0.0074791377410292625
960.0,-0.009111689403653145
1024.0,-0.0121637973934412
1152.0,-0.019016772508621216
1280.0,-0.01806851290166378
1408.0,-0.01718059368431568
1536.0,-0.010765068233013153
1664.0,-0.0007077073096297681
1792.0,0.0014464959967881441
1920.0,0.002590377815067768
2048.0,0.002320544794201851
2304.0,0.006242371629923582
2560.0,0.006889757700264454
2816.0,-0.00398434791713953
3072.0,-0.007619640324264765
3328.0,-0.014784887433052063
3584.0,-0.014019053429365158
3840.0,-0.008708355017006397
4096.0,0.006872337777167559
4608.0,0.013062912039458752
5120.0,0.013447831384837627
5632.0,-0.010325510986149311
6144.0,-0.018615495413541794
6656.0,-0.0009558906895108521
7168.0,0.014152206480503082
7680.0,-0.00011112543143099174
8192.0,-0.00649553956463933
9216.0,0.010694464668631554
10240.0,-0.019795112311840057
11264.0,-0.008164843544363976
12288.0,0.005647772457450628
13312.0,0.005178194493055344
14336.0,-0.004991542082279921
end
