version,3.0
numOfCh,1
type,point
parent_name,2-cuts
ch_type,1_1
kcount,1
numberNandB,1
brightnessNandB,1
carpet pos,0
pc,0
Time (ms),CH1 Auto-Correlation
1.0,0.025401903316378593
2.0,0.02521292306482792
3.0,0.025025127455592155
4.0,0.02483382821083069
5.0,0.024645036086440086
6.0,0.024464648216962814
7.0,0.024291642010211945
8.0,0.024119088426232338
9.0,0.023950736969709396
10.0,0.0237820316106081
11.0,0.023614469915628433
12.0,0.023453643545508385
13.0,0.023292891681194305
14.0,0.023134199902415276
15.0,0.022971173748373985
16.0,0.022812016308307648
18.0,0.022498073056340218
20.0,0.022187739610671997
22.0,0.021870795637369156
24.0,0.021551959216594696
26.0,0.021226048469543457
28.0,0.02090250886976719
30.0,0.020581547170877457
32.0,0.02026626095175743
36.0,0.019658047705888748
40.0,0.01908414624631405
44.0,0.018544143065810204
48.0,0.01801937445998192
52.0,0.017519576475024223
56.0,0.017043989151716232
60.0,0.016563985496759415
64.0,0.0160816740244627
72.0,0.015149356797337532
80.0,0.014321010559797287
88.0,0.013595933094620705
96.0,0.013061970472335815
104.0,0.012629074975848198
112.0,0.012252319604158401
120.0,0.0119436364620924
128.0,0.011698918417096138
144.0,0.011266392655670643
160.0,0.01087864302098751
176.0,0.010365467518568039
192.0,0.00976923480629921
208.0,0.00915761198848486
224.0,0.008630456402897835
240.0,0.008298078551888466
256.0,0.008281712420284748
288.0,0.008325585164129734
320.0,0.007942569442093372
352.0,0.0071527305990457535
384.0,0.00665563577786088
416.0,0.006645667366683483
448.0,0.006222384050488472
480.0,0.005671157035976648
512.0,0.004835058003664017
576.0,0.0039663733914494514
640.0,0.003918259404599667
704.0,0.003938780166208744
768.0,0.0041028945706784725
832.0,0.003901789430528879
896.0,0.004452659282833338
960.0,0.005252854432910681
1024.0,0.006038222927600145
1152.0,0.0071618687361478806
1280.0,0.00597543315961957
1408.0,0.005694045685231686
1536.0,0.005589322652667761
1664.0,0.004875033162534237
1792.0,0.0048521957360208035
1920.0,0.0040374938398599625
2048.0,0.004650370683521032
2304.0,0.005720999091863632
2560.0,0.0036796408239752054
2816.0,0.0030200977344065905
3072.0,0.003007472027093172
3328.0,0.0019348020432516932
3584.0,0.003581973724067211
3840.0,0.003893788205459714
4096.0,0.0028280240949243307
4608.0,-0.00265200505964458
5120.0,-0.00028633244801312685
5632.0,-0.00158586201723665
6144.0,-0.003625841811299324
6656.0,-0.005385793745517731
7168.0,-0.004560567904263735
7680.0,-0.005126150790601969
8192.0,-0.006899092812091112
9216.0,-0.006009875331073999
10240.0,-0.007483243010938168
11264.0,-0.005095214117318392
12288.0,-0.005003942642360926
13312.0,-0.002964411396533251
14336.0,-0.0032080255914479494
end
