version,3.0
numOfCh,1
type,point
parent_name,2-cuts
ch_type,1_1
kcount,1
numberNandB,1
brightnessNandB,1
carpet pos,0
pc,0
Time (ms),CH1 Auto-Correlation
1.0,0.08934202045202255
2.0,0.08887182176113129
3.0,0.08840212225914001
4.0,0.08793482184410095
5.0,0.0874762013554573
6.0,0.08701606094837189
7.0,0.08655762672424316
8.0,0.08611015975475311
9.0,0.08565688878297806
10.0,0.08520050346851349
11.0,0.08475873619318008
12.0,0.08430512249469757
13.0,0.08384225517511368
14.0,0.0833761990070343
15.0,0.0829176977276802
16.0,0.08244981616735458
18.0,0.08151539415121078
20.0,0.080592580139637
22.0,0.07971838861703873
24.0,0.07887402921915054
26.0,0.07804730534553528
28.0,0.07725366204977036
30.0,0.07647799700498581
32.0,0.07571294158697128
36.0,0.07421445101499557
40.0,0.07281117886304855
44.0,0.07148540019989014
48.0,0.07016846537590027
52.0,0.06889234483242035
56.0,0.06770826876163483
60.0,0.06658431142568588
64.0,0.06548357009887695
72.0,0.0634404644370079
80.0,0.06134871020913124
88.0,0.05938487872481346
96.0,0.05764172226190567
104.0,0.056054193526506424
112.0,0.05439272150397301
120.0,0.0526912547647953
128.0,0.05108889192342758
144.0,0.04800711199641228
160.0,0.04511379078030586
176.0,0.042150069028139114
192.0,0.039188407361507416
208.0,0.03658182546496391
224.0,0.03389064967632294
240.0,0.0317314937710762
256.0,0.02965417504310608
288.0,0.025922968983650208
320.0,0.02395266480743885
352.0,0.02247718907892704
384.0,0.02056208811700344
416.0,0.018883081153035164
448.0,0.01799812726676464
480.0,0.018064670264720917
512.0,0.017690422013401985
576.0,0.01629418134689331
640.0,0.012134674936532974
704.0,0.010412918403744698
768.0,0.009169141761958599
832.0,0.008007360622286797
896.0,0.006117815151810646
960.0,0.003752549411728978
1024.0,0.0025455676950514317
1152.0,0.0024764155969023705
1280.0,-0.003441738663241267
1408.0,-0.010350892320275307
1536.0,-0.015548975206911564
1664.0,-0.02104949951171875
1792.0,-0.027229854837059975
1920.0,-0.03280791640281677
2048.0,-0.028352851048111916
2304.0,-0.023065881803631783
2560.0,-0.014946779236197472
2816.0,-0.011303610168397427
3072.0,-0.00016720483836252242
3328.0,0.006900415755808353
3584.0,0.005319992545992136
3840.0,0.01197714451700449
4096.0,0.009758563712239265
4608.0,0.008090219460427761
5120.0,-0.010598941706120968
5632.0,-0.004868284333497286
6144.0,-0.012679053470492363
6656.0,-0.015482591465115547
7168.0,-0.005390964914113283
7680.0,0.01602727174758911
8192.0,0.01468327920883894
9216.0,0.006120208650827408
10240.0,-0.001450939103960991
11264.0,-0.0018124026246368885
12288.0,-0.008666147477924824
13312.0,0.003699651686474681
14336.0,0.004407540429383516
end
