version,3.0
numOfCh,1
type,point
parent_name,2-cuts
ch_type,1_1
kcount,1
numberNandB,1
brightnessNandB,1
carpet pos,0
pc,0
Time (ms),CH1 Auto-Correlation
1.0,0.053544484078884125
2.0,0.05313420668244362
3.0,0.05273304879665375
4.0,0.05234081298112869
5.0,0.05195164680480957
6.0,0.051571883261203766
7.0,0.05119016394019127
8.0,0.05081528052687645
9.0,0.050453633069992065
10.0,0.05009036883711815
11.0,0.049735959619283676
12.0,0.049387190490961075
13.0,0.049038127064704895
14.0,0.0487014576792717
15.0,0.04836836829781532
16.0,0.04803964123129845
18.0,0.047404732555150986
20.0,0.04678211361169815
22.0,0.0461638867855072
24.0,0.04556423798203468
26.0,0.04497753456234932
28.0,0.04440343379974365
30.0,0.04383835941553116
32.0,0.04328998923301697
36.0,0.04221079871058464
40.0,0.04115383327007294
44.0,0.0401613786816597
48.0,0.039244648069143295
52.0,0.03837875649333
56.0,0.03754507005214691
60.0,0.03678951412439346
64.0,0.03606973960995674
72.0,0.03472443297505379
80.0,0.03353437781333923
88.0,0.03254473954439163
96.0,0.03170213848352432
104.0,0.030835621058940887
112.0,0.02992812544107437
120.0,0.028954196721315384
128.0,0.02798815630376339
144.0,0.025988617911934853
160.0,0.02416219562292099
176.0,0.02237137220799923
192.0,0.0206123199313879
208.0,0.019154567271471024
224.0,0.01807749830186367
240.0,0.017231717705726624
256.0,0.01640070602297783
288.0,0.01468567457050085
320.0,0.012904991395771503
352.0,0.011786336079239845
384.0,0.01146959699690342
416.0,0.010905186645686626
448.0,0.009254002012312412
480.0,0.009129157289862633
512.0,0.009225263260304928
576.0,0.008257150650024414
640.0,0.007354835979640484
704.0,0.006274109240621328
768.0,0.0053651402704417706
832.0,0.005733842495828867
896.0,0.004955013748258352
960.0,0.0039055838715285063
1024.0,0.00261631328612566
1152.0,0.0033638128079473972
1280.0,0.003132951445877552
1408.0,0.003940741531550884
1536.0,0.005647670477628708
1664.0,0.0057230303063988686
1792.0,0.0010296243708580732
1920.0,-0.0012571741826832294
2048.0,-0.002444646554067731
2304.0,-0.0035493511240929365
2560.0,-0.0035439918283373117
2816.0,-0.002666464075446129
3072.0,-0.001052236300893128
3328.0,-0.002394424518570304
3584.0,-0.00993332453072071
3840.0,-0.007737280335277319
4096.0,-0.00528216827660799
4608.0,0.00230734352953732
5120.0,-0.0033068193588405848
5632.0,-0.007664678618311882
6144.0,0.006162729114294052
6656.0,0.00462712999433279
7168.0,0.001441775937564671
7680.0,0.007283484563231468
8192.0,0.0001197658566525206
9216.0,0.0014435143675655127
10240.0,-0.003427985357120633
11264.0,-0.015832724049687386
12288.0,-0.02021273598074913
13312.0,-0.0025981280487030745
14336.0,-0.010289590805768967
end
