version,3.0
numOfCh,1
type,point
parent_name,2-cuts
ch_type,1_1
kcount,1
numberNandB,1
brightnessNandB,1
carpet pos,0
pc,0
Time (ms),CH1 Auto-Correlation
1.0,0.035634398460388184
2.0,0.03543628007173538
3.0,0.03524427488446236
4.0,0.03505660966038704
5.0,0.034871410578489304
6.0,0.03468873351812363
7.0,0.03450779989361763
8.0,0.034320417791604996
9.0,0.034135591238737106
10.0,0.03395017981529236
11.0,0.03377055004239082
12.0,0.033597007393836975
13.0,0.03342672064900398
14.0,0.03325774893164635
15.0,0.03308985009789467
16.0,0.03292953222990036
18.0,0.03261828050017357
20.0,0.03231608122587204
22.0,0.03202380612492561
24.0,0.031743843108415604
26.0,0.03147256374359131
28.0,0.031193116679787636
30.0,0.030901474878191948
32.0,0.03061176836490631
36.0,0.030069421976804733
40.0,0.02953219600021839
44.0,0.029004588723182678
48.0,0.028500908985733986
52.0,0.028007114306092262
56.0,0.027523387223482132
60.0,0.027034200727939606
64.0,0.02656543254852295
72.0,0.025702625513076782
80.0,0.02489793859422207
88.0,0.02413746528327465
96.0,0.023390844464302063
104.0,0.022690290585160255
112.0,0.02206086553633213
120.0,0.021504370495676994
128.0,0.02092197723686695
144.0,0.019789233803749084
160.0,0.018757252022624016
176.0,0.017812643200159073
192.0,0.016914548352360725
208.0,0.016030941158533096
224.0,0.015271265059709549
240.0,0.014698387123644352
256.0,0.014070289209485054
288.0,0.013160081580281258
320.0,0.01266557164490223
352.0,0.012459851801395416
384.0,0.012484273873269558
416.0,0.012580299749970436
448.0,0.012667184695601463
480.0,0.012937862426042557
512.0,0.013422119431197643
576.0,0.01366609800606966
640.0,0.013168109580874443
704.0,0.012555856257677078
768.0,0.01219964399933815
832.0,0.01239523570984602
896.0,0.012225907295942307
960.0,0.011522878892719746
1024.0,0.009686624631285667
1152.0,0.007463952526450157
1280.0,0.008381231687963009
1408.0,0.010282257571816444
1536.0,0.010342161171138287
1664.0,0.00944723840802908
1792.0,0.008594748564064503
1920.0,0.00721314363181591
2048.0,0.004045463167130947
2304.0,0.0016459928592666984
2560.0,0.0008024785201996565
2816.0,-0.0011673071421682835
3072.0,-0.0010911454446613789
3328.0,0.0007980450172908604
3584.0,0.0008941348060034215
3840.0,1.9735540263354778e-05
4096.0,0.002249449957162142
4608.0,0.0021857747342437506
5120.0,0.005289451684802771
5632.0,0.005345821380615234
6144.0,0.0010947675909847021
6656.0,-0.0012369118630886078
7168.0,-0.004416716750711203
7680.0,-0.007987024262547493
8192.0,-0.010434986092150211
9216.0,-0.01125084888190031
10240.0,-0.009019039571285248
11264.0,-0.009554020129144192
12288.0,-0.012497644871473312
13312.0,-0.01731238141655922
14336.0,-0.018819596618413925
end
