version,3.0
numOfCh,1
type,point
parent_name,dirty_50dot0-0dot01
ch_type,1_1
kcount,1
numberNandB,1
brightnessNandB,1
carpet pos,0
pc,0
Time (ms),CH1 Auto-Correlation
1.0,0.37041381001472473
2.0,0.369157999753952
3.0,0.36852046847343445
4.0,0.36777448654174805
5.0,0.3671359419822693
6.0,0.3667372763156891
7.0,0.36637163162231445
8.0,0.36582842469215393
9.0,0.3652907609939575
10.0,0.3648117780685425
11.0,0.3642636239528656
12.0,0.3637405335903168
13.0,0.36338239908218384
14.0,0.3628411591053009
15.0,0.3623655438423157
16.0,0.3618939220905304
18.0,0.3611062169075012
20.0,0.36009079217910767
22.0,0.3591615557670593
24.0,0.3582044839859009
26.0,0.3572879433631897
28.0,0.356269896030426
30.0,0.3553192913532257
32.0,0.35417938232421875
36.0,0.35232266783714294
40.0,0.3505110442638397
44.0,0.34854960441589355
48.0,0.34690022468566895
52.0,0.3451375663280487
56.0,0.3434455990791321
60.0,0.3417092263698578
64.0,0.34004873037338257
72.0,0.33660298585891724
80.0,0.3334721028804779
88.0,0.3306195139884949
96.0,0.32791388034820557
104.0,0.32493463158607483
112.0,0.3220064342021942
120.0,0.3188675045967102
128.0,0.3157448470592499
144.0,0.3098835349082947
160.0,0.303860068321228
176.0,0.29779136180877686
192.0,0.2918664515018463
208.0,0.2864440679550171
224.0,0.2813316583633423
240.0,0.27640044689178467
256.0,0.2717209458351135
288.0,0.26255202293395996
320.0,0.254604697227478
352.0,0.24625547230243683
384.0,0.23807600140571594
416.0,0.23042818903923035
448.0,0.22297103703022003
480.0,0.21571458876132965
512.0,0.20838391780853271
576.0,0.19402341544628143
640.0,0.18881331384181976
704.0,0.18659396469593048
768.0,0.18840448558330536
832.0,0.1953585147857666
896.0,0.19709238409996033
960.0,0.19365862011909485
1024.0,0.19016358256340027
1152.0,0.1800321489572525
1280.0,0.16310523450374603
1408.0,0.14080418646335602
1536.0,0.12277491390705109
1664.0,0.11427727341651917
1792.0,0.10990000516176224
1920.0,0.11174953728914261
2048.0,0.12271430343389511
2304.0,0.11298107355833054
2560.0,0.06115657463669777
2816.0,0.004140689503401518
3072.0,-0.02494570054113865
3328.0,-0.04518210515379906
3584.0,-0.05640708655118942
3840.0,-0.06008068844676018
4096.0,-0.051791176199913025
4608.0,-0.03031304106116295
5120.0,-0.063970185816288
5632.0,-0.06453880667686462
6144.0,-0.058426808565855026
6656.0,-0.035875629633665085
7168.0,-0.03842988237738609
7680.0,-0.04677671194076538
8192.0,-0.05693404749035835
9216.0,-0.09858625382184982
10240.0,-0.17438077926635742
11264.0,-0.20173418521881104
12288.0,-0.1820274144411087
13312.0,-0.07499949634075165
14336.0,-0.011725399643182755
end
