version,3.0
numOfCh,1
type,point
parent_name,dirty_50dot0-0dot01
ch_type,1_1
kcount,1
numberNandB,1
brightnessNandB,1
carpet pos,0
pc,0
Time (ms),CH1 Auto-Correlation
1.0,0.3102339208126068
2.0,0.3089594542980194
3.0,0.30846792459487915
4.0,0.3079732060432434
5.0,0.3072887659072876
6.0,0.3067680597305298
7.0,0.30654019117355347
8.0,0.3058937191963196
9.0,0.30547869205474854
10.0,0.3049977123737335
11.0,0.3046128749847412
12.0,0.30404558777809143
13.0,0.3037143647670746
14.0,0.30333411693573
15.0,0.3028935194015503
16.0,0.30250808596611023
18.0,0.3016231656074524
20.0,0.30073729157447815
22.0,0.29987654089927673
24.0,0.2989861071109772
26.0,0.298142671585083
28.0,0.2972922623157501
30.0,0.2965617775917053
32.0,0.29585370421409607
36.0,0.2942638099193573
40.0,0.2924851179122925
44.0,0.2907958924770355
48.0,0.28909650444984436
52.0,0.28740087151527405
56.0,0.2857557237148285
60.0,0.2841717302799225
64.0,0.28272131085395813
72.0,0.27947044372558594
80.0,0.2761874198913574
88.0,0.2730593681335449
96.0,0.27026039361953735
104.0,0.26762655377388
112.0,0.2650303542613983
120.0,0.2621850073337555
128.0,0.2595232129096985
144.0,0.2541363835334778
160.0,0.2491946667432785
176.0,0.24489733576774597
192.0,0.24065405130386353
208.0,0.23639753460884094
224.0,0.23171643912792206
240.0,0.22719135880470276
256.0,0.2222643345594406
288.0,0.21389058232307434
320.0,0.20687848329544067
352.0,0.20103707909584045
384.0,0.19752272963523865
416.0,0.19396257400512695
448.0,0.18790321052074432
480.0,0.18125422298908234
512.0,0.17219869792461395
576.0,0.1599113643169403
640.0,0.15301120281219482
704.0,0.14443181455135345
768.0,0.13373494148254395
832.0,0.1278296411037445
896.0,0.1249813660979271
960.0,0.12485481798648834
1024.0,0.12687668204307556
1152.0,0.12485095113515854
1280.0,0.11968205124139786
1408.0,0.12621784210205078
1536.0,0.13514718413352966
1664.0,0.1425022929906845
1792.0,0.15111759305000305
1920.0,0.16142672300338745
2048.0,0.16551487147808075
2304.0,0.14316321909427643
2560.0,0.11765651404857635
2816.0,0.08596065640449524
3072.0,0.06419850885868073
3328.0,0.04195235297083855
3584.0,0.04994150996208191
3840.0,0.04362908750772476
4096.0,0.05972976237535477
4608.0,0.013134117238223553
5120.0,0.004294380079954863
5632.0,-0.02790120244026184
6144.0,-0.047650597989559174
6656.0,-0.038755618035793304
7168.0,-0.05386876314878464
7680.0,-0.09230003505945206
8192.0,-0.11346951872110367
9216.0,-0.12362629175186157
10240.0,-0.14416144788265228
11264.0,-0.2118431031703949
12288.0,-0.2526218593120575
13312.0,-0.28118690848350525
14336.0,-0.2565218210220337
end
