version,3.0
numOfCh,1
type,point
parent_name,dirty_50dot0-0dot01
ch_type,1_1
kcount,1
numberNandB,1
brightnessNandB,1
carpet pos,0
pc,0
Time (ms),CH1 Auto-Correlation
1.0,0.4381162226200104
2.0,0.4370705485343933
3.0,0.4363310635089874
4.0,0.4356505870819092
5.0,0.4351399540901184
6.0,0.43458956480026245
7.0,0.43402424454689026
8.0,0.4335225820541382
9.0,0.4330085813999176
10.0,0.43253642320632935
11.0,0.4319871664047241
12.0,0.4315378963947296
13.0,0.4310780167579651
14.0,0.43053150177001953
15.0,0.4299547076225281
16.0,0.42946910858154297
18.0,0.4283957779407501
20.0,0.42735710740089417
22.0,0.42639800906181335
24.0,0.4252651333808899
26.0,0.4244280457496643
28.0,0.4235289990901947
30.0,0.42262980341911316
32.0,0.421736478805542
36.0,0.4200053811073303
40.0,0.4182628095149994
44.0,0.4163929224014282
48.0,0.41457298398017883
52.0,0.412858784198761
56.0,0.4109657108783722
60.0,0.4092940390110016
64.0,0.4075157940387726
72.0,0.40386322140693665
80.0,0.4005618691444397
88.0,0.39731231331825256
96.0,0.3939047157764435
104.0,0.3907626271247864
112.0,0.38765597343444824
120.0,0.38487735390663147
128.0,0.3821675777435303
144.0,0.37688928842544556
160.0,0.3723895847797394
176.0,0.3684310019016266
192.0,0.36295875906944275
208.0,0.35727062821388245
224.0,0.35162362456321716
240.0,0.34621676802635193
256.0,0.34077996015548706
288.0,0.3307690918445587
320.0,0.3235335648059845
352.0,0.3149029016494751
384.0,0.30624648928642273
416.0,0.29636216163635254
448.0,0.28717735409736633
480.0,0.2810075581073761
512.0,0.27539145946502686
576.0,0.25887346267700195
640.0,0.24151799082756042
704.0,0.22736738622188568
768.0,0.2067798376083374
832.0,0.1855177879333496
896.0,0.17309798300266266
960.0,0.16229678690433502
1024.0,0.15216755867004395
1152.0,0.13172300159931183
1280.0,0.10876238346099854
1408.0,0.08362355083227158
1536.0,0.06266374886035919
1664.0,0.03673090785741806
1792.0,0.005502466578036547
1920.0,-0.022693781182169914
2048.0,-0.04351463168859482
2304.0,-0.07969670742750168
2560.0,-0.10559096187353134
2816.0,-0.11374998092651367
3072.0,-0.139879047870636
3328.0,-0.13899517059326172
3584.0,-0.15101826190948486
3840.0,-0.151920348405838
4096.0,-0.13215774297714233
4608.0,-0.06310579180717468
5120.0,0.02379084937274456
5632.0,0.12037859857082367
6144.0,0.15118975937366486
6656.0,0.1081327497959137
7168.0,0.0256649199873209
7680.0,-0.12350872904062271
8192.0,-0.205041766166687
9216.0,-0.21849681437015533
10240.0,-0.24589991569519043
11264.0,-0.06706009805202484
12288.0,0.10713621973991394
13312.0,0.20655108988285065
14336.0,0.19530612230300903
end
