version,3.0
numOfCh,1
type,point
parent_name,dirty_50dot0-0dot01
ch_type,1_1
kcount,1
numberNandB,1
brightnessNandB,1
carpet pos,0
pc,0
Time (ms),CH1 Auto-Correlation
1.0,0.12541542947292328
2.0,0.12360645830631256
3.0,0.12260226160287857
4.0,0.12203804403543472
5.0,0.1213424950838089
6.0,0.12138786166906357
7.0,0.12092678993940353
8.0,0.12061334401369095
9.0,0.1201179102063179
10.0,0.12010667473077774
11.0,0.11990417540073395
12.0,0.11979980766773224
13.0,0.11958582699298859
14.0,0.11924444884061813
15.0,0.11894374340772629
16.0,0.11857020109891891
18.0,0.11818274855613708
20.0,0.11784201115369797
22.0,0.11735899746417999
24.0,0.11696511507034302
26.0,0.11652147769927979
28.0,0.11595644056797028
30.0,0.11523567140102386
32.0,0.11465338617563248
36.0,0.11397919058799744
40.0,0.11289658397436142
44.0,0.1120646521449089
48.0,0.11102691292762756
52.0,0.11010695993900299
56.0,0.10892759263515472
60.0,0.10803544521331787
64.0,0.10703860968351364
72.0,0.10463420301675797
80.0,0.10226963460445404
88.0,0.09995832294225693
96.0,0.09796489775180817
104.0,0.0955410972237587
112.0,0.09364866465330124
120.0,0.09187517315149307
128.0,0.0900564193725586
144.0,0.08668473362922668
160.0,0.08349461108446121
176.0,0.08083649724721909
192.0,0.07834021747112274
208.0,0.0759069100022316
224.0,0.07372830808162689
240.0,0.07164570689201355
256.0,0.06949929893016815
288.0,0.06554977595806122
320.0,0.06068753823637962
352.0,0.05619080364704132
384.0,0.05277661234140396
416.0,0.05014028400182724
448.0,0.04839955270290375
480.0,0.047732144594192505
512.0,0.04757029190659523
576.0,0.04913013428449631
640.0,0.05299421772360802
704.0,0.054104048758745193
768.0,0.0497233085334301
832.0,0.042998362332582474
896.0,0.039573028683662415
960.0,0.03783915564417839
1024.0,0.03318217396736145
1152.0,0.025942353531718254
1280.0,0.023674460127949715
1408.0,0.025836747139692307
1536.0,0.017355898395180702
1664.0,0.012954911217093468
1792.0,0.0064118909649550915
1920.0,0.0038390604313462973
2048.0,0.0015233282465487719
2304.0,-0.0018939475994557142
2560.0,-0.004197622649371624
2816.0,-0.00527728907763958
3072.0,-0.005949167534708977
3328.0,-0.0051112850196659565
3584.0,-0.00426931818947196
3840.0,-0.003645802615210414
4096.0,-6.187832332216203e-05
4608.0,0.0016803441103547812
5120.0,0.002067887457087636
5632.0,0.006607617251574993
6144.0,-0.0009222103399224579
6656.0,-0.005616778042167425
7168.0,-0.00923740491271019
7680.0,-0.013793080113828182
8192.0,-0.016157977283000946
9216.0,-0.01975090615451336
10240.0,-0.024252548813819885
11264.0,-0.0287838913500309
12288.0,-0.03889026492834091
13312.0,-0.05331674590706825
14336.0,-0.07106894999742508
end
