version,3.0
numOfCh,1
type,point
parent_name,dirty_50dot0-0dot01
ch_type,1_1
kcount,1
numberNandB,1
brightnessNandB,1
carpet pos,0
pc,0
Time (ms),CH1 Auto-Correlation
1.0,0.18286524713039398
2.0,0.1810445785522461
3.0,0.18033722043037415
4.0,0.1795949637889862
5.0,0.17903083562850952
6.0,0.17863385379314423
7.0,0.17819125950336456
8.0,0.17788416147232056
9.0,0.17763495445251465
10.0,0.17715150117874146
11.0,0.17693732678890228
12.0,0.17669278383255005
13.0,0.1765792816877365
14.0,0.17631296813488007
15.0,0.1761174350976944
16.0,0.17572571337223053
18.0,0.1754932701587677
20.0,0.17487551271915436
22.0,0.17445097863674164
24.0,0.1740739941596985
26.0,0.1735883504152298
28.0,0.17306819558143616
30.0,0.17237038910388947
32.0,0.171821728348732
36.0,0.17067311704158783
40.0,0.16954828798770905
44.0,0.16835904121398926
48.0,0.16730311512947083
52.0,0.16638776659965515
56.0,0.16561990976333618
60.0,0.16461513936519623
64.0,0.16390423476696014
72.0,0.16254401206970215
80.0,0.16080661118030548
88.0,0.15937158465385437
96.0,0.158078134059906
104.0,0.15635666251182556
112.0,0.15501099824905396
120.0,0.1532842367887497
128.0,0.1511535793542862
144.0,0.1471739113330841
160.0,0.14295561611652374
176.0,0.13862787187099457
192.0,0.13406746089458466
208.0,0.12962529063224792
224.0,0.1252942681312561
240.0,0.12099284678697586
256.0,0.11703556030988693
288.0,0.1108824759721756
320.0,0.10532411187887192
352.0,0.09979531913995743
384.0,0.09507262706756592
416.0,0.09198321402072906
448.0,0.08812820166349411
480.0,0.0821259617805481
512.0,0.07549522072076797
576.0,0.06430991739034653
640.0,0.05421839654445648
704.0,0.045783527195453644
768.0,0.042685236781835556
832.0,0.04206223413348198
896.0,0.04317929223179817
960.0,0.04183055832982063
1024.0,0.04072144255042076
1152.0,0.03497961908578873
1280.0,0.033370982855558395
1408.0,0.03583690896630287
1536.0,0.04338712617754936
1664.0,0.05116947740316391
1792.0,0.053847119212150574
1920.0,0.04820932447910309
2048.0,0.03394221141934395
2304.0,-0.00586714455857873
2560.0,-0.032362695783376694
2816.0,-0.04020049422979355
3072.0,-0.040193822234869
3328.0,-0.0380135215818882
3584.0,-0.0354207381606102
3840.0,-0.03213200718164444
4096.0,-0.030864741653203964
4608.0,-0.029478223994374275
5120.0,-0.02302873507142067
5632.0,-0.020859554409980774
6144.0,-0.023408178240060806
6656.0,-0.025562088936567307
7168.0,-0.02485254593193531
7680.0,-0.022271426394581795
8192.0,-0.012274625711143017
9216.0,-0.0030101544689387083
10240.0,0.0008226327481679618
11264.0,-0.028044601902365685
12288.0,-0.027629535645246506
13312.0,0.0029872716404497623
14336.0,0.022755201905965805
end
