version,3.0
numOfCh,1
type,point
parent_name,dirty_50dot0-0dot01
ch_type,1_1
kcount,1
numberNandB,1
brightnessNandB,1
carpet pos,0
pc,0
Time (ms),CH1 Auto-Correlation
1.0,0.3334099352359772
2.0,0.3325764238834381
3.0,0.3319794237613678
4.0,0.3315112888813019
5.0,0.3311740756034851
6.0,0.33072972297668457
7.0,0.3303409218788147
8.0,0.3299984335899353
9.0,0.329623818397522
10.0,0.32915449142456055
11.0,0.32876619696617126
12.0,0.32843512296676636
13.0,0.32812708616256714
14.0,0.3277432322502136
15.0,0.32737433910369873
16.0,0.32708004117012024
18.0,0.3263660669326782
20.0,0.32564350962638855
22.0,0.32487672567367554
24.0,0.32413333654403687
26.0,0.3234323561191559
28.0,0.32255780696868896
30.0,0.3218264579772949
32.0,0.3210931420326233
36.0,0.31953027844429016
40.0,0.3180493116378784
44.0,0.31636905670166016
48.0,0.31491395831108093
52.0,0.31355684995651245
56.0,0.3120974600315094
60.0,0.31068381667137146
64.0,0.309177041053772
72.0,0.30657079815864563
80.0,0.3039722442626953
88.0,0.3014804422855377
96.0,0.2992972731590271
104.0,0.2972096800804138
112.0,0.29519960284233093
120.0,0.29331061244010925
128.0,0.2916114926338196
144.0,0.2883433699607849
160.0,0.28466132283210754
176.0,0.28038331866264343
192.0,0.27541762590408325
208.0,0.2703564763069153
224.0,0.2654531002044678
240.0,0.2601282000541687
256.0,0.25528547167778015
288.0,0.24900738894939423
320.0,0.24380280077457428
352.0,0.23837801814079285
384.0,0.23132744431495667
416.0,0.2241685837507248
448.0,0.21765746176242828
480.0,0.21136119961738586
512.0,0.20449937880039215
576.0,0.1884656697511673
640.0,0.17519782483577728
704.0,0.16312485933303833
768.0,0.15280340611934662
832.0,0.14271806180477142
896.0,0.13218043744564056
960.0,0.12302624434232712
1024.0,0.11270737648010254
1152.0,0.09470577538013458
1280.0,0.077892005443573
1408.0,0.0636281669139862
1536.0,0.05362847447395325
1664.0,0.04912572354078293
1792.0,0.04729866608977318
1920.0,0.04974250867962837
2048.0,0.05046844854950905
2304.0,0.04188288748264313
2560.0,0.04284343868494034
2816.0,0.03814524784684181
3072.0,0.026502691209316254
3328.0,-0.002647612476721406
3584.0,-0.040545277297496796
3840.0,-0.09315159916877747
4096.0,-0.1456305831670761
4608.0,-0.1571156531572342
5120.0,-0.12544691562652588
5632.0,-0.08420421183109283
6144.0,-0.07330989837646484
6656.0,-0.08713348954916
7168.0,-0.1037583202123642
7680.0,-0.10456183552742004
8192.0,-0.09351181983947754
9216.0,0.0028479655738919973
10240.0,-0.0011363342637196183
11264.0,-0.006418351083993912
12288.0,0.07427070289850235
13312.0,0.06366826593875885
14336.0,-0.02634502947330475
end
