version,3.0
numOfCh,1
type,point
parent_name,dirty_50dot0-0dot01
ch_type,1_1
kcount,1
numberNandB,1
brightnessNandB,1
carpet pos,0
pc,0
Time (ms),CH1 Auto-Correlation
1.0,0.19308580458164215
2.0,0.19138874113559723
3.0,0.19043298065662384
4.0,0.18990467488765717
5.0,0.18932947516441345
6.0,0.18850646913051605
7.0,0.18823596835136414
8.0,0.1877882033586502
9.0,0.18743617832660675
10.0,0.1867990791797638
11.0,0.18670280277729034
12.0,0.1861688196659088
13.0,0.18587681651115417
14.0,0.18510310351848602
15.0,0.18464893102645874
16.0,0.18411655724048615
18.0,0.1830938309431076
20.0,0.18227867782115936
22.0,0.18140891194343567
24.0,0.1803116500377655
26.0,0.17943952977657318
28.0,0.17828486859798431
30.0,0.1776321679353714
32.0,0.17679233849048615
36.0,0.17525193095207214
40.0,0.17381353676319122
44.0,0.17260964214801788
48.0,0.1713157445192337
52.0,0.17007775604724884
56.0,0.16906362771987915
60.0,0.16824819147586823
64.0,0.16762347519397736
72.0,0.16572467982769012
80.0,0.16364827752113342
88.0,0.16097678244113922
96.0,0.15811756253242493
104.0,0.15556298196315765
112.0,0.15315040946006775
120.0,0.15068449079990387
128.0,0.14874082803726196
144.0,0.14622259140014648
160.0,0.14303185045719147
176.0,0.14003628492355347
192.0,0.13723497092723846
208.0,0.13520921766757965
224.0,0.13315249979496002
240.0,0.13018572330474854
256.0,0.12578487396240234
288.0,0.11949585378170013
320.0,0.11735544353723526
352.0,0.1163988932967186
384.0,0.11315345019102097
416.0,0.11106956750154495
448.0,0.10594216734170914
480.0,0.09773827344179153
512.0,0.08975817263126373
576.0,0.07688920199871063
640.0,0.06211477145552635
704.0,0.05038706213235855
768.0,0.04442131891846657
832.0,0.04396379366517067
896.0,0.04655426740646362
960.0,0.0471327118575573
1024.0,0.043466195464134216
1152.0,0.035651274025440216
1280.0,0.03478699550032616
1408.0,0.03810214623808861
1536.0,0.026498684659600258
1664.0,0.009798964485526085
1792.0,-0.004470513202250004
1920.0,-0.01770397648215294
2048.0,-0.03253379091620445
2304.0,-0.04121219366788864
2560.0,-0.0416068360209465
2816.0,-0.03987608104944229
3072.0,-0.03794265538454056
3328.0,-0.03624716028571129
3584.0,-0.03325355052947998
3840.0,-0.0277950968593359
4096.0,-0.023527074605226517
4608.0,-0.018780210986733437
5120.0,-0.01669163815677166
5632.0,-0.018843553960323334
6144.0,-0.019847897812724113
6656.0,-0.022690214216709137
7168.0,-0.023021535947918892
7680.0,0.028890857473015785
8192.0,0.07387802749872208
9216.0,0.0457511767745018
10240.0,-0.047996602952480316
11264.0,-0.07743845134973526
12288.0,-0.06811069697141647
13312.0,-0.02651049569249153
14336.0,0.025934407487511635
end
