version,3.0
numOfCh,1
type,point
parent_name,dirty_50dot0-0dot01
ch_type,1_1
kcount,1
numberNandB,1
brightnessNandB,1
carpet pos,0
pc,0
Time (ms),CH1 Auto-Correlation
1.0,0.46010351181030273
2.0,0.4587104916572571
3.0,0.45785194635391235
4.0,0.4573705792427063
5.0,0.4568236172199249
6.0,0.45615509152412415
7.0,0.455630898475647
8.0,0.4553481340408325
9.0,0.45472899079322815
10.0,0.45419034361839294
11.0,0.4538959860801697
12.0,0.45330891013145447
13.0,0.4529966711997986
14.0,0.4527492821216583
15.0,0.452349990606308
16.0,0.4519912898540497
18.0,0.4512546956539154
20.0,0.45079660415649414
22.0,0.45011550188064575
24.0,0.4493451714515686
26.0,0.44868898391723633
28.0,0.4481780230998993
30.0,0.44726285338401794
32.0,0.4465460777282715
36.0,0.44515955448150635
40.0,0.44386520981788635
44.0,0.4426305890083313
48.0,0.44155818223953247
52.0,0.4405658543109894
56.0,0.4394732713699341
60.0,0.438516765832901
64.0,0.43778160214424133
72.0,0.43609070777893066
80.0,0.43404245376586914
88.0,0.43149450421333313
96.0,0.42915600538253784
104.0,0.42679864168167114
112.0,0.42487457394599915
120.0,0.423115074634552
128.0,0.42150095105171204
144.0,0.41843554377555847
160.0,0.4157271087169647
176.0,0.4122711718082428
192.0,0.4084911048412323
208.0,0.40516337752342224
224.0,0.40209269523620605
240.0,0.3991641700267792
256.0,0.3959638476371765
288.0,0.3885754942893982
320.0,0.3831264078617096
352.0,0.37713584303855896
384.0,0.37034717202186584
416.0,0.3626050651073456
448.0,0.3551219403743744
480.0,0.34682226181030273
512.0,0.3383257985115051
576.0,0.33059173822402954
640.0,0.3204060196876526
704.0,0.3091530203819275
768.0,0.30275827646255493
832.0,0.29621055722236633
896.0,0.28675010800361633
960.0,0.2758941948413849
1024.0,0.26792794466018677
1152.0,0.2567785680294037
1280.0,0.2436320036649704
1408.0,0.21879515051841736
1536.0,0.19695118069648743
1664.0,0.15670178830623627
1792.0,0.1199631467461586
1920.0,0.09458912163972855
2048.0,0.07620251178741455
2304.0,0.04204031452536583
2560.0,5.4609583457931876e-05
2816.0,-0.05226863920688629
3072.0,-0.10348544269800186
3328.0,-0.14567960798740387
3584.0,-0.16953064501285553
3840.0,-0.18450261652469635
4096.0,-0.19518689811229706
4608.0,-0.21012215316295624
5120.0,-0.22333039343357086
5632.0,-0.2366885542869568
6144.0,-0.23721115291118622
6656.0,-0.21090179681777954
7168.0,-0.17814543843269348
7680.0,-0.12480954825878143
8192.0,-0.0854615718126297
9216.0,0.02987055294215679
10240.0,0.0956496000289917
11264.0,0.10820943117141724
12288.0,0.10509416460990906
13312.0,0.10024956613779068
14336.0,0.09336033463478088
end
