version,3.0
numOfCh,1
type,point
parent_name,dirty_50dot0-0dot01
ch_type,1_1
kcount,1
numberNandB,1
brightnessNandB,1
carpet pos,0
pc,0
Time (ms),CH1 Auto-Correlation
1.0,0.0980086550116539
2.0,0.0962582379579544
3.0,0.09540320187807083
4.0,0.09472518414258957
5.0,0.09433433413505554
6.0,0.09401518106460571
7.0,0.09354079514741898
8.0,0.09358598291873932
9.0,0.09312139451503754
10.0,0.09295286983251572
11.0,0.09275057166814804
12.0,0.09245520085096359
13.0,0.092362180352211
14.0,0.09224451333284378
15.0,0.09196602553129196
16.0,0.09177708625793457
18.0,0.0914941132068634
20.0,0.09129441529512405
22.0,0.09103462845087051
24.0,0.09064844250679016
26.0,0.09039050340652466
28.0,0.09031867235898972
30.0,0.08977963775396347
32.0,0.08939161151647568
36.0,0.0888904333114624
40.0,0.08829924464225769
44.0,0.08766224980354309
48.0,0.08701132237911224
52.0,0.08653077483177185
56.0,0.08577820658683777
60.0,0.08516676723957062
64.0,0.08466749638319016
72.0,0.08353511244058609
80.0,0.08203252404928207
88.0,0.08073274046182632
96.0,0.07947435230016708
104.0,0.0787092000246048
112.0,0.07757000625133514
120.0,0.07644124329090118
128.0,0.07554522156715393
144.0,0.0735117718577385
160.0,0.07144852727651596
176.0,0.06957211345434189
192.0,0.06779399514198303
208.0,0.06594886630773544
224.0,0.06428559869527817
240.0,0.0625615194439888
256.0,0.0611538365483284
288.0,0.05796419829130173
320.0,0.05497991293668747
352.0,0.05249004811048508
384.0,0.05060971900820732
416.0,0.04835750162601471
448.0,0.04638724774122238
480.0,0.04449884220957756
512.0,0.0423743762075901
576.0,0.03889863193035126
640.0,0.03357752412557602
704.0,0.027933843433856964
768.0,0.02341865748167038
832.0,0.018815960735082626
896.0,0.01586056686937809
960.0,0.012472105212509632
1024.0,0.008637631312012672
1152.0,0.0009323630365543067
1280.0,-0.005700869020074606
1408.0,-0.0083339624106884
1536.0,-0.009996224194765091
1664.0,-0.012411362491548061
1792.0,-0.014111028984189034
1920.0,-0.015385857783257961
2048.0,-0.017028290778398514
2304.0,-0.0185232013463974
2560.0,-0.018493741750717163
2816.0,-0.017538582906126976
3072.0,-0.01519075594842434
3328.0,-0.00912572257220745
3584.0,-0.005164467263966799
3840.0,-0.008067784830927849
4096.0,-0.00579692842438817
4608.0,-0.0077105131931602955
5120.0,-0.00494371447712183
5632.0,-0.01300890650600195
6144.0,-0.016994524747133255
6656.0,-0.018305888399481773
7168.0,-0.01915888488292694
7680.0,-0.020985940471291542
8192.0,-0.01638074778020382
9216.0,0.03579261526465416
10240.0,0.04540226235985756
11264.0,-0.015933748334646225
12288.0,-0.020463433116674423
13312.0,0.005223406944423914
14336.0,-0.009616108611226082
end
