version,3.0
numOfCh,1
type,point
parent_name,dirty_50dot0-0dot01
ch_type,1_1
kcount,1
numberNandB,1
brightnessNandB,1
carpet pos,0
pc,0
Time (ms),CH1 Auto-Correlation
1.0,0.2684815526008606
2.0,0.2672254741191864
3.0,0.2663201689720154
4.0,0.2658354938030243
5.0,0.2654370665550232
6.0,0.2650028169155121
7.0,0.26464104652404785
8.0,0.264198899269104
9.0,0.26399901509284973
10.0,0.2636418640613556
11.0,0.2632727026939392
12.0,0.26302024722099304
13.0,0.26293277740478516
14.0,0.2625415623188019
15.0,0.26206472516059875
16.0,0.2616504430770874
18.0,0.2610277533531189
20.0,0.260511577129364
22.0,0.2600290775299072
24.0,0.25940972566604614
26.0,0.25885772705078125
28.0,0.2583081126213074
30.0,0.25786250829696655
32.0,0.25729283690452576
36.0,0.25602516531944275
40.0,0.25503674149513245
44.0,0.2540171444416046
48.0,0.2528306543827057
52.0,0.2513633966445923
56.0,0.24999669194221497
60.0,0.24866904318332672
64.0,0.24736261367797852
72.0,0.24489764869213104
80.0,0.24247708916664124
88.0,0.23982176184654236
96.0,0.2371816486120224
104.0,0.2345702201128006
112.0,0.23172807693481445
120.0,0.2292364239692688
128.0,0.22671136260032654
144.0,0.22159156203269958
160.0,0.2164914906024933
176.0,0.21181175112724304
192.0,0.2074744701385498
208.0,0.20298124849796295
224.0,0.19850552082061768
240.0,0.19413161277770996
256.0,0.1892939954996109
288.0,0.18168696761131287
320.0,0.17521660029888153
352.0,0.16848081350326538
384.0,0.1630193293094635
416.0,0.15958279371261597
448.0,0.1556413769721985
480.0,0.15169845521450043
512.0,0.14897045493125916
576.0,0.1455317884683609
640.0,0.14006949961185455
704.0,0.13449259102344513
768.0,0.1321101188659668
832.0,0.1310945749282837
896.0,0.13149172067642212
960.0,0.1353258192539215
1024.0,0.14071562886238098
1152.0,0.13948751986026764
1280.0,0.12493722140789032
1408.0,0.11190493404865265
1536.0,0.09491569548845291
1664.0,0.08095668256282806
1792.0,0.07580965757369995
1920.0,0.07229842990636826
2048.0,0.06944587826728821
2304.0,0.0504889190196991
2560.0,0.049692705273628235
2816.0,0.03390529751777649
3072.0,0.016991890966892242
3328.0,-0.00994018279016018
3584.0,-0.027820514515042305
3840.0,-0.035292964428663254
4096.0,-0.04020706191658974
4608.0,-0.031379275023937225
5120.0,-0.017338482663035393
5632.0,-0.005521469283849001
6144.0,0.0006041601300239563
6656.0,0.0017319123726338148
7168.0,0.025646453723311424
7680.0,0.03190179541707039
8192.0,0.04678288474678993
9216.0,-0.05149666592478752
10240.0,-0.11651924252510071
11264.0,-0.1867215931415558
12288.0,-0.2332802414894104
13312.0,-0.23259125649929047
14336.0,-0.23878562450408936
end
