version,3.0
numOfCh,1
type,point
parent_name,dirty_50dot0-0dot01
ch_type,1_1
kcount,1
numberNandB,1
brightnessNandB,1
carpet pos,0
pc,0
Time (ms),CH1 Auto-Correlation
1.0,0.3460114300251007
2.0,0.34510982036590576
3.0,0.3445097804069519
4.0,0.3440153896808624
5.0,0.3434574604034424
6.0,0.34285151958465576
7.0,0.34244945645332336
8.0,0.34194064140319824
9.0,0.34158164262771606
10.0,0.34108349680900574
11.0,0.3407132923603058
12.0,0.3402111232280731
13.0,0.33974042534828186
14.0,0.339302659034729
15.0,0.3388204574584961
16.0,0.33827781677246094
18.0,0.3373103737831116
20.0,0.33627235889434814
22.0,0.3352907598018646
24.0,0.33423173427581787
26.0,0.33338382840156555
28.0,0.3325013518333435
30.0,0.33164846897125244
32.0,0.33070334792137146
36.0,0.32878929376602173
40.0,0.32695630192756653
44.0,0.3252200484275818
48.0,0.3235146105289459
52.0,0.32179397344589233
56.0,0.3200792968273163
60.0,0.31834858655929565
64.0,0.31665530800819397
72.0,0.3134109675884247
80.0,0.3101820647716522
88.0,0.3072388470172882
96.0,0.30400097370147705
104.0,0.3005191683769226
112.0,0.29705294966697693
120.0,0.2939687669277191
128.0,0.2911875545978546
144.0,0.2857667803764343
160.0,0.2804590165615082
176.0,0.2752429246902466
192.0,0.27066168189048767
208.0,0.26659470796585083
224.0,0.26292353868484497
240.0,0.2592404782772064
256.0,0.25483664870262146
288.0,0.2453274428844452
320.0,0.2367028445005417
352.0,0.2293236404657364
384.0,0.22229860723018646
416.0,0.21331040561199188
448.0,0.2033662348985672
480.0,0.19340401887893677
512.0,0.18306341767311096
576.0,0.1671430617570877
640.0,0.15855486690998077
704.0,0.15316683053970337
768.0,0.14831796288490295
832.0,0.14010658860206604
896.0,0.1267472356557846
960.0,0.11158020049333572
1024.0,0.09651868790388107
1152.0,0.06521815806627274
1280.0,0.03883042559027672
1408.0,0.0083637535572052
1536.0,-0.006018110550940037
1664.0,-0.01836012490093708
1792.0,-0.03777262941002846
1920.0,-0.055426985025405884
2048.0,-0.07993192970752716
2304.0,-0.11505010724067688
2560.0,-0.13282854855060577
2816.0,-0.1354946792125702
3072.0,-0.13748179376125336
3328.0,-0.13759715855121613
3584.0,-0.13870589435100555
3840.0,-0.13531973958015442
4096.0,-0.12610334157943726
4608.0,-0.1148558035492897
5120.0,-0.04878266155719757
5632.0,0.04160713404417038
6144.0,0.11594454199075699
6656.0,0.15482333302497864
7168.0,0.18622933328151703
7680.0,0.1137792244553566
8192.0,0.0012653529411181808
9216.0,-0.06545887887477875
10240.0,-0.048173148185014725
11264.0,-0.06905952841043472
12288.0,-0.03230080008506775
13312.0,0.018930809572339058
14336.0,0.09432278573513031
end
