version,3.0
numOfCh,1
type,point
parent_name,dirty_50dot0-0dot01
ch_type,1_1
kcount,1
numberNandB,1
brightnessNandB,1
carpet pos,0
pc,0
Time (ms),CH1 Auto-Correlation
1.0,0.8020198345184326
2.0,0.8009706735610962
3.0,0.8001691102981567
4.0,0.7998275756835938
5.0,0.7990363240242004
6.0,0.7986531853675842
7.0,0.7980364561080933
8.0,0.7975407242774963
9.0,0.7970060706138611
10.0,0.7964583039283752
11.0,0.7958699464797974
12.0,0.795520544052124
13.0,0.7949211001396179
14.0,0.7944806218147278
15.0,0.7940001487731934
16.0,0.7935966849327087
18.0,0.7927300333976746
20.0,0.7919992208480835
22.0,0.791164755821228
24.0,0.7901738286018372
26.0,0.7893138527870178
28.0,0.7883050441741943
30.0,0.7873532772064209
32.0,0.7863425612449646
36.0,0.7842217087745667
40.0,0.7820587158203125
44.0,0.7799605131149292
48.0,0.7778918743133545
52.0,0.7756864428520203
56.0,0.7735542058944702
60.0,0.7711753845214844
64.0,0.7689931392669678
72.0,0.7643476128578186
80.0,0.760220468044281
88.0,0.7562637329101562
96.0,0.7522900104522705
104.0,0.7482937574386597
112.0,0.7444496750831604
120.0,0.7407273054122925
128.0,0.7371829152107239
144.0,0.7304263114929199
160.0,0.7240468263626099
176.0,0.7186087965965271
192.0,0.7133955955505371
208.0,0.7084366083145142
224.0,0.7032333016395569
240.0,0.6974902153015137
256.0,0.6919074654579163
288.0,0.6829385757446289
320.0,0.675788938999176
352.0,0.6693743467330933
384.0,0.6636504530906677
416.0,0.658206582069397
448.0,0.6510866284370422
480.0,0.6399186849594116
512.0,0.6266958117485046
576.0,0.6049321293830872
640.0,0.5817089676856995
704.0,0.5573505163192749
768.0,0.5322355628013611
832.0,0.5050589442253113
896.0,0.47703278064727783
960.0,0.4434177875518799
1024.0,0.4112745225429535
1152.0,0.3611598312854767
1280.0,0.315737247467041
1408.0,0.2631404995918274
1536.0,0.2229515165090561
1664.0,0.19066494703292847
1792.0,0.1665068119764328
1920.0,0.14649838209152222
2048.0,0.11723125725984573
2304.0,0.06635413318872452
2560.0,0.026805907487869263
2816.0,-0.004477124661207199
3072.0,-0.03893110156059265
3328.0,-0.07308348268270493
3584.0,-0.09661534428596497
3840.0,-0.1119857206940651
4096.0,-0.1177188828587532
4608.0,-0.1159992665052414
5120.0,-0.10907471925020218
5632.0,-0.10976586490869522
6144.0,-0.07187952101230621
6656.0,-0.010406534187495708
7168.0,0.0314565934240818
7680.0,0.014350160956382751
8192.0,-0.036574799567461014
9216.0,-0.09038572758436203
10240.0,-0.18750959634780884
11264.0,-0.36323732137680054
12288.0,-0.5392013192176819
13312.0,-0.69013512134552
14336.0,-0.761552095413208
end
