version,3.0
numOfCh,1
type,point
parent_name,dirty_50dot0-0dot01
ch_type,1_1
kcount,1
numberNandB,1
brightnessNandB,1
carpet pos,0
pc,0
Time (ms),CH1 Auto-Correlation
1.0,0.20002159476280212
2.0,0.19914832711219788
3.0,0.19855554401874542
4.0,0.1979706585407257
5.0,0.19757294654846191
6.0,0.1970704346895218
7.0,0.19665443897247314
8.0,0.1962399184703827
9.0,0.19579054415225983
10.0,0.19538408517837524
11.0,0.19488222897052765
12.0,0.19450727105140686
13.0,0.19411195814609528
14.0,0.1937008947134018
15.0,0.19328288733959198
16.0,0.1928722858428955
18.0,0.19208040833473206
20.0,0.19130481779575348
22.0,0.19049738347530365
24.0,0.18963484466075897
26.0,0.1887773722410202
28.0,0.18794424831867218
30.0,0.18713469803333282
32.0,0.18640467524528503
36.0,0.18491169810295105
40.0,0.1833254098892212
44.0,0.18183353543281555
48.0,0.1804068386554718
52.0,0.17907515168190002
56.0,0.17770588397979736
60.0,0.17646938562393188
64.0,0.17534801363945007
72.0,0.17285676300525665
80.0,0.17034849524497986
88.0,0.1678091287612915
96.0,0.16503717005252838
104.0,0.16232872009277344
112.0,0.15940354764461517
120.0,0.15660375356674194
128.0,0.15406282246112823
144.0,0.14961519837379456
160.0,0.14590054750442505
176.0,0.1431422382593155
192.0,0.13997845351696014
208.0,0.13657961785793304
224.0,0.13374991714954376
240.0,0.13139395415782928
256.0,0.12921883165836334
288.0,0.12497908622026443
320.0,0.11933428049087524
352.0,0.112633615732193
384.0,0.10408283770084381
416.0,0.09539972990751266
448.0,0.0882195383310318
480.0,0.08142697066068649
512.0,0.07421158254146576
576.0,0.06149407476186752
640.0,0.048997920006513596
704.0,0.037175919860601425
768.0,0.0281950905919075
832.0,0.017034083604812622
896.0,0.004797695204615593
960.0,-0.0070841084234416485
1024.0,-0.017483040690422058
1152.0,-0.023037385195493698
1280.0,-0.03350984677672386
1408.0,-0.04195121303200722
1536.0,-0.04519575089216232
1664.0,-0.050032101571559906
1792.0,-0.05848323553800583
1920.0,-0.0536513589322567
2048.0,-0.048031050711870193
2304.0,-0.036947332322597504
2560.0,-0.03400896489620209
2816.0,-0.029752371832728386
3072.0,-0.03364480659365654
3328.0,-0.036312222480773926
3584.0,-0.03322811424732208
3840.0,-0.029333891347050667
4096.0,-0.008581126108765602
4608.0,0.030939847230911255
5120.0,0.01377684623003006
5632.0,0.014633034355938435
6144.0,0.02418997325003147
6656.0,0.013540823012590408
7168.0,-0.011215667240321636
7680.0,-0.06653322279453278
8192.0,-0.07814245671033859
9216.0,0.005155761260539293
10240.0,0.08915739506483078
11264.0,0.024651549756526947
12288.0,0.04657996818423271
13312.0,-0.05435416102409363
14336.0,-0.09541172534227371
end
