version,3.0
numOfCh,1
type,point
parent_name,dirty_50dot0-0dot01
ch_type,1_1
kcount,1
numberNandB,1
brightnessNandB,1
carpet pos,0
pc,0
Time (ms),CH1 Auto-Correlation
1.0,0.3400244116783142
2.0,0.338468074798584
3.0,0.337652325630188
4.0,0.3370968699455261
5.0,0.3367019295692444
6.0,0.33633044362068176
7.0,0.3361624479293823
8.0,0.33606866002082825
9.0,0.3359226584434509
10.0,0.3354145884513855
11.0,0.33547377586364746
12.0,0.33506691455841064
13.0,0.33489376306533813
14.0,0.3348815441131592
15.0,0.3343963623046875
16.0,0.33427679538726807
18.0,0.3340851664543152
20.0,0.3337092399597168
22.0,0.33317920565605164
24.0,0.33296093344688416
26.0,0.33265420794487
28.0,0.3324969708919525
30.0,0.3318929672241211
32.0,0.3315940201282501
36.0,0.33095651865005493
40.0,0.3301149010658264
44.0,0.32928895950317383
48.0,0.32837367057800293
52.0,0.32745856046676636
56.0,0.3267293870449066
60.0,0.3257961869239807
64.0,0.3247312307357788
72.0,0.3228209614753723
80.0,0.32076606154441833
88.0,0.3185841739177704
96.0,0.31647375226020813
104.0,0.3146263659000397
112.0,0.3127918839454651
120.0,0.3110184669494629
128.0,0.3091701865196228
144.0,0.30566054582595825
160.0,0.3014993965625763
176.0,0.2970797121524811
192.0,0.29338088631629944
208.0,0.28965267539024353
224.0,0.28486168384552
240.0,0.2800869643688202
256.0,0.2756965756416321
288.0,0.2662770748138428
320.0,0.2582535147666931
352.0,0.2502870261669159
384.0,0.24152681231498718
416.0,0.23036591708660126
448.0,0.21753376722335815
480.0,0.20360054075717926
512.0,0.18995802104473114
576.0,0.1651095449924469
640.0,0.14411020278930664
704.0,0.12364452332258224
768.0,0.10566341876983643
832.0,0.08994031697511673
896.0,0.07539087533950806
960.0,0.06187640503048897
1024.0,0.05203236639499664
1152.0,0.03187981992959976
1280.0,0.017112644389271736
1408.0,0.005071566440165043
1536.0,-0.007030359003692865
1664.0,-0.016100052744150162
1792.0,-0.023151498287916183
1920.0,-0.028182849287986755
2048.0,-0.030885186046361923
2304.0,-0.034910667687654495
2560.0,-0.0370606891810894
2816.0,-0.037898603826761246
3072.0,-0.03431575372815132
3328.0,-0.025570567697286606
3584.0,-0.019049393013119698
3840.0,-0.015853676944971085
4096.0,-0.01518726535141468
4608.0,-0.014656003564596176
5120.0,-0.01566495932638645
5632.0,-0.017672447487711906
6144.0,-0.020041851326823235
6656.0,-0.020662695169448853
7168.0,-0.025141453370451927
7680.0,-0.026976995170116425
8192.0,-0.03187251091003418
9216.0,-0.04209703579545021
10240.0,-0.05756575986742973
11264.0,-0.0741911232471466
12288.0,-0.08038149029016495
13312.0,-0.01020461693406105
14336.0,0.03050757385790348
end
