version,3.0
numOfCh,1
type,point
parent_name,dirty_50dot0-0dot01
ch_type,1_1
kcount,1
numberNandB,1
brightnessNandB,1
carpet pos,0
pc,0
Time (ms),CH1 Auto-Correlation
1.0,0.15063340961933136
2.0,0.14897000789642334
3.0,0.1481395661830902
4.0,0.14763428270816803
5.0,0.14710086584091187
6.0,0.14691750705242157
7.0,0.1465073972940445
8.0,0.14594332873821259
9.0,0.14575175940990448
10.0,0.14553585648536682
11.0,0.14549453556537628
12.0,0.14506565034389496
13.0,0.1449609249830246
14.0,0.14455822110176086
15.0,0.14433836936950684
16.0,0.14398415386676788
18.0,0.1433354765176773
20.0,0.14269058406352997
22.0,0.14225688576698303
24.0,0.14163045585155487
26.0,0.1411139965057373
28.0,0.1407276839017868
30.0,0.1403685063123703
32.0,0.14001651108264923
36.0,0.13928036391735077
40.0,0.1384807676076889
44.0,0.1380319744348526
48.0,0.13731224834918976
52.0,0.13675092160701752
56.0,0.13614898920059204
60.0,0.1352550983428955
64.0,0.13445615768432617
72.0,0.1327119916677475
80.0,0.13124340772628784
88.0,0.1297989934682846
96.0,0.1285136342048645
104.0,0.12729144096374512
112.0,0.12648595869541168
120.0,0.125747948884964
128.0,0.12474294006824493
144.0,0.12314525991678238
160.0,0.1220732182264328
176.0,0.12072393298149109
192.0,0.11947355419397354
208.0,0.11822501569986343
224.0,0.11655576527118683
240.0,0.1149333268404007
256.0,0.11377711594104767
288.0,0.11242973059415817
320.0,0.10916010290384293
352.0,0.10601921379566193
384.0,0.10282404720783234
416.0,0.1004905253648758
448.0,0.09883411228656769
480.0,0.09743965417146683
512.0,0.09492437541484833
576.0,0.09078702330589294
640.0,0.08857645094394684
704.0,0.08530692756175995
768.0,0.08268162608146667
832.0,0.08121231198310852
896.0,0.08027780801057816
960.0,0.07710261642932892
1024.0,0.07542690634727478
1152.0,0.07108785957098007
1280.0,0.06663636863231659
1408.0,0.0659869834780693
1536.0,0.061372309923172
1664.0,0.056482188403606415
1792.0,0.0499524250626564
1920.0,0.04154574126005173
2048.0,0.03695589676499367
2304.0,0.03170662000775337
2560.0,0.02282712422311306
2816.0,0.015264511108398438
3072.0,0.0030296638142317533
3328.0,-0.002113357651978731
3584.0,-0.0035876622423529625
3840.0,0.00019302396685816348
4096.0,0.00035155544173903763
4608.0,-0.013478639535605907
5120.0,-0.02922888845205307
5632.0,-0.03313036262989044
6144.0,-0.033148206770420074
6656.0,-0.035172365605831146
7168.0,-0.04018810763955116
7680.0,-0.0448756217956543
8192.0,-0.0509752556681633
9216.0,-0.06485549360513687
10240.0,-0.07083933055400848
11264.0,-0.05144691839814186
12288.0,-0.020995093509554863
13312.0,-0.009513898752629757
14336.0,-0.01312384195625782
end
