version,3.0
numOfCh,1
type,point
parent_name,714af_0dot2-1dot0
ch_type,1_1
kcount,1
numberNandB,1
brightnessNandB,1
carpet pos,0
pc,0
Time (ms),CH1 Auto-Correlation
1.0,0.02128668688237667
2.0,0.020844990387558937
3.0,0.020428800955414772
4.0,0.020030217245221138
5.0,0.0196413304656744
6.0,0.019271234050393105
7.0,0.018912089988589287
8.0,0.018566032871603966
9.0,0.018234211951494217
10.0,0.017927292734384537
11.0,0.017630470916628838
12.0,0.017344409599900246
13.0,0.01706201210618019
14.0,0.0167839378118515
15.0,0.016501493752002716
16.0,0.016237786039710045
18.0,0.0157100148499012
20.0,0.0152053851634264
22.0,0.014715507626533508
24.0,0.01424083486199379
26.0,0.013783046044409275
28.0,0.013334447517991066
30.0,0.012896009720861912
32.0,0.012491019442677498
36.0,0.011764131486415863
40.0,0.011092160828411579
44.0,0.010528378188610077
48.0,0.01004065852612257
52.0,0.009634283371269703
56.0,0.009245515801012516
60.0,0.008911306969821453
64.0,0.00856489036232233
72.0,0.007901886478066444
80.0,0.007370296865701675
88.0,0.006957529578357935
96.0,0.006604635156691074
104.0,0.006183776538819075
112.0,0.005746066104620695
120.0,0.005299331620335579
128.0,0.00505101541057229
144.0,0.004776752088218927
160.0,0.004669868387281895
176.0,0.004382900893688202
192.0,0.004189189989119768
208.0,0.004159186501055956
224.0,0.0037675537168979645
240.0,0.0031048916280269623
256.0,0.0027876540552824736
288.0,0.002393370261415839
320.0,0.0017802574438974261
352.0,0.0016347317723557353
384.0,0.002017602790147066
416.0,0.0022155987098813057
448.0,0.0017250414239242673
480.0,0.001423718174919486
512.0,0.0012458106502890587
576.0,0.0006027109920978546
640.0,0.0012820636620745063
704.0,0.0010080761276185513
768.0,-0.000341956241754815
832.0,-3.3438613172620535e-05
896.0,0.0009105772478505969
960.0,0.0005980903515592217
1024.0,-0.000476686138426885
1152.0,-0.0009340933756902814
1280.0,-0.001290384796448052
1408.0,0.00032793701393529773
1536.0,0.0006877891137264669
1664.0,0.0007892380235716701
1792.0,-0.0005729682161472738
1920.0,-0.0019141724333167076
2048.0,-0.0019000491593033075
2304.0,-0.0015873514348641038
2560.0,-0.002511420985683799
2816.0,-0.0010925524402409792
3072.0,0.0010481353383511305
3328.0,0.0006052281823940575
3584.0,0.0012349864700809121
3840.0,0.0001529135333839804
4096.0,-0.001566632534377277
4608.0,-0.0011192858219146729
5120.0,-3.651463339338079e-05
5632.0,-0.0020602510776370764
6144.0,-0.0026220695581287146
6656.0,-0.00034931182744912803
7168.0,-0.0003369049809407443
7680.0,-4.5552351366495714e-05
8192.0,0.0036942828446626663
end
