version,3.0
numOfCh,1
type,point
parent_name,714af_0dot2-1dot0
ch_type,1_1
kcount,1
numberNandB,1
brightnessNandB,1
carpet pos,0
pc,0
Time (ms),CH1 Auto-Correlation
1.0,0.025571702048182487
2.0,0.025112969800829887
3.0,0.024677861481904984
4.0,0.024271482601761818
5.0,0.023880595341324806
6.0,0.023523768410086632
7.0,0.023188263177871704
8.0,0.022859064862132072
9.0,0.022533128038048744
10.0,0.022219860926270485
11.0,0.021907661110162735
12.0,0.02160642296075821
13.0,0.021321091800928116
14.0,0.021039914339780807
15.0,0.02075769565999508
16.0,0.02047641947865486
18.0,0.019976574927568436
20.0,0.019490724429488182
22.0,0.0190469641238451
24.0,0.018634583801031113
26.0,0.018233677372336388
28.0,0.017847420647740364
30.0,0.01748521253466606
32.0,0.01715647429227829
36.0,0.01654806360602379
40.0,0.015919482335448265
44.0,0.015315951779484749
48.0,0.014713401906192303
52.0,0.014095243066549301
56.0,0.013540387153625488
60.0,0.012957047671079636
64.0,0.012427487410604954
72.0,0.011437799781560898
80.0,0.010431940667331219
88.0,0.009462237358093262
96.0,0.008588538505136967
104.0,0.007767294999212027
112.0,0.007158125285059214
120.0,0.0066868313588202
128.0,0.006388964597135782
144.0,0.005986738484352827
160.0,0.005685289390385151
176.0,0.005388239864259958
192.0,0.00527850491926074
208.0,0.005298356991261244
224.0,0.00556201720610261
240.0,0.005504239350557327
256.0,0.005299982149153948
288.0,0.004107696004211903
320.0,0.002206995151937008
352.0,0.00098668341524899
384.0,0.0005026528961025178
416.0,0.0004694806702900678
448.0,0.001083311508409679
480.0,0.0017910440219566226
512.0,0.0020568021573126316
576.0,0.0016589713050052524
640.0,0.0007638607639819384
704.0,0.0005548366461880505
768.0,-0.00019756352412514389
832.0,-0.0013110158033668995
896.0,-0.0018782498082146049
960.0,-0.001804269035346806
1024.0,-0.0014916728250682354
1152.0,-0.0003017206909134984
1280.0,-0.00030745993717573583
1408.0,0.0021003130823373795
1536.0,0.0012418256374076009
1664.0,-0.0003731791512109339
1792.0,-0.002343287691473961
1920.0,-0.0014358346816152334
2048.0,-0.0012916837586089969
2304.0,0.0007960334187373519
2560.0,0.0015060469741001725
2816.0,0.0007943687378428876
3072.0,7.721733709331602e-05
3328.0,0.00016634789062663913
3584.0,0.00035749157541431487
3840.0,0.002367920009419322
4096.0,0.0014786110259592533
4608.0,0.0004159587842877954
5120.0,-0.0013222381239756942
5632.0,-0.005611866246908903
6144.0,-0.0020234438125044107
6656.0,0.0010127041023224592
7168.0,0.00084855523891747
7680.0,-0.00042582268361002207
8192.0,-0.0021125709172338247
end
