version,3.0
numOfCh,1
type,point
parent_name,714af_0dot2-1dot0
ch_type,1_1
kcount,1
numberNandB,1
brightnessNandB,1
carpet pos,0
pc,0
Time (ms),CH1 Auto-Correlation
1.0,0.027825986966490746
2.0,0.026987280696630478
3.0,0.02602098323404789
4.0,0.0252322219312191
5.0,0.02459292858839035
6.0,0.02407747507095337
7.0,0.023659981787204742
8.0,0.023301413282752037
9.0,0.022959234192967415
10.0,0.022679826244711876
11.0,0.02241848036646843
12.0,0.022162755951285362
13.0,0.021945711225271225
14.0,0.021726006641983986
15.0,0.02152336947619915
16.0,0.021312139928340912
18.0,0.020802916958928108
20.0,0.020246554166078568
22.0,0.019768107682466507
24.0,0.01924591325223446
26.0,0.0187495406717062
28.0,0.0183002557605505
30.0,0.01786341704428196
32.0,0.017437873408198357
36.0,0.016682840883731842
40.0,0.016030093654990196
44.0,0.015325539745390415
48.0,0.014718406833708286
52.0,0.014015828259289265
56.0,0.013416390866041183
60.0,0.012941860593855381
64.0,0.012520359829068184
72.0,0.011830548755824566
80.0,0.011222388595342636
88.0,0.010712908580899239
96.0,0.010356204584240913
104.0,0.010118449106812477
112.0,0.010022178292274475
120.0,0.009875903837382793
128.0,0.009693716652691364
144.0,0.00925479270517826
160.0,0.008552264422178268
176.0,0.007605862338095903
192.0,0.007200461812317371
208.0,0.00723290117457509
224.0,0.00721571734175086
240.0,0.007065970916301012
256.0,0.006499920971691608
288.0,0.005481526255607605
320.0,0.005246950313448906
352.0,0.00546060036867857
384.0,0.0051986840553581715
416.0,0.0047583552077412605
448.0,0.004311102442443371
480.0,0.003640989772975445
512.0,0.003659658832475543
576.0,0.0028817872516810894
640.0,0.0015388673637062311
704.0,0.0008348214323632419
768.0,0.0012913020327687263
832.0,0.0011808830313384533
896.0,0.002248017583042383
960.0,0.002771542174741626
1024.0,0.0026532758492976427
1152.0,0.0008215796551667154
1280.0,0.0024459301494061947
1408.0,0.0018930169753730297
1536.0,0.0020076087675988674
1664.0,0.0029175146482884884
1792.0,0.0036638635210692883
1920.0,0.0028304881416261196
2048.0,0.0034792283549904823
2304.0,0.003821148769930005
2560.0,0.004495636560022831
2816.0,0.004052193835377693
3072.0,0.0010697137331590056
3328.0,-2.3110505935619585e-06
3584.0,0.0005596495466306806
3840.0,0.001624987693503499
4096.0,0.0020427508279681206
4608.0,-0.0006226155674085021
5120.0,-0.0037007618229836226
5632.0,-0.002275787992402911
6144.0,-0.003337726928293705
6656.0,-0.0028964360244572163
7168.0,-0.0041025918908417225
7680.0,-0.004175376147031784
8192.0,-0.004503367468714714
end
