version,3.0
numOfCh,1
type,point
parent_name,714af_0dot2-1dot0
ch_type,1_1
kcount,1
numberNandB,1
brightnessNandB,1
carpet pos,0
pc,0
Time (ms),CH1 Auto-Correlation
1.0,0.018115829676389694
2.0,0.017725853249430656
3.0,0.017344484105706215
4.0,0.016982531175017357
5.0,0.01664518006145954
6.0,0.01632196456193924
7.0,0.016003919765353203
8.0,0.015710309147834778
9.0,0.015417483635246754
10.0,0.015141522511839867
11.0,0.014872430823743343
12.0,0.014606846496462822
13.0,0.01435825228691101
14.0,0.014129647985100746
15.0,0.013904719613492489
16.0,0.013688883744180202
18.0,0.013296835124492645
20.0,0.012919184751808643
22.0,0.012552297674119473
24.0,0.012187181040644646
26.0,0.0118097560480237
28.0,0.011455160565674305
30.0,0.01111419964581728
32.0,0.010765206068754196
36.0,0.010113855823874474
40.0,0.009508932940661907
44.0,0.00893911812454462
48.0,0.008417925797402859
52.0,0.007943740114569664
56.0,0.007535801734775305
60.0,0.007167404051870108
64.0,0.00686602620407939
72.0,0.00637383246794343
80.0,0.005923523101955652
88.0,0.005499513354152441
96.0,0.005173540208488703
104.0,0.004816950298845768
112.0,0.004550882615149021
120.0,0.004424394108355045
128.0,0.004460511729121208
144.0,0.00458112545311451
160.0,0.004480583127588034
176.0,0.004093313589692116
192.0,0.003437141189351678
208.0,0.002723312471061945
224.0,0.0020558908581733704
240.0,0.0016185194253921509
256.0,0.0014446659479290247
288.0,0.0013116354821249843
320.0,0.0010762950405478477
352.0,0.0005368570564314723
384.0,0.0002818703942466527
416.0,0.0006166010280139744
448.0,0.0007089775172062218
480.0,0.00033228276879526675
512.0,0.0002594002871774137
576.0,-0.00021996475697960705
640.0,-0.00016749663336668164
704.0,-0.00013479644258040935
768.0,-0.00043760554399341345
832.0,8.225178135035094e-06
896.0,0.0007679358823224902
960.0,0.0002979150740429759
1024.0,-0.0005657707806676626
1152.0,0.000559487147256732
1280.0,0.0008452599286101758
1408.0,0.0005297578172758222
1536.0,-6.0297577874735e-05
1664.0,0.0004756965790875256
1792.0,0.0006308360607363284
1920.0,-0.00047394257853738964
2048.0,-0.0010046693496406078
2304.0,-0.0019282788271084428
2560.0,-0.0013854473363608122
2816.0,0.00025129682035185397
3072.0,0.0015979335876181722
3328.0,-0.0007449838449247181
3584.0,-0.0021717525087296963
3840.0,-0.002284355228766799
4096.0,-0.0007732921512797475
4608.0,0.0006475721020251513
5120.0,0.000300289539154619
5632.0,-0.001218574121594429
6144.0,0.0016579420771449804
6656.0,-0.0006263776449486613
7168.0,-0.00021458056289702654
7680.0,0.000858012237586081
8192.0,0.000296617770800367
end
