version,3.0
numOfCh,1
type,point
parent_name,714af_0dot2-1dot0
ch_type,1_1
kcount,1
numberNandB,1
brightnessNandB,1
carpet pos,0
pc,0
Time (ms),CH1 Auto-Correlation
1.0,0.02233603410422802
2.0,0.021879011765122414
3.0,0.02142968960106373
4.0,0.021014688536524773
5.0,0.020623398944735527
6.0,0.020247232168912888
7.0,0.019869498908519745
8.0,0.019503189250826836
9.0,0.019158435985445976
10.0,0.01882188208401203
11.0,0.018504289910197258
12.0,0.018179956823587418
13.0,0.017847659066319466
14.0,0.01752154529094696
15.0,0.017201455309987068
16.0,0.016884775832295418
18.0,0.016293659806251526
20.0,0.015747355297207832
22.0,0.015235776081681252
24.0,0.014751213602721691
26.0,0.01431080512702465
28.0,0.01391273271292448
30.0,0.013537449762225151
32.0,0.013187922537326813
36.0,0.012532033957540989
40.0,0.01198305282741785
44.0,0.0115038538351655
48.0,0.010964790359139442
52.0,0.010460360907018185
56.0,0.01005476713180542
60.0,0.009787722490727901
64.0,0.009526049718260765
72.0,0.009119633585214615
80.0,0.008764224126935005
88.0,0.008467856794595718
96.0,0.00821649469435215
104.0,0.007947683334350586
112.0,0.007649120409041643
120.0,0.007325367536395788
128.0,0.006979531142860651
144.0,0.00643176818266511
160.0,0.006483518518507481
176.0,0.006331170909106731
192.0,0.005877575371414423
208.0,0.005427326075732708
224.0,0.0047775208950042725
240.0,0.0042024338617920876
256.0,0.0036390763707458973
288.0,0.0029489542357623577
320.0,0.0022591659799218178
352.0,0.0018519505392760038
384.0,0.0019210100872442126
416.0,0.001559547265060246
448.0,0.0005229415255598724
480.0,-1.5886076653259806e-05
512.0,-0.00042517133988440037
576.0,-0.00011109724437119439
640.0,0.0004946280969306827
704.0,0.0007090658182278275
768.0,0.0011911792680621147
832.0,0.002002309076488018
896.0,0.001690642791800201
960.0,0.001255585579201579
1024.0,0.0008316516177728772
1152.0,-0.00012167901877546683
1280.0,0.0001358628796879202
1408.0,0.00021722742530982941
1536.0,0.00026570798945613205
1664.0,-0.000350191374309361
1792.0,-6.61423327983357e-05
1920.0,-0.0006866999319754541
2048.0,-0.0011468259617686272
2304.0,-0.0014072902267798781
2560.0,-0.0008430642774328589
2816.0,0.0005987058975733817
3072.0,-0.001315087080001831
3328.0,-0.003254036186262965
3584.0,-0.001976749626919627
3840.0,-0.0004983189282938838
4096.0,-0.0011604626197367907
4608.0,-0.0009038392454385757
5120.0,0.0005327813560143113
5632.0,-0.00027835514629259706
6144.0,-0.0019374529365450144
6656.0,-0.002683233702555299
7168.0,-0.0011522998102009296
7680.0,-0.00014549357001669705
8192.0,-0.0013734796084463596
end
