version,3.0
numOfCh,1
type,point
parent_name,714af_0dot2-1dot0
ch_type,1_1
kcount,1
numberNandB,1
brightnessNandB,1
carpet pos,0
pc,0
Time (ms),CH1 Auto-Correlation
1.0,0.0231472235172987
2.0,0.022737950086593628
3.0,0.022348608821630478
4.0,0.021978361532092094
5.0,0.021619630977511406
6.0,0.021276606246829033
7.0,0.020938487723469734
8.0,0.020609980449080467
9.0,0.02028280682861805
10.0,0.019971227273344994
11.0,0.01965317130088806
12.0,0.019363876432180405
13.0,0.01908215880393982
14.0,0.01880778558552265
15.0,0.018528234213590622
16.0,0.018272818997502327
18.0,0.017791898921132088
20.0,0.017336243763566017
22.0,0.01692466251552105
24.0,0.016532568261027336
26.0,0.01613376848399639
28.0,0.015743808820843697
30.0,0.015385085716843605
32.0,0.01507712621241808
36.0,0.014550767838954926
40.0,0.01407747995108366
44.0,0.013566842302680016
48.0,0.013070463202893734
52.0,0.012594853527843952
56.0,0.012104838155210018
60.0,0.01158993411809206
64.0,0.011127891950309277
72.0,0.010248509235680103
80.0,0.00947345420718193
88.0,0.008804379031062126
96.0,0.008233192376792431
104.0,0.007721290923655033
112.0,0.0072791436687111855
120.0,0.006816396955400705
128.0,0.006418321281671524
144.0,0.005634504370391369
160.0,0.005066819489002228
176.0,0.004949845373630524
192.0,0.0050438689067959785
208.0,0.005159641616046429
224.0,0.005250521469861269
240.0,0.005195740610361099
256.0,0.00498776463791728
288.0,0.004402532242238522
320.0,0.003885802114382386
352.0,0.0040995595045387745
384.0,0.003907263744622469
416.0,0.003147197188809514
448.0,0.002927704481408
480.0,0.0031678907107561827
512.0,0.002860159147530794
576.0,0.0019943707156926394
640.0,0.0007858198950998485
704.0,0.0007128046709112823
768.0,0.001534432522021234
832.0,0.0021342753898352385
896.0,0.0017020396189764142
960.0,0.0009338292293250561
1024.0,0.001100580906495452
1152.0,0.0007059168419800699
1280.0,-0.0007997449138201773
1408.0,-0.0023859678767621517
1536.0,-0.0011069372994825244
1664.0,-0.0017375570023432374
1792.0,-0.003489887109026313
1920.0,-0.0028913256246596575
2048.0,-0.001318948226980865
2304.0,-0.0017231792444363236
2560.0,-0.0013918685726821423
2816.0,0.00022623591939918697
3072.0,-0.001277452101930976
3328.0,0.001570343622006476
3584.0,0.000958599615842104
3840.0,0.0027332110330462456
4096.0,0.0008468655869364738
4608.0,0.002035692101344466
5120.0,0.0018291296437382698
5632.0,-0.0008303528884425759
6144.0,-0.0035219003912061453
6656.0,-0.004629587288945913
7168.0,-0.0038799061439931393
7680.0,-0.0017249082447960973
8192.0,-0.0008290527621284127
end
