version,3.0
numOfCh,1
type,point
parent_name,714af_0dot2-1dot0
ch_type,1_1
kcount,1
numberNandB,1
brightnessNandB,1
carpet pos,0
pc,0
Time (ms),CH1 Auto-Correlation
1.0,0.020587453618645668
2.0,0.02015054225921631
3.0,0.019745731726288795
4.0,0.019342560321092606
5.0,0.018961545079946518
6.0,0.018590927124023438
7.0,0.018230881541967392
8.0,0.01788056455552578
9.0,0.017553897574543953
10.0,0.01724526286125183
11.0,0.016945727169513702
12.0,0.01665683463215828
13.0,0.016376381739974022
14.0,0.016103925183415413
15.0,0.01584259606897831
16.0,0.015599163249135017
18.0,0.015121367760002613
20.0,0.014670596458017826
22.0,0.01425724197179079
24.0,0.01387640181928873
26.0,0.013512455858290195
28.0,0.013164876028895378
30.0,0.012831275351345539
32.0,0.012506294064223766
36.0,0.011928308755159378
40.0,0.011366524733603
44.0,0.010843503288924694
48.0,0.010341839864850044
52.0,0.009868753142654896
56.0,0.00942101702094078
60.0,0.008999881334602833
64.0,0.008659329265356064
72.0,0.008039171807467937
80.0,0.007542469073086977
88.0,0.007194305770099163
96.0,0.006797100882977247
104.0,0.006421299651265144
112.0,0.006044481880962849
120.0,0.005710577126592398
128.0,0.005390156991779804
144.0,0.004761696793138981
160.0,0.004148625303059816
176.0,0.003413117490708828
192.0,0.0027960962615907192
208.0,0.002473390894010663
224.0,0.0021974409464746714
240.0,0.0016163646942004561
256.0,0.0012126070214435458
288.0,0.0009406107710674405
320.0,0.0006278263172134757
352.0,-3.3828289360826602e-06
384.0,0.00041375323780812323
416.0,0.0012129184324294329
448.0,0.0018099044682458043
480.0,0.0019642009865492582
512.0,0.002243267372250557
576.0,0.0015888178022578359
640.0,0.0012307469733059406
704.0,0.001060160924680531
768.0,0.0010818425798788667
832.0,0.001514114672318101
896.0,0.0006373978685587645
960.0,-0.00032516560168005526
1024.0,-0.0003680163936223835
1152.0,1.3518985724658705e-05
1280.0,0.0007173250778578222
1408.0,0.0008572362130507827
1536.0,0.001658444874919951
1664.0,-0.00034088606480509043
1792.0,-0.0021675832103937864
1920.0,-0.0006161810597404838
2048.0,0.00013277486141305417
2304.0,-0.002466656966134906
2560.0,-0.0020288017112761736
2816.0,-0.0020397331099957228
3072.0,-0.003136496292427182
3328.0,-0.0018763007828965783
3584.0,-2.1197489331825636e-05
3840.0,-0.00368191534653306
4096.0,-0.000974126742221415
4608.0,-0.00030705484095960855
5120.0,0.0010068741394206882
5632.0,0.002855825237929821
6144.0,0.0036593752447515726
6656.0,0.0006326979491859674
7168.0,0.000830845267046243
7680.0,0.0009819904807955027
8192.0,-0.00235457974486053
end
