version,3.0
numOfCh,1
type,point
parent_name,714af_0dot2-1dot0
ch_type,1_1
kcount,1
numberNandB,1
brightnessNandB,1
carpet pos,0
pc,0
Time (ms),CH1 Auto-Correlation
1.0,0.021215105429291725
2.0,0.020763332024216652
3.0,0.020340729504823685
4.0,0.019954439252614975
5.0,0.019573776051402092
6.0,0.01921527273952961
7.0,0.018868746235966682
8.0,0.018523015081882477
9.0,0.01818118803203106
10.0,0.01785377971827984
11.0,0.01753750815987587
12.0,0.01722879521548748
13.0,0.016915855929255486
14.0,0.01662188209593296
15.0,0.01633697934448719
16.0,0.016056125983595848
18.0,0.01553654856979847
20.0,0.015045245178043842
22.0,0.014601210132241249
24.0,0.014202560298144817
26.0,0.013828791677951813
28.0,0.013460090383887291
30.0,0.013125715777277946
32.0,0.01282042358070612
36.0,0.012237741611897945
40.0,0.011741704307496548
44.0,0.011252393014729023
48.0,0.010865861549973488
52.0,0.01054870430380106
56.0,0.010325265116989613
60.0,0.010038741864264011
64.0,0.009694385342299938
72.0,0.008860491216182709
80.0,0.008128286339342594
88.0,0.007558887358754873
96.0,0.007099935784935951
104.0,0.006648733746260405
112.0,0.006247374229133129
120.0,0.005847702268511057
128.0,0.005403776187449694
144.0,0.004697585944086313
160.0,0.004388600122183561
176.0,0.003935832530260086
192.0,0.0034160620998591185
208.0,0.003080980619415641
224.0,0.002998040523380041
240.0,0.0029091297183185816
256.0,0.0029500320088118315
288.0,0.0030632014386355877
320.0,0.0034557085018604994
352.0,0.003279285505414009
384.0,0.0026911066379398108
416.0,0.0016967433039098978
448.0,0.0005797381745651364
480.0,-0.00018275213369634002
512.0,-0.0005689236568287015
576.0,-0.0009662601514719427
640.0,-0.0011309520341455936
704.0,-0.0005894420319236815
768.0,-0.0010680430568754673
832.0,7.724688475718722e-05
896.0,0.0003624205128289759
960.0,-0.0009526950889267027
1024.0,4.137308496865444e-05
1152.0,0.001115474384278059
1280.0,0.0014008486177772284
1408.0,0.0013381571043282747
1536.0,0.0014728173846378922
1664.0,-0.0002726823731791228
1792.0,-0.0012625306844711304
1920.0,-0.0033698605839163065
2048.0,-0.00372710800729692
2304.0,-0.0011021584505215287
2560.0,0.0011197479907423258
2816.0,0.0010163948172703385
3072.0,0.0010368817020207644
3328.0,-0.0026447882410138845
3584.0,-0.0032521910034120083
3840.0,-0.0018614308210089803
4096.0,0.0003410556528251618
4608.0,-0.0012671368895098567
5120.0,-0.0008241505129262805
5632.0,0.0016434801509603858
6144.0,0.0014568729093298316
6656.0,0.00014072885096538812
7168.0,0.0004651649505831301
7680.0,-0.0009094795095734298
8192.0,0.0005151479272171855
end
