version,3.0
numOfCh,1
type,point
parent_name,714af_0dot2-1dot0
ch_type,1_1
kcount,1
numberNandB,1
brightnessNandB,1
carpet pos,0
pc,0
Time (ms),CH1 Auto-Correlation
1.0,0.022492557764053345
2.0,0.022059783339500427
3.0,0.02163374423980713
4.0,0.021225329488515854
5.0,0.020831847563385963
6.0,0.02046419307589531
7.0,0.020116999745368958
8.0,0.019780751317739487
9.0,0.019463667646050453
10.0,0.0191615242511034
11.0,0.018870960921049118
12.0,0.018581153824925423
13.0,0.018299445509910583
14.0,0.01803383231163025
15.0,0.01777295581996441
16.0,0.01752239279448986
18.0,0.01704939641058445
20.0,0.016575030982494354
22.0,0.016117531806230545
24.0,0.01567011885344982
26.0,0.015252971090376377
28.0,0.014844159595668316
30.0,0.014444597065448761
32.0,0.014054701663553715
36.0,0.013341945596039295
40.0,0.012690067291259766
44.0,0.01209830492734909
48.0,0.011495135724544525
52.0,0.010889188386499882
56.0,0.010365484282374382
60.0,0.0099192438647151
64.0,0.009473668411374092
72.0,0.008798420429229736
80.0,0.008224251680076122
88.0,0.007690271362662315
96.0,0.00707234488800168
104.0,0.0065557570196688175
112.0,0.006151452194899321
120.0,0.005663737189024687
128.0,0.005137361120432615
144.0,0.00419995142146945
160.0,0.003675284795463085
176.0,0.0032069815788418055
192.0,0.0030160557944327593
208.0,0.0031628103461116552
224.0,0.0035709580406546593
240.0,0.003911955282092094
256.0,0.0039418102242052555
288.0,0.003642086638137698
320.0,0.003871708642691374
352.0,0.003928459249436855
384.0,0.003512705210596323
416.0,0.0029895645566284657
448.0,0.0029033899772912264
480.0,0.002889839466661215
512.0,0.002249600598588586
576.0,0.0018793074414134026
640.0,0.0018012957880273461
704.0,0.0010059543419629335
768.0,0.0003854198439512402
832.0,8.939777762861922e-05
896.0,0.0006843392620794475
960.0,0.001542410347610712
1024.0,0.0022035916335880756
1152.0,0.001416679471731186
1280.0,0.0005202673492021859
1408.0,0.0020091072656214237
1536.0,0.0010296567343175411
1664.0,-0.0015725272241979837
1792.0,-0.001258399337530136
1920.0,-0.001819223864004016
2048.0,-0.0008062317501753569
2304.0,-0.0005991390789858997
2560.0,0.0004886060487478971
2816.0,-0.002174575347453356
3072.0,-0.002072333125397563
3328.0,-0.0023488483857363462
3584.0,-2.490379847586155e-05
3840.0,0.0002867649891413748
4096.0,0.0009590751142241061
4608.0,-0.0011268167290836573
5120.0,0.0006090838578529656
5632.0,-0.0008539404370822012
6144.0,-0.0015958737349137664
6656.0,-0.0021390521433204412
7168.0,-0.0007417392916977406
7680.0,0.0007130115991458297
8192.0,0.002938535762950778
end
