version,3.0
numOfCh,1
type,point
parent_name,714af_0dot2-1dot0
ch_type,1_1
kcount,1
numberNandB,1
brightnessNandB,1
carpet pos,0
pc,0
Time (ms),CH1 Auto-Correlation
1.0,0.023106195032596588
2.0,0.022677196189761162
3.0,0.022271279245615005
4.0,0.02187737450003624
5.0,0.02151116169989109
6.0,0.021160852164030075
7.0,0.02080259844660759
8.0,0.020441867411136627
9.0,0.020087100565433502
10.0,0.019746946170926094
11.0,0.01942150853574276
12.0,0.019099602475762367
13.0,0.018790356814861298
14.0,0.018493495881557465
15.0,0.018200483173131943
16.0,0.01791362836956978
18.0,0.017377668991684914
20.0,0.01688547618687153
22.0,0.01641717553138733
24.0,0.015980679541826248
26.0,0.015572221018373966
28.0,0.015161817893385887
30.0,0.014793156646192074
32.0,0.014455755241215229
36.0,0.01382475532591343
40.0,0.013217528350651264
44.0,0.01265286561101675
48.0,0.012136271223425865
52.0,0.011657067574560642
56.0,0.01113037671893835
60.0,0.010595987550914288
64.0,0.010122484527528286
72.0,0.009196818806231022
80.0,0.00846896506845951
88.0,0.00787195935845375
96.0,0.007418978959321976
104.0,0.007038051262497902
112.0,0.006599016487598419
120.0,0.006243988871574402
128.0,0.005841471720486879
144.0,0.005260057747364044
160.0,0.004740243777632713
176.0,0.0041393558494746685
192.0,0.0036401781253516674
208.0,0.0033352950122207403
224.0,0.0032819779589772224
240.0,0.003227161942049861
256.0,0.0031516114249825478
288.0,0.0024676707107573748
320.0,0.0015136650763452053
352.0,0.0012092075776308775
384.0,0.0009422759176231921
416.0,0.0011966762831434608
448.0,0.0013989463914185762
480.0,0.0017721463227644563
512.0,0.0017860648222267628
576.0,0.0006017026607878506
640.0,0.00011819513747468591
704.0,2.9266551791806705e-05
768.0,0.0003768292663153261
832.0,0.0007062841323204339
896.0,0.000911013048607856
960.0,0.0012451205402612686
1024.0,0.0021322635002434254
1152.0,0.0004562915419228375
1280.0,-0.0011299793841317296
1408.0,-0.002184611978009343
1536.0,-0.0023142118006944656
1664.0,-0.002252686768770218
1792.0,-0.0013348014326766133
1920.0,-0.0006953573902137578
2048.0,0.0006976895965635777
2304.0,-4.208358859614236e-06
2560.0,-0.00046918264706619084
2816.0,0.00017462637333665043
3072.0,0.0010407330701127648
3328.0,0.0017815589671954513
3584.0,0.0007986142882145941
3840.0,0.0008885621791705489
4096.0,-0.0006959103047847748
4608.0,-0.001468026777729392
5120.0,0.0002328483242308721
5632.0,-0.001082371803931892
6144.0,0.0007729067583568394
6656.0,-0.0005625025369226933
7168.0,-0.003187644062563777
7680.0,-0.003176902886480093
8192.0,-0.0017443959368392825
end
