version,3.0
numOfCh,1
type,point
parent_name,714af_0dot2-1dot0
ch_type,1_1
kcount,1
numberNandB,1
brightnessNandB,1
carpet pos,0
pc,0
Time (ms),CH1 Auto-Correlation
1.0,0.025131355971097946
2.0,0.024622252210974693
3.0,0.024164363741874695
4.0,0.023737899959087372
5.0,0.023316873237490654
6.0,0.022939518094062805
7.0,0.02257503755390644
8.0,0.022199878469109535
9.0,0.021849948912858963
10.0,0.021525532007217407
11.0,0.021231146529316902
12.0,0.020906057208776474
13.0,0.020611483603715897
14.0,0.020268088206648827
15.0,0.019920477643609047
16.0,0.019569437950849533
18.0,0.019014980643987656
20.0,0.018513837829232216
22.0,0.018070822581648827
24.0,0.017662346363067627
26.0,0.017251741141080856
28.0,0.016847966238856316
30.0,0.01646701619029045
32.0,0.016105758026242256
36.0,0.015402686782181263
40.0,0.014714381657540798
44.0,0.014092238619923592
48.0,0.01354883424937725
52.0,0.013092534616589546
56.0,0.01272263191640377
60.0,0.01240207627415657
64.0,0.012083478271961212
72.0,0.011488626711070538
80.0,0.010772954672574997
88.0,0.010067437775433064
96.0,0.009410448372364044
104.0,0.008908826857805252
112.0,0.008358573541045189
120.0,0.007807176560163498
128.0,0.007319294381886721
144.0,0.006707766093313694
160.0,0.0061295307241380215
176.0,0.005951894447207451
192.0,0.00566353602334857
208.0,0.005144513212144375
224.0,0.004303609486669302
240.0,0.004012010991573334
256.0,0.004108534660190344
288.0,0.004276003688573837
320.0,0.0036575617268681526
352.0,0.0038332780823111534
384.0,0.003938423935323954
416.0,0.0040045748464763165
448.0,0.0038286419585347176
480.0,0.002739229705184698
512.0,0.0018526067724451423
576.0,0.0008470158209092915
640.0,-0.00011646293569356203
704.0,-0.000605947629082948
768.0,-0.0010000303154811263
832.0,-0.0004728877102024853
896.0,3.5651406506076455e-05
960.0,-0.0012234672904014587
1024.0,-0.0022063443902879953
1152.0,-0.003419982735067606
1280.0,-0.002640433143824339
1408.0,-0.0019415096612647176
1536.0,-0.0017560238484293222
1664.0,-0.0016820477321743965
1792.0,-0.0029331096448004246
1920.0,-0.0007043633959256113
2048.0,-0.0013420043978840113
2304.0,-0.0014632332604378462
2560.0,-0.0025359296705573797
2816.0,0.0011094280052930117
3072.0,0.0015756700886413455
3328.0,0.0010702337604016066
3584.0,0.0008842661045491695
3840.0,0.0011764034861698747
4096.0,-0.0021658409386873245
4608.0,-0.0019990087021142244
5120.0,-0.0007798693259246647
5632.0,-0.0007186739821918309
6144.0,-0.0011300129117444158
6656.0,0.0004825863870792091
7168.0,0.002814444014802575
7680.0,0.00023827870609238744
8192.0,0.002564461203292012
end
