version,3.0
numOfCh,1
type,point
parent_name,714af_0dot2-1dot0
ch_type,1_1
kcount,1
numberNandB,1
brightnessNandB,1
carpet pos,0
pc,0
Time (ms),CH1 Auto-Correlation
1.0,0.01951851323246956
2.0,0.01910226233303547
3.0,0.01871495507657528
4.0,0.018357153981924057
5.0,0.01800297200679779
6.0,0.017660997807979584
7.0,0.017336497083306313
8.0,0.01702226884663105
9.0,0.0167279951274395
10.0,0.016444573178887367
11.0,0.01615857519209385
12.0,0.01587868109345436
13.0,0.015610544010996819
14.0,0.015358253382146358
15.0,0.015108716674149036
16.0,0.014866207726299763
18.0,0.014425422996282578
20.0,0.014025891199707985
22.0,0.01365440059453249
24.0,0.01328799594193697
26.0,0.012953391298651695
28.0,0.012657735496759415
30.0,0.012398602440953255
32.0,0.012148565612733364
36.0,0.011662534438073635
40.0,0.01123841106891632
44.0,0.01079333946108818
48.0,0.010355603881180286
52.0,0.009947288781404495
56.0,0.009559301659464836
60.0,0.009265168569982052
64.0,0.008997551165521145
72.0,0.0084956930950284
80.0,0.007923022843897343
88.0,0.007436863612383604
96.0,0.007061393931508064
104.0,0.006709501147270203
112.0,0.006327976007014513
120.0,0.005835853051394224
128.0,0.005381646100431681
144.0,0.004842105787247419
160.0,0.0045615751296281815
176.0,0.0040927003137767315
192.0,0.0037406946066766977
208.0,0.003335692686960101
224.0,0.00297165266238153
240.0,0.002669459441676736
256.0,0.0024247588589787483
288.0,0.0022931804414838552
320.0,0.002464760560542345
352.0,0.0023156723473221064
384.0,0.0015658116899430752
416.0,0.0012857045512646437
448.0,0.0007811515824869275
480.0,0.0007405341020785272
512.0,0.0013860027538612485
576.0,0.0013790884986519814
640.0,0.0013316739350557327
704.0,0.0012778061209246516
768.0,0.0009495677659288049
832.0,0.0005680392496287823
896.0,-0.00036884209839627147
960.0,-0.0010492769069969654
1024.0,-0.0010590292513370514
1152.0,-0.0024171127006411552
1280.0,-0.0016213885974138975
1408.0,-0.0007833772688172758
1536.0,-0.0019184909760951996
1664.0,-0.0014646968338638544
1792.0,-0.00039826746797189116
1920.0,-0.000477168767247349
2048.0,-0.0006060695741325617
2304.0,-0.0008132815710268915
2560.0,-0.0023483741097152233
2816.0,-0.002761398907750845
3072.0,-0.0016077000182121992
3328.0,-0.002441961318254471
3584.0,-0.0012023142771795392
3840.0,0.001204763655550778
4096.0,0.0016615800559520721
4608.0,0.0013275803066790104
5120.0,0.000557570718228817
5632.0,0.0009341397089883685
6144.0,0.0010813740082085133
6656.0,0.0008389800786972046
7168.0,-0.0005743215442635119
7680.0,-0.0024995619896799326
8192.0,-0.0027489480562508106
end
