version,3.0
numOfCh,1
type,point
parent_name,714af_0dot2-1dot0
ch_type,1_1
kcount,1
numberNandB,1
brightnessNandB,1
carpet pos,0
pc,0
Time (ms),CH1 Auto-Correlation
1.0,0.018875475972890854
2.0,0.018428271636366844
3.0,0.017996516078710556
4.0,0.017581462860107422
5.0,0.017206227406859398
6.0,0.016876354813575745
7.0,0.016542434692382812
8.0,0.016237175092101097
9.0,0.015955816954374313
10.0,0.015665486454963684
11.0,0.015374429523944855
12.0,0.015086730942130089
13.0,0.014803081750869751
14.0,0.014526089653372765
15.0,0.014265372417867184
16.0,0.014011325314640999
18.0,0.01352795772254467
20.0,0.013077190145850182
22.0,0.012662239372730255
24.0,0.012293103151023388
26.0,0.011937452480196953
28.0,0.011603061109781265
30.0,0.011265536770224571
32.0,0.010964812710881233
36.0,0.010343324393033981
40.0,0.009765248745679855
44.0,0.009323752485215664
48.0,0.008863424882292747
52.0,0.008385431952774525
56.0,0.007970168255269527
60.0,0.00758593063801527
64.0,0.007216924801468849
72.0,0.006384654436260462
80.0,0.00555762043222785
88.0,0.004923318512737751
96.0,0.004577613435685635
104.0,0.0044126734137535095
112.0,0.0042434437200427055
120.0,0.0040368735790252686
128.0,0.003665600437670946
144.0,0.003331092419102788
160.0,0.003236763644963503
176.0,0.003343927673995495
192.0,0.0034406690392643213
208.0,0.0036861440166831017
224.0,0.004095438402146101
240.0,0.004297836683690548
256.0,0.0038931849412620068
288.0,0.0037804669700562954
320.0,0.0037295783404260874
352.0,0.0030984440818428993
384.0,0.0025373140815645456
416.0,0.0025469267275184393
448.0,0.002481678733602166
480.0,0.0024819723330438137
512.0,0.0022012086119502783
576.0,0.003187268041074276
640.0,0.004035361111164093
704.0,0.004119915422052145
768.0,0.0035686749033629894
832.0,0.0033938551787286997
896.0,0.003541335929185152
960.0,0.00317359808832407
1024.0,0.002931543393060565
1152.0,0.0024036578834056854
1280.0,0.0018976813880726695
1408.0,0.0030488260090351105
1536.0,0.0017699917079880834
1664.0,0.0014319692272692919
1792.0,0.001453901408240199
1920.0,0.0016703411238268018
2048.0,0.00171924929600209
2304.0,0.0013800502056255937
2560.0,0.0007517885533161461
2816.0,0.0006210445426404476
3072.0,0.0004633623466361314
3328.0,-0.0003239585494156927
3584.0,0.0009013114031404257
3840.0,-0.0003235873591620475
4096.0,-0.0015661800280213356
4608.0,-0.0021514531690627337
5120.0,-0.0020407300908118486
5632.0,-0.0021887142211198807
6144.0,-0.0017434334149584174
6656.0,-0.002574815647676587
7168.0,-0.0011423747055232525
7680.0,-0.0007397487061098218
8192.0,-0.00029825369711034
end
