version,3.0
numOfCh,1
type,point
parent_name,714af_0dot2-1dot0
ch_type,1_1
kcount,1
numberNandB,1
brightnessNandB,1
carpet pos,0
pc,0
Time (ms),CH1 Auto-Correlation
1.0,0.021106740459799767
2.0,0.020646758377552032
3.0,0.020221073180437088
4.0,0.019812937825918198
5.0,0.019432364031672478
6.0,0.019054263830184937
7.0,0.018704276531934738
8.0,0.018368888646364212
9.0,0.01803751103579998
10.0,0.017720939591526985
11.0,0.017429163679480553
12.0,0.01713690347969532
13.0,0.01684662327170372
14.0,0.016574906185269356
15.0,0.016299614682793617
16.0,0.01604386419057846
18.0,0.015558143146336079
20.0,0.015069125220179558
22.0,0.014604747295379639
24.0,0.014177769422531128
26.0,0.013775544241070747
28.0,0.013404672965407372
30.0,0.01304637547582388
32.0,0.01267988607287407
36.0,0.012030424550175667
40.0,0.011408534832298756
44.0,0.010759045369923115
48.0,0.010196059010922909
52.0,0.009646019898355007
56.0,0.009131303988397121
60.0,0.008681570179760456
64.0,0.008241085335612297
72.0,0.007438513915985823
80.0,0.006709580309689045
88.0,0.006075229961425066
96.0,0.0054113734513521194
104.0,0.004951807204633951
112.0,0.004485292360186577
120.0,0.0041361283510923386
128.0,0.0038272228557616472
144.0,0.003578493371605873
160.0,0.00349414418451488
176.0,0.0036785854026675224
192.0,0.003655999433249235
208.0,0.003752383403480053
224.0,0.003914328757673502
240.0,0.00375792826525867
256.0,0.003688213648274541
288.0,0.0023919683881103992
320.0,0.0013937002513557673
352.0,0.0007782585453242064
384.0,0.000338886515237391
416.0,-0.00018994032870978117
448.0,-0.0003517726727295667
480.0,-0.0007657468668185174
512.0,-0.0005683096242137253
576.0,0.0010788445360958576
640.0,0.0019210599130019546
704.0,0.00048767132102511823
768.0,-0.0009185837116092443
832.0,0.001178641221486032
896.0,0.0018858946859836578
960.0,0.0009889488574117422
1024.0,-0.0005041015683673322
1152.0,0.00048726823297329247
1280.0,-0.0008400537772104144
1408.0,-0.0021531092934310436
1536.0,-0.0015579650644212961
1664.0,-0.0007807487272657454
1792.0,0.0008257860317826271
1920.0,-0.0002471258048899472
2048.0,-0.00024255549942608923
2304.0,-0.0009057929273694754
2560.0,-0.00022760298452340066
2816.0,0.00024375740031246096
3072.0,0.0007451918791048229
3328.0,-0.002629533875733614
3584.0,-0.0007930672145448625
3840.0,-0.0003625430981628597
4096.0,0.002261594869196415
4608.0,0.0009441582951694727
5120.0,0.0008568949997425079
5632.0,-0.0014527173480018973
6144.0,-0.0013861889019608498
6656.0,0.0009310109890066087
7168.0,0.00028153671883046627
7680.0,-0.0010152299655601382
8192.0,-0.0015299248043447733
end
