version,3.0
numOfCh,1
type,point
parent_name,714af_0dot2-1dot0
ch_type,1_1
kcount,1
numberNandB,1
brightnessNandB,1
carpet pos,0
pc,0
Time (ms),CH1 Auto-Correlation
1.0,0.017510514706373215
2.0,0.017075883224606514
3.0,0.016668951138854027
4.0,0.016283009201288223
5.0,0.015911787748336792
6.0,0.015562816523015499
7.0,0.015235782600939274
8.0,0.014913670718669891
9.0,0.014601781964302063
10.0,0.014289852231740952
11.0,0.013974547386169434
12.0,0.013678998686373234
13.0,0.013395910151302814
14.0,0.013124208897352219
15.0,0.012854475528001785
16.0,0.012599430046975613
18.0,0.01210765540599823
20.0,0.011637404561042786
22.0,0.011175076477229595
24.0,0.010733352974057198
26.0,0.010307831689715385
28.0,0.009895078837871552
30.0,0.009500542655587196
32.0,0.009123723953962326
36.0,0.008463460952043533
40.0,0.00789258535951376
44.0,0.007370371837168932
48.0,0.006870267912745476
52.0,0.006422987673431635
56.0,0.006006816402077675
60.0,0.005671728868037462
64.0,0.005340140778571367
72.0,0.00470475060865283
80.0,0.004235497210174799
88.0,0.00403346074745059
96.0,0.00398690439760685
104.0,0.003994158003479242
112.0,0.0038893374148756266
120.0,0.0037752576172351837
128.0,0.003541003679856658
144.0,0.0031244417186826468
160.0,0.0026778888422995806
176.0,0.002047681948170066
192.0,0.0013834105338901281
208.0,0.0010753963142633438
224.0,0.0009900139411911368
240.0,0.001104511204175651
256.0,0.0011032319162040949
288.0,0.0009206752292811871
320.0,0.0003208485431969166
352.0,-0.0004797922447323799
384.0,-0.001348081510514021
416.0,-0.002038771752268076
448.0,-0.002229646546766162
480.0,-0.0020294655114412308
512.0,-0.0022788892965763807
576.0,-0.0027891905046999454
640.0,-0.00215064431540668
704.0,-0.0011176649713888764
768.0,-0.0006538694142363966
832.0,-0.00023369226255454123
896.0,0.00031471115653403103
960.0,0.0006066899513825774
1024.0,0.0005919410032220185
1152.0,-0.0008009701268747449
1280.0,-0.0006879009888507426
1408.0,-0.0006077110883779824
1536.0,0.00018318129878025502
1664.0,7.299119170056656e-05
1792.0,0.0007332841632887721
1920.0,0.0005190014489926398
2048.0,0.0027486032340675592
2304.0,0.0009840585989877582
2560.0,-0.0012693529715761542
2816.0,-0.002088407287374139
3072.0,-9.341158147435635e-05
3328.0,-0.0001838280149968341
3584.0,-0.0009687211131677032
3840.0,0.0007855584262870252
4096.0,0.0013541310327127576
4608.0,9.977709851227701e-05
5120.0,-0.0004931415314786136
5632.0,-7.085000106599182e-05
6144.0,0.0004905477399006486
6656.0,0.00016566982958465815
7168.0,9.120619506575167e-05
7680.0,-0.0003667777345981449
8192.0,-0.00031000652234070003
end
