version,3.0
numOfCh,1
type,point
parent_name,714af_0dot2-1dot0
ch_type,1_1
kcount,1
numberNandB,1
brightnessNandB,1
carpet pos,0
pc,0
Time (ms),CH1 Auto-Correlation
1.0,0.023944051936268806
2.0,0.023499291390180588
3.0,0.023090016096830368
4.0,0.02269364520907402
5.0,0.022328082472085953
6.0,0.02197190560400486
7.0,0.021635524928569794
8.0,0.021290874108672142
9.0,0.020968139171600342
10.0,0.020666010677814484
11.0,0.020374717190861702
12.0,0.020058648660779
13.0,0.019763289019465446
14.0,0.019478758797049522
15.0,0.019205477088689804
16.0,0.018940601497888565
18.0,0.018400929868221283
20.0,0.01788276620209217
22.0,0.017354583367705345
24.0,0.0168483704328537
26.0,0.016366062685847282
28.0,0.015895484015345573
30.0,0.015445264987647533
32.0,0.015008158050477505
36.0,0.014231978915631771
40.0,0.01355841662734747
44.0,0.012978986836969852
48.0,0.012429321184754372
52.0,0.011912296526134014
56.0,0.011450225487351418
60.0,0.01107032224535942
64.0,0.01070775929838419
72.0,0.010080126114189625
80.0,0.00951328594237566
88.0,0.0091682905331254
96.0,0.008770033717155457
104.0,0.00844951719045639
112.0,0.008217532187700272
120.0,0.007865821942687035
128.0,0.007508938666433096
144.0,0.006803903263062239
160.0,0.00620341906324029
176.0,0.00588641595095396
192.0,0.005562260281294584
208.0,0.004704844206571579
224.0,0.003889781655743718
240.0,0.0035786337684839964
256.0,0.003613299923017621
288.0,0.003754057688638568
320.0,0.0031414737459272146
352.0,0.002038504695519805
384.0,0.0006457903073169291
416.0,0.0006797888199798763
448.0,0.00035509877488948405
480.0,0.00047103356337174773
512.0,0.0008616743725724518
576.0,0.0003909387451130897
640.0,-0.0016086568357422948
704.0,-0.0021380858961492777
768.0,-0.002264054026454687
832.0,-0.0017075161449611187
896.0,-0.0008911725017242134
960.0,-0.0005008299485780299
1024.0,-0.0008974793599918485
1152.0,-0.0027491506189107895
1280.0,-0.0028674411587417126
1408.0,-0.00210351194255054
1536.0,-0.001069708727300167
1664.0,-0.0002487640012986958
1792.0,-0.001330296159721911
1920.0,-0.0012256400659680367
2048.0,-0.0018054653191938996
2304.0,0.002195376669988036
2560.0,0.003774104407057166
2816.0,0.002166526159271598
3072.0,-0.002296456368640065
3328.0,-0.0018168847309425473
3584.0,-0.0008861494134180248
3840.0,-0.00043533885036595166
4096.0,-0.0019386985804885626
4608.0,-0.0022899180185049772
5120.0,0.001006851438432932
5632.0,0.0012696186313405633
6144.0,-0.00094440090470016
6656.0,-0.0021744780242443085
7168.0,-0.001872265012934804
7680.0,0.0013767000054940581
8192.0,0.0038001546636223793
end
