version,3.0
numOfCh,1
type,point
parent_name,714af_0dot2-1dot0
ch_type,1_1
kcount,1
numberNandB,1
brightnessNandB,1
carpet pos,0
pc,0
Time (ms),CH1 Auto-Correlation
1.0,0.02140006795525551
2.0,0.020984558388590813
3.0,0.020588764920830727
4.0,0.02019493468105793
5.0,0.019817806780338287
6.0,0.019449515268206596
7.0,0.01909337379038334
8.0,0.018740719184279442
9.0,0.018408071249723434
10.0,0.018086448311805725
11.0,0.017779476940631866
12.0,0.01748800463974476
13.0,0.017201371490955353
14.0,0.01692214049398899
15.0,0.016651755198836327
16.0,0.016396507620811462
18.0,0.01590084657073021
20.0,0.015429406426846981
22.0,0.015020070597529411
24.0,0.014668665826320648
26.0,0.014332769438624382
28.0,0.014012242667376995
30.0,0.013728370890021324
32.0,0.013457315042614937
36.0,0.012900910340249538
40.0,0.012337150052189827
44.0,0.01177812460809946
48.0,0.011256164871156216
52.0,0.01080008689314127
56.0,0.010443173348903656
60.0,0.010157528333365917
64.0,0.009876556694507599
72.0,0.009311477653682232
80.0,0.008736168965697289
88.0,0.008171431720256805
96.0,0.007733860053122044
104.0,0.0073680938221514225
112.0,0.007020282559096813
120.0,0.006716212723404169
128.0,0.006521436385810375
144.0,0.006146127823740244
160.0,0.005876054987311363
176.0,0.005475302692502737
192.0,0.00497055146843195
208.0,0.004534979350864887
224.0,0.004398511257022619
240.0,0.00425678538158536
256.0,0.0039039466064423323
288.0,0.0029108277522027493
320.0,0.002403894905000925
352.0,0.0019189270678907633
384.0,0.0015538278967142105
416.0,0.0009956522844731808
448.0,0.0006134035647846758
480.0,0.0003852730733342469
512.0,0.00037006865022704005
576.0,0.0007475651800632477
640.0,0.001213483395986259
704.0,0.0009547584340907633
768.0,0.0005571455112658441
832.0,-9.482265159022063e-05
896.0,-7.831992843421176e-05
960.0,0.00048551405780017376
1024.0,0.0006301974644884467
1152.0,-0.00015098844596650451
1280.0,0.001061321352608502
1408.0,0.0020958571694791317
1536.0,0.0029655026737600565
1664.0,0.00258151744492352
1792.0,0.0008916971855796874
1920.0,-7.430253026541322e-05
2048.0,-0.0004390405956655741
2304.0,0.0010268851183354855
2560.0,-7.999125955393538e-05
2816.0,-0.0012696853373199701
3072.0,-0.002798230852931738
3328.0,-0.003636421635746956
3584.0,-0.0026105884462594986
3840.0,-0.0005579763674177229
4096.0,-0.0005161775043234229
4608.0,-0.002808288438245654
5120.0,-0.0020459580700844526
5632.0,-0.003292395966127515
6144.0,-0.0013224839931353927
6656.0,0.00025540802744217217
7168.0,-0.0021335843484848738
7680.0,0.0019487581448629498
8192.0,0.003589294385164976
end
