version,3.0
numOfCh,1
type,point
parent_name,714af_0dot2-1dot0
ch_type,1_1
kcount,1
numberNandB,1
brightnessNandB,1
carpet pos,0
pc,0
Time (ms),CH1 Auto-Correlation
1.0,0.022604256868362427
2.0,0.022158220410346985
3.0,0.021726859733462334
4.0,0.02132207714021206
5.0,0.0209304578602314
6.0,0.020547591149806976
7.0,0.020180439576506615
8.0,0.01982150226831436
9.0,0.01948385499417782
10.0,0.019152546301484108
11.0,0.01883685402572155
12.0,0.01851709373295307
13.0,0.01820359192788601
14.0,0.01790422387421131
15.0,0.01761815883219242
16.0,0.0173354372382164
18.0,0.016779756173491478
20.0,0.01625228486955166
22.0,0.015774695202708244
24.0,0.015334031544625759
26.0,0.014912671409547329
28.0,0.014475326985120773
30.0,0.01403181254863739
32.0,0.013590187765657902
36.0,0.012791430577635765
40.0,0.012176194228231907
44.0,0.011677131056785583
48.0,0.011240394786000252
52.0,0.010808276943862438
56.0,0.010373218916356564
60.0,0.009891711175441742
64.0,0.009459241293370724
72.0,0.008854357525706291
80.0,0.00824740156531334
88.0,0.007554901763796806
96.0,0.006877184845507145
104.0,0.006189242005348206
112.0,0.005483088083565235
120.0,0.0047841803170740604
128.0,0.004251598846167326
144.0,0.003791505703702569
160.0,0.0036550594959408045
176.0,0.0035549139138311148
192.0,0.003773806383833289
208.0,0.0041941688396036625
224.0,0.00437914626672864
240.0,0.004527229815721512
256.0,0.0044828555546700954
288.0,0.004426651634275913
320.0,0.004592777229845524
352.0,0.004049125127494335
384.0,0.003505302593111992
416.0,0.0031149783171713352
448.0,0.0031831220258027315
480.0,0.003010353073477745
512.0,0.002561586443334818
576.0,0.002306333277374506
640.0,0.0024535050615668297
704.0,0.00236491858959198
768.0,0.002395220333710313
832.0,0.0010368428193032742
896.0,-0.0001572172623127699
960.0,-0.0007668845355510712
1024.0,0.0003349224280100316
1152.0,0.000604887492954731
1280.0,0.0007499523926526308
1408.0,-0.00013896473683416843
1536.0,-0.0011540050618350506
1664.0,-0.002736758440732956
1792.0,-0.0009648831910453737
1920.0,-0.0016883905045688152
2048.0,-0.0006175070884637535
2304.0,-0.0011028703302145004
2560.0,-0.0004693600058089942
2816.0,-0.002008176641538739
3072.0,-0.0019348409259691834
3328.0,-0.0011421291856095195
3584.0,-0.00097704550717026
3840.0,-0.0005330261774361134
4096.0,-0.00029093818739056587
4608.0,-0.0013631753390654922
5120.0,-0.001547770225442946
5632.0,-0.0010963602690026164
6144.0,-0.0009193868027068675
6656.0,0.0011192267993465066
7168.0,0.0005838127690367401
7680.0,-0.000757708097808063
8192.0,-0.0013926782412454486
end
