version,3.0
numOfCh,1
type,point
parent_name,714af_0dot2-1dot0
ch_type,1_1
kcount,1
numberNandB,1
brightnessNandB,1
carpet pos,0
pc,0
Time (ms),CH1 Auto-Correlation
1.0,0.016023311764001846
2.0,0.015612534247338772
3.0,0.015229240991175175
4.0,0.01485475804656744
5.0,0.014484192244708538
6.0,0.014134260825812817
7.0,0.013792537152767181
8.0,0.013461475260555744
9.0,0.013156562112271786
10.0,0.012847448699176311
11.0,0.012558880262076855
12.0,0.012269626371562481
13.0,0.011986495926976204
14.0,0.01171222422271967
15.0,0.011441299691796303
16.0,0.011180485598742962
18.0,0.010695154778659344
20.0,0.010243910364806652
22.0,0.009834902361035347
24.0,0.009464032016694546
26.0,0.009122541174292564
28.0,0.008761805482208729
30.0,0.008421122096478939
32.0,0.008099772036075592
36.0,0.00749684264883399
40.0,0.006945338565856218
44.0,0.006386628840118647
48.0,0.005891827866435051
52.0,0.005450110882520676
56.0,0.0050461748614907265
60.0,0.004655108787119389
64.0,0.004324199166148901
72.0,0.00370612321421504
80.0,0.0031248873565346003
88.0,0.0028227721340954304
96.0,0.0026205016765743494
104.0,0.002436902141198516
112.0,0.0021920125000178814
120.0,0.0018641036003828049
128.0,0.001413628924638033
144.0,0.0008431281894445419
160.0,0.0007189388270489872
176.0,0.0006548741366714239
192.0,0.0008775393944233656
208.0,0.0007986384443938732
224.0,0.0008637525606900454
240.0,0.0009711905149742961
256.0,0.0007894534501247108
288.0,0.000886221881955862
320.0,0.0010206365259364247
352.0,0.0010914794402197003
384.0,0.0009803466964513063
416.0,0.0012186781968921423
448.0,0.0010571255115792155
480.0,0.001283705816604197
512.0,0.0014890828169882298
576.0,0.0003002568264491856
640.0,1.8643664589035325e-05
704.0,-0.000334362150169909
768.0,0.0008443736587651074
832.0,0.0012155434815213084
896.0,0.00045553818927146494
960.0,0.0006835082313045859
1024.0,0.0013197632506489754
1152.0,0.0005332809523679316
1280.0,0.00019952507864218205
1408.0,-0.0011854314943775535
1536.0,-0.0009647120605222881
1664.0,0.00042144625331275165
1792.0,0.0003462648019194603
1920.0,-4.569828524836339e-05
2048.0,0.0004012579738628119
2304.0,-0.0009114613058045506
2560.0,-4.915993122267537e-05
2816.0,-0.00037054382846690714
3072.0,-0.00014377667685039341
3328.0,-0.0007235408993437886
3584.0,-0.0012267673155292869
3840.0,-0.0015446002362295985
4096.0,-0.0019489675760269165
4608.0,-0.0008741251076571643
5120.0,-0.001046821242198348
5632.0,-0.00012143672211095691
6144.0,0.0004956580232828856
6656.0,-0.00042486641905270517
7168.0,-0.00027851303457282484
7680.0,0.0008097231038846076
8192.0,0.0013231794582679868
end
