version,3.0
numOfCh,1
type,point
parent_name,714af_0dot2-1dot0
ch_type,1_1
kcount,1
numberNandB,1
brightnessNandB,1
carpet pos,0
pc,0
Time (ms),CH1 Auto-Correlation
1.0,0.01966003142297268
2.0,0.019252758473157883
3.0,0.018876222893595695
4.0,0.018509062007069588
5.0,0.018152723088860512
6.0,0.017798610031604767
7.0,0.01746763475239277
8.0,0.017150431871414185
9.0,0.01684235967695713
10.0,0.016549229621887207
11.0,0.01626475155353546
12.0,0.015994707122445107
13.0,0.015736430883407593
14.0,0.015478863380849361
15.0,0.015230453573167324
16.0,0.014989923685789108
18.0,0.014515254646539688
20.0,0.014080132357776165
22.0,0.013672768138349056
24.0,0.013279303908348083
26.0,0.012907878495752811
28.0,0.012578388676047325
30.0,0.012259691022336483
32.0,0.011944394558668137
36.0,0.011304212734103203
40.0,0.010698528029024601
44.0,0.01014410238713026
48.0,0.009626817889511585
52.0,0.009161774069070816
56.0,0.008749219588935375
60.0,0.008400358259677887
64.0,0.00807405635714531
72.0,0.0075376941822469234
80.0,0.007177676539868116
88.0,0.0067662447690963745
96.0,0.006423391401767731
104.0,0.006218555849045515
112.0,0.006019244901835918
120.0,0.0057286107912659645
128.0,0.005245586391538382
144.0,0.004588422365486622
160.0,0.004384580999612808
176.0,0.004428352694958448
192.0,0.004479035269469023
208.0,0.004452426452189684
224.0,0.0047403122298419476
240.0,0.00502959406003356
256.0,0.005155961960554123
288.0,0.004426299128681421
320.0,0.003274669172242284
352.0,0.0029343615751713514
384.0,0.002002785447984934
416.0,0.000929112546145916
448.0,0.0008984247106127441
480.0,0.0012637933250516653
512.0,0.0008810737053863704
576.0,-0.0009100477327592671
640.0,-0.0014851150335744023
704.0,-0.001303982688114047
768.0,-0.0005313381552696228
832.0,-0.0014989187475293875
896.0,-0.0021599868778139353
960.0,-0.001638676505535841
1024.0,-0.0005141859874129295
1152.0,-0.0003586776147130877
1280.0,-0.0006662299274466932
1408.0,-0.0007437615422531962
1536.0,0.00020136464445386082
1664.0,0.00037229928420856595
1792.0,0.0002947312023025006
1920.0,0.0010471625719219446
2048.0,0.0006692952010780573
2304.0,0.00028339435812085867
2560.0,0.00020915981440339237
2816.0,0.00044239446287974715
3072.0,-0.00023242209863383323
3328.0,-5.659449379891157e-05
3584.0,-0.0014553404180333018
3840.0,-0.00363272987306118
4096.0,-0.00443224236369133
4608.0,-0.0006157414172776043
5120.0,0.0018081906018778682
5632.0,-0.0015731147723272443
6144.0,0.00015363245620392263
6656.0,0.0003737728111445904
7168.0,-0.0002597770362626761
7680.0,5.378802597988397e-05
8192.0,0.00267306761816144
end
