version,3.0
numOfCh,1
type,point
parent_name,714af_0dot2-1dot0
ch_type,1_1
kcount,1
numberNandB,1
brightnessNandB,1
carpet pos,0
pc,0
Time (ms),CH1 Auto-Correlation
1.0,0.026666108518838882
2.0,0.026256807148456573
3.0,0.02587183378636837
4.0,0.025493277236819267
5.0,0.02513575553894043
6.0,0.024800749495625496
7.0,0.02447226643562317
8.0,0.024151848629117012
9.0,0.023834072053432465
10.0,0.023526350036263466
11.0,0.023228973150253296
12.0,0.022944100201129913
13.0,0.02266611158847809
14.0,0.022408325225114822
15.0,0.022157002240419388
16.0,0.021921800449490547
18.0,0.02147144079208374
20.0,0.021036598831415176
22.0,0.02060972899198532
24.0,0.020223500207066536
26.0,0.019886363297700882
28.0,0.01956900581717491
30.0,0.01925896480679512
32.0,0.018962495028972626
36.0,0.018421825021505356
40.0,0.017917899414896965
44.0,0.017438556998968124
48.0,0.017006346955895424
52.0,0.01663246378302574
56.0,0.016273120418190956
60.0,0.015911776572465897
64.0,0.015570111572742462
72.0,0.014980136416852474
80.0,0.014327150769531727
88.0,0.01362566277384758
96.0,0.012898683547973633
104.0,0.01219580601900816
112.0,0.011572783812880516
120.0,0.011060882359743118
128.0,0.010520677082240582
144.0,0.009356976486742496
160.0,0.007964733056724072
176.0,0.00663096783682704
192.0,0.005991112906485796
208.0,0.005835526157170534
224.0,0.005388116464018822
240.0,0.004438180010765791
256.0,0.0038748634979128838
288.0,0.0031135345343500376
320.0,0.0024672949220985174
352.0,0.0022749395575374365
384.0,0.0017253748374059796
416.0,0.0012753407936543226
448.0,0.0010008154204115272
480.0,0.0010076911421492696
512.0,0.0006250534206628799
576.0,-3.5777120501734316e-05
640.0,-0.00087087566498667
704.0,-0.0021348956506699324
768.0,-0.0016021805349737406
832.0,-0.0017016110941767693
896.0,-0.0016608212608844042
960.0,-0.0011980311246588826
1024.0,-0.0004569208831526339
1152.0,-0.0006008403142914176
1280.0,0.0005115740350447595
1408.0,0.0023880384396761656
1536.0,0.0011615903349593282
1664.0,-0.000175718407263048
1792.0,-0.0006377803510986269
1920.0,-0.0011027358705177903
2048.0,-0.0029550716280937195
2304.0,-0.004957885947078466
2560.0,-0.005502723157405853
2816.0,-0.002624424174427986
3072.0,-0.002413960173726082
3328.0,-0.001535720773972571
3584.0,-0.0006524961208924651
3840.0,-0.000722093100193888
4096.0,-0.001989704789593816
4608.0,0.0006074045668356121
5120.0,-0.00027067665359936655
5632.0,0.0014423595275729895
6144.0,0.0057414076291024685
6656.0,0.0019484655931591988
7168.0,0.001172005315311253
7680.0,0.0002955796953756362
8192.0,-0.0039276182651519775
end
