version,3.0
numOfCh,1
type,point
parent_name,19e3e_0dot4-0dot01
ch_type,1_1
kcount,1
numberNandB,1
brightnessNandB,1
carpet pos,0
pc,0
Time (ms),CH1 Auto-Correlation
1.0,0.06905971467494965
2.0,0.06788354367017746
3.0,0.06677315384149551
4.0,0.06568124145269394
5.0,0.06463878601789474
6.0,0.06361746788024902
7.0,0.06262663006782532
8.0,0.06166669353842735
9.0,0.06072564050555229
10.0,0.05979875475168228
11.0,0.058874018490314484
12.0,0.057989269495010376
13.0,0.057115402072668076
14.0,0.05625397339463234
15.0,0.05545024573802948
16.0,0.054670851677656174
18.0,0.05314664542675018
20.0,0.05186017230153084
22.0,0.05065980181097984
24.0,0.04958271607756615
26.0,0.04854384437203407
28.0,0.04766809940338135
30.0,0.046913471072912216
32.0,0.0462704561650753
36.0,0.04492829367518425
40.0,0.043493688106536865
44.0,0.04202341288328171
48.0,0.04062458127737045
52.0,0.03934085741639137
56.0,0.038008928298950195
60.0,0.03675105795264244
64.0,0.03572699800133705
72.0,0.034162525087594986
80.0,0.032888177782297134
88.0,0.03188474848866463
96.0,0.03152407333254814
104.0,0.031265150755643845
112.0,0.030592381954193115
120.0,0.030387766659259796
128.0,0.03053782321512699
144.0,0.02986152283847332
160.0,0.029171813279390335
176.0,0.028312725946307182
192.0,0.026117539033293724
208.0,0.023912249132990837
224.0,0.021259404718875885
240.0,0.020023170858621597
256.0,0.01810126192867756
288.0,0.01534250844269991
320.0,0.013558542355895042
352.0,0.013062013313174248
384.0,0.011396864429116249
416.0,0.011297972872853279
448.0,0.009425872936844826
480.0,0.009131839498877525
512.0,0.008073556236922741
576.0,0.011709047481417656
640.0,0.013407197780907154
704.0,0.00995567161589861
768.0,0.008815428242087364
832.0,0.00504570035263896
896.0,0.0008877530926838517
960.0,-0.0005408761790022254
1024.0,-0.0043580844067037106
1152.0,-0.0016665335278958082
1280.0,0.0003658896894194186
1408.0,-0.0003743566630873829
1536.0,-0.0014598713023588061
1664.0,-0.006820619106292725
1792.0,-0.009319628588855267
1920.0,-0.00788103323429823
2048.0,-0.006785488221794367
2304.0,-0.008548401296138763
2560.0,-0.00648683775216341
2816.0,0.0004492000152822584
3072.0,-0.004545649513602257
3328.0,0.0028138947673141956
3584.0,0.0008371302974410355
3840.0,-0.005995270796120167
4096.0,-0.001279351650737226
4608.0,-0.0027009546756744385
5120.0,-0.004794703796505928
5632.0,-0.006939261220395565
6144.0,-0.012935628183186054
6656.0,-0.015667792409658432
7168.0,-0.0010070290882140398
7680.0,0.02187095582485199
8192.0,0.0205974280834198
end
