version,3.0
numOfCh,1
type,point
parent_name,19e3e_0dot4-0dot01
ch_type,1_1
kcount,1
numberNandB,1
brightnessNandB,1
carpet pos,0
pc,0
Time (ms),CH1 Auto-Correlation
1.0,0.04615473747253418
2.0,0.04494117200374603
3.0,0.04383351653814316
4.0,0.042790431529283524
5.0,0.04179949313402176
6.0,0.040822599083185196
7.0,0.03984777629375458
8.0,0.03892052173614502
9.0,0.0380302295088768
10.0,0.037202004343271255
11.0,0.036393050104379654
12.0,0.03561222553253174
13.0,0.0348861925303936
14.0,0.03419889882206917
15.0,0.03354022279381752
16.0,0.0329405814409256
18.0,0.03183899447321892
20.0,0.030790667980909348
22.0,0.02975858747959137
24.0,0.028827980160713196
26.0,0.02799162268638611
28.0,0.02720721997320652
30.0,0.026474924758076668
32.0,0.025834945961833
36.0,0.024710943922400475
40.0,0.023660676553845406
44.0,0.022824840620160103
48.0,0.022019358351826668
52.0,0.021221790462732315
56.0,0.020569656044244766
60.0,0.020086435601115227
64.0,0.019670678302645683
72.0,0.018762873485684395
80.0,0.018066594377160072
88.0,0.017125779762864113
96.0,0.01574706844985485
104.0,0.014588683843612671
112.0,0.013722559437155724
120.0,0.012744294479489326
128.0,0.012153136543929577
144.0,0.01151315588504076
160.0,0.010870760306715965
176.0,0.00949069857597351
192.0,0.009419734589755535
208.0,0.009400270879268646
224.0,0.009418061934411526
240.0,0.008801793679594994
256.0,0.007423774339258671
288.0,0.0074860937893390656
320.0,0.007414250634610653
352.0,0.007081184536218643
384.0,0.008757698349654675
416.0,0.01030041929334402
448.0,0.010431217029690742
480.0,0.009121631272137165
512.0,0.0065744598396122456
576.0,0.00661864597350359
640.0,0.006809366401284933
704.0,0.003879045369103551
768.0,0.0039202990010380745
832.0,0.00501087075099349
896.0,0.0036411143373697996
960.0,0.002959153614938259
1024.0,0.004870173521339893
1152.0,0.004124481696635485
1280.0,0.0037718829698860645
1408.0,0.003123429138213396
1536.0,-0.0007700379937887192
1664.0,-0.0024624988436698914
1792.0,-0.003788149682804942
1920.0,-0.004355775658041239
2048.0,-0.0027461794670671225
2304.0,-0.0019330327631905675
2560.0,-0.001203156658448279
2816.0,-0.002325694542378187
3072.0,-0.004299418069422245
3328.0,-0.007062698248773813
3584.0,-0.006742134690284729
3840.0,-0.006486339028924704
4096.0,-0.0027964455075562
4608.0,-0.006729897577315569
5120.0,-0.005551502574235201
5632.0,-0.004521702881902456
6144.0,-0.004860453773289919
6656.0,0.0025310441851615906
7168.0,0.004658691585063934
7680.0,0.002337032463401556
8192.0,0.005810481030493975
end
