version,3.0
numOfCh,1
type,point
parent_name,19e3e_0dot4-0dot01
ch_type,1_1
kcount,1
numberNandB,1
brightnessNandB,1
carpet pos,0
pc,0
Time (ms),CH1 Auto-Correlation
1.0,0.03366558998823166
2.0,0.03255857899785042
3.0,0.03154861554503441
4.0,0.030614793300628662
5.0,0.02976272627711296
6.0,0.02893209643661976
7.0,0.02810254506766796
8.0,0.027301210910081863
9.0,0.026566538959741592
10.0,0.025873862206935883
11.0,0.025211280211806297
12.0,0.02461879700422287
13.0,0.02402300015091896
14.0,0.023433001711964607
15.0,0.022883586585521698
16.0,0.022373944520950317
18.0,0.02136998251080513
20.0,0.020424403250217438
22.0,0.01956702582538128
24.0,0.018766865134239197
26.0,0.01800491288304329
28.0,0.017279930412769318
30.0,0.01662834733724594
32.0,0.01605815626680851
36.0,0.015129349194467068
40.0,0.01438808161765337
44.0,0.013664552010595798
48.0,0.013039510697126389
52.0,0.012445097789168358
56.0,0.011942449025809765
60.0,0.011652214452624321
64.0,0.011261086910963058
72.0,0.010449553839862347
80.0,0.009644736535847187
88.0,0.00870436243712902
96.0,0.00780587550252676
104.0,0.007113162893801928
112.0,0.006684189196676016
120.0,0.00604983838275075
128.0,0.005403886083513498
144.0,0.004476596601307392
160.0,0.004042657557874918
176.0,0.003484579734504223
192.0,0.00347504997625947
208.0,0.0035567241720855236
224.0,0.003562148427590728
240.0,0.0037354680243879557
256.0,0.00369949359446764
288.0,0.004132852889597416
320.0,0.0029663918539881706
352.0,0.0031065652146935463
384.0,0.0027282489463686943
416.0,0.0018826512387022376
448.0,0.002289984840899706
480.0,0.001628787606023252
512.0,2.9038106731604785e-05
576.0,0.0006130888359621167
640.0,0.00082850904436782
704.0,0.0018379864050075412
768.0,0.0026265291962772608
832.0,0.002615202683955431
896.0,0.0011236397549510002
960.0,0.000630417198408395
1024.0,0.0013756679836660624
1152.0,-0.0018805452855303884
1280.0,-0.003652972634881735
1408.0,-0.0020208237692713737
1536.0,-0.0012726933928206563
1664.0,-0.0010651940247043967
1792.0,-0.0021902339067310095
1920.0,-0.002944132313132286
2048.0,-0.0018927844939753413
2304.0,-0.003068036399781704
2560.0,-0.0029074300546199083
2816.0,-0.0017126640304923058
3072.0,0.0004976524505764246
3328.0,0.0013415389694273472
3584.0,0.0021861616987735033
3840.0,0.0025198946241289377
4096.0,0.00173608073964715
4608.0,0.0022964393720030785
5120.0,-0.00018407164316158742
5632.0,-0.0029073855839669704
6144.0,-0.0035677121486514807
6656.0,-0.002809282159432769
7168.0,-0.00043014134280383587
7680.0,0.000675117305945605
8192.0,0.005509194917976856
end
