version,3.0
numOfCh,1
type,point
parent_name,19e3e_0dot4-0dot01
ch_type,1_1
kcount,1
numberNandB,1
brightnessNandB,1
carpet pos,0
pc,0
Time (ms),CH1 Auto-Correlation
1.0,0.05169794708490372
2.0,0.05052006617188454
3.0,0.049433495849370956
4.0,0.04841707646846771
5.0,0.04744214564561844
6.0,0.04651806503534317
7.0,0.04563762992620468
8.0,0.044774528592824936
9.0,0.04393526166677475
10.0,0.04314384609460831
11.0,0.04242607206106186
12.0,0.04173208028078079
13.0,0.041094761341810226
14.0,0.04052553325891495
15.0,0.04001829773187637
16.0,0.039503149688243866
18.0,0.03865755721926689
20.0,0.03792623430490494
22.0,0.03719828650355339
24.0,0.036458004266023636
26.0,0.0357520692050457
28.0,0.035178035497665405
30.0,0.034621477127075195
32.0,0.03409651666879654
36.0,0.03311043977737427
40.0,0.03218798339366913
44.0,0.031343523412942886
48.0,0.030487243086099625
52.0,0.02948770672082901
56.0,0.028554892167448997
60.0,0.027747562155127525
64.0,0.026926284655928612
72.0,0.02540280856192112
80.0,0.023922182619571686
88.0,0.022640690207481384
96.0,0.02159954607486725
104.0,0.020208055153489113
112.0,0.019068647176027298
120.0,0.017880180850625038
128.0,0.016763998195528984
144.0,0.015126277692615986
160.0,0.013200308196246624
176.0,0.011151558719575405
192.0,0.009672733955085278
208.0,0.008991646580398083
224.0,0.00775681110098958
240.0,0.007392181549221277
256.0,0.007241074461489916
288.0,0.007521803956478834
320.0,0.007805955596268177
352.0,0.007169429212808609
384.0,0.006698098964989185
416.0,0.00558972405269742
448.0,0.00358076230622828
480.0,0.0033060815185308456
512.0,0.0030967597849667072
576.0,0.0034581313375383615
640.0,0.002643000800162554
704.0,0.0010370181407779455
768.0,-0.0022427241783589125
832.0,-0.004453179892152548
896.0,-0.005308084189891815
960.0,-0.004803802818059921
1024.0,-0.00466020917519927
1152.0,-0.004342162981629372
1280.0,-0.003374305088073015
1408.0,5.4332111176336184e-05
1536.0,0.0001951382728293538
1664.0,-0.002995527582243085
1792.0,-0.002457476919516921
1920.0,-0.005365449003875256
2048.0,-0.005056760273873806
2304.0,-0.001794830895960331
2560.0,0.001876524300314486
2816.0,0.005707097705453634
3072.0,0.005890734028071165
3328.0,0.0003230180009268224
3584.0,-0.007356445305049419
3840.0,-0.007887558080255985
4096.0,-0.003810199908912182
4608.0,-0.001096813939511776
5120.0,-0.0008677407749928534
5632.0,-0.0071104746311903
6144.0,-0.0038151973858475685
6656.0,-0.00036447131424210966
7168.0,0.0078342966735363
7680.0,0.010433644987642765
8192.0,-0.0008726890664547682
end
