version,3.0
numOfCh,1
type,point
parent_name,19e3e_0dot4-0dot01
ch_type,1_1
kcount,1
numberNandB,1
brightnessNandB,1
carpet pos,0
pc,0
Time (ms),CH1 Auto-Correlation
1.0,0.06319938600063324
2.0,0.06196999549865723
3.0,0.06079846993088722
4.0,0.05966664105653763
5.0,0.05854545533657074
6.0,0.05748077854514122
7.0,0.056475285440683365
8.0,0.05556909367442131
9.0,0.05471889674663544
10.0,0.05388054624199867
11.0,0.05308166891336441
12.0,0.052321657538414
13.0,0.05158328264951706
14.0,0.05086192488670349
15.0,0.05013224110007286
16.0,0.04942229017615318
18.0,0.04808740317821503
20.0,0.04689604043960571
22.0,0.045895542949438095
24.0,0.04500727728009224
26.0,0.04416344687342644
28.0,0.04342394322156906
30.0,0.04274427518248558
32.0,0.042114075273275375
36.0,0.04077862948179245
40.0,0.039537955075502396
44.0,0.038676917552948
48.0,0.0379982627928257
52.0,0.03723568096756935
56.0,0.036227427423000336
60.0,0.03526709973812103
64.0,0.03427928313612938
72.0,0.032287415117025375
80.0,0.03033195436000824
88.0,0.02858714759349823
96.0,0.027542509138584137
104.0,0.026892198249697685
112.0,0.026319483295083046
120.0,0.025670355185866356
128.0,0.025237876921892166
144.0,0.0244600810110569
160.0,0.024506239220499992
176.0,0.0236060731112957
192.0,0.02233275957405567
208.0,0.02040817402303219
224.0,0.018337132409214973
240.0,0.01608717069029808
256.0,0.013531588017940521
288.0,0.011393903754651546
320.0,0.011113225482404232
352.0,0.010392220690846443
384.0,0.009854120202362537
416.0,0.007885204628109932
448.0,0.004556041210889816
480.0,0.0019778499845415354
512.0,0.0020589965861290693
576.0,0.003084995783865452
640.0,-0.0004898826591670513
704.0,-5.566282652580412e-07
768.0,0.002350948052480817
832.0,-0.0001374114362988621
896.0,-0.0023394161835312843
960.0,-0.002348660258576274
1024.0,-0.0061911544762551785
1152.0,-0.007396314293146133
1280.0,-0.008107757195830345
1408.0,-0.009640755131840706
1536.0,-0.00930506456643343
1664.0,-0.0045269690454006195
1792.0,-0.004238311201334
1920.0,-0.009096289053559303
2048.0,-0.008056673221290112
2304.0,-0.005042317323386669
2560.0,0.005317830014973879
2816.0,0.005434227641671896
3072.0,0.0011273508425801992
3328.0,0.0036209896206855774
3584.0,0.0005922283744439483
3840.0,-0.005527323577553034
4096.0,-0.00959547609090805
4608.0,-0.01129692979156971
5120.0,0.005406907293945551
5632.0,0.010088947601616383
6144.0,0.012895412743091583
6656.0,0.0028664974961429834
7168.0,-0.01184772327542305
7680.0,-0.007066851947456598
8192.0,-0.0003244170802645385
end
