version,3.0
numOfCh,1
type,point
parent_name,19e3e_0dot4-0dot01
ch_type,1_1
kcount,1
numberNandB,1
brightnessNandB,1
carpet pos,0
pc,0
Time (ms),CH1 Auto-Correlation
1.0,0.06498263776302338
2.0,0.06382253766059875
3.0,0.06270112842321396
4.0,0.06160375475883484
5.0,0.06053223833441734
6.0,0.059560250490903854
7.0,0.05862908810377121
8.0,0.05775819346308708
9.0,0.05687600374221802
10.0,0.05600844696164131
11.0,0.05517440289258957
12.0,0.0543869324028492
13.0,0.05358029901981354
14.0,0.05281861498951912
15.0,0.05214278772473335
16.0,0.051450297236442566
18.0,0.050139155238866806
20.0,0.0489090271294117
22.0,0.04777367040514946
24.0,0.04670904204249382
26.0,0.0457744225859642
28.0,0.04485435411334038
30.0,0.04402383416891098
32.0,0.04329594597220421
36.0,0.04205862432718277
40.0,0.040798772126436234
44.0,0.03942850977182388
48.0,0.03830982372164726
52.0,0.03739084303379059
56.0,0.036497682332992554
60.0,0.035612668842077255
64.0,0.03482529893517494
72.0,0.03357570245862007
80.0,0.03241981565952301
88.0,0.03132712468504906
96.0,0.030397284775972366
104.0,0.029702341184020042
112.0,0.029260970652103424
120.0,0.028931915760040283
128.0,0.02818472310900688
144.0,0.02617494948208332
160.0,0.02399379387497902
176.0,0.02175097167491913
192.0,0.02037196420133114
208.0,0.01978755183517933
224.0,0.02006692625582218
240.0,0.019437972456216812
256.0,0.017044520005583763
288.0,0.01289041806012392
320.0,0.009222910739481449
352.0,0.007472034078091383
384.0,0.006452254019677639
416.0,0.003642359282821417
448.0,0.003455704776570201
480.0,0.004813802894204855
512.0,0.003098281566053629
576.0,0.0005947216995991766
640.0,-0.0014989395858719945
704.0,-0.0039576152339577675
768.0,-0.002154422691091895
832.0,-0.000327965070027858
896.0,-0.0014963691355660558
960.0,-0.0010228798491880298
1024.0,0.0010299611603841186
1152.0,0.003165757516399026
1280.0,0.0008585116593167186
1408.0,-0.003191217314451933
1536.0,-0.007304512895643711
1664.0,-0.011782903224229813
1792.0,-0.014235613867640495
1920.0,-0.010097646154463291
2048.0,-0.002283525187522173
2304.0,-0.0016596560599282384
2560.0,-0.0040278360247612
2816.0,-0.0056319343857467175
3072.0,0.00047114884364418685
3328.0,0.003551769070327282
3584.0,-0.010711892507970333
3840.0,-0.013257386162877083
4096.0,-0.0030051288194954395
4608.0,-0.0005602567689493299
5120.0,-0.02135615609586239
5632.0,0.003408122807741165
6144.0,0.0078803775832057
6656.0,0.028929777443408966
7168.0,0.012461327016353607
7680.0,0.0064708273857831955
8192.0,-0.023248443379998207
end
