version,3.0
numOfCh,1
type,point
parent_name,19e3e_0dot4-0dot01
ch_type,1_1
kcount,1
numberNandB,1
brightnessNandB,1
carpet pos,0
pc,0
Time (ms),CH1 Auto-Correlation
1.0,0.03213205933570862
2.0,0.031018923968076706
3.0,0.029964884743094444
4.0,0.02900003269314766
5.0,0.028092099353671074
6.0,0.02721606008708477
7.0,0.02640562318265438
8.0,0.02561677061021328
9.0,0.024859340861439705
10.0,0.024148646742105484
11.0,0.023464836180210114
12.0,0.022785605862736702
13.0,0.02215440198779106
14.0,0.02156844735145569
15.0,0.021011414006352425
16.0,0.020508626475930214
18.0,0.01959511823952198
20.0,0.018721483647823334
22.0,0.017931628972291946
24.0,0.017222648486495018
26.0,0.016575567424297333
28.0,0.01594947837293148
30.0,0.015338795259594917
32.0,0.014781119301915169
36.0,0.013673919253051281
40.0,0.012829861603677273
44.0,0.012281879782676697
48.0,0.011799398809671402
52.0,0.011357052251696587
56.0,0.010860665701329708
60.0,0.010286926291882992
64.0,0.009742224588990211
72.0,0.009115559980273247
80.0,0.00875034462660551
88.0,0.00801934115588665
96.0,0.007226862944662571
104.0,0.006874791346490383
112.0,0.006317103747278452
120.0,0.005755573511123657
128.0,0.005310717038810253
144.0,0.004426082130521536
160.0,0.00386195071041584
176.0,0.0033193440176546574
192.0,0.0031692953780293465
208.0,0.003052822081372142
224.0,0.003332093358039856
240.0,0.0029385294765233994
256.0,0.002641616854816675
288.0,0.002722256351262331
320.0,0.003774527693167329
352.0,0.0037355676759034395
384.0,0.002491478342562914
416.0,0.0012725067790597677
448.0,0.0013519886415451765
480.0,0.0007098958594724536
512.0,0.0010366361821070313
576.0,0.0027707875706255436
640.0,0.002872960641980171
704.0,0.0015608965186402202
768.0,0.0006353870267048478
832.0,-0.0012226474937051535
896.0,-0.0014739312464371324
960.0,-0.0015710791340097785
1024.0,-0.00129664596170187
1152.0,-0.0005949580227024853
1280.0,-0.0021000562701374292
1408.0,-0.0012155150761827826
1536.0,-0.0015063064638525248
1664.0,-0.0012550094397738576
1792.0,0.0016544407699257135
1920.0,-0.000499983667396009
2048.0,0.002506912685930729
2304.0,-0.0005846057902090251
2560.0,0.0016554987523704767
2816.0,-0.000528088363353163
3072.0,2.0028621293022297e-05
3328.0,0.00035667818156071007
3584.0,0.00033351281308569014
3840.0,-0.0012428105110302567
4096.0,-0.0009384989971294999
4608.0,-0.0008524184231646359
5120.0,0.00027617751038633287
5632.0,0.00012988918751943856
6144.0,-0.0022598656360059977
6656.0,-0.002324284054338932
7168.0,0.0018642297945916653
7680.0,0.0034273574128746986
8192.0,0.001709846779704094
end
