version,3.0
numOfCh,1
type,point
parent_name,19e3e_0dot4-0dot01
ch_type,1_1
kcount,1
numberNandB,1
brightnessNandB,1
carpet pos,0
pc,0
Time (ms),CH1 Auto-Correlation
1.0,0.4380497932434082
2.0,0.4363555908203125
3.0,0.4346758723258972
4.0,0.4331478476524353
5.0,0.4316324293613434
6.0,0.43022477626800537
7.0,0.42877376079559326
8.0,0.42741894721984863
9.0,0.4259997308254242
10.0,0.4245905578136444
11.0,0.42325904965400696
12.0,0.42195582389831543
13.0,0.42071983218193054
14.0,0.4195142388343811
15.0,0.4182592034339905
16.0,0.41698959469795227
18.0,0.4140811264514923
20.0,0.4116869866847992
22.0,0.40932413935661316
24.0,0.4069444537162781
26.0,0.40456944704055786
28.0,0.4022901654243469
30.0,0.4000217914581299
32.0,0.3977557420730591
36.0,0.39225324988365173
40.0,0.3876604437828064
44.0,0.3832969069480896
48.0,0.37926822900772095
52.0,0.3752686679363251
56.0,0.37098413705825806
60.0,0.36634916067123413
64.0,0.3622162938117981
72.0,0.3545936644077301
80.0,0.34739187359809875
88.0,0.3424835205078125
96.0,0.3385264575481415
104.0,0.3347720503807068
112.0,0.3300033509731293
120.0,0.3253348171710968
128.0,0.3212599456310272
144.0,0.31423065066337585
160.0,0.30914270877838135
176.0,0.30369389057159424
192.0,0.29647114872932434
208.0,0.2880837023258209
224.0,0.2806912064552307
240.0,0.2737556993961334
256.0,0.26675352454185486
288.0,0.24811968207359314
320.0,0.23338782787322998
352.0,0.22227351367473602
384.0,0.20950409770011902
416.0,0.1964712291955948
448.0,0.1822490394115448
480.0,0.1663801074028015
512.0,0.14958126842975616
576.0,0.12121538817882538
640.0,0.10468709468841553
704.0,0.07513947039842606
768.0,0.04885595664381981
832.0,0.028225582093000412
896.0,0.008626313880085945
960.0,-0.003047547535970807
1024.0,0.007090662606060505
1152.0,0.01647779531776905
1280.0,0.005244523752480745
1408.0,-0.00615480775013566
1536.0,-0.02127992734313011
1664.0,-0.034598708152770996
1792.0,-0.045121364295482635
1920.0,-0.055243756622076035
2048.0,-0.06304110586643219
2304.0,-0.06055012345314026
2560.0,-0.05153656750917435
2816.0,-0.06407421827316284
3072.0,-0.09960712492465973
3328.0,-0.11536446958780289
3584.0,-0.1291712522506714
3840.0,-0.13553322851657867
4096.0,-0.13525553047657013
4608.0,-0.08861088752746582
5120.0,-0.04063474014401436
5632.0,-0.03342132642865181
6144.0,0.023480674251914024
6656.0,0.0561697855591774
7168.0,0.05690925195813179
7680.0,0.0680408924818039
8192.0,0.06774648278951645
end
