version,3.0
numOfCh,1
type,point
parent_name,19e3e_0dot4-0dot01
ch_type,1_1
kcount,1
numberNandB,1
brightnessNandB,1
carpet pos,0
pc,0
Time (ms),CH1 Auto-Correlation
1.0,0.033630359917879105
2.0,0.03244343772530556
3.0,0.03136775642633438
4.0,0.03035571798682213
5.0,0.029417699202895164
6.0,0.02851404808461666
7.0,0.027640387415885925
8.0,0.026833482086658478
9.0,0.026072794571518898
10.0,0.025344625115394592
11.0,0.024670857936143875
12.0,0.024064868688583374
13.0,0.02350584976375103
14.0,0.022929377853870392
15.0,0.022425120696425438
16.0,0.021946290507912636
18.0,0.02106020413339138
20.0,0.02014465257525444
22.0,0.01923956349492073
24.0,0.0184169951826334
26.0,0.017609253525733948
28.0,0.01685703545808792
30.0,0.01617700234055519
32.0,0.015495209023356438
36.0,0.014278879389166832
40.0,0.013231255114078522
44.0,0.012404785491526127
48.0,0.011634128168225288
52.0,0.010819385759532452
56.0,0.010184849612414837
60.0,0.009836146607995033
64.0,0.009461172856390476
72.0,0.008543494157493114
80.0,0.007887001149356365
88.0,0.00722056720405817
96.0,0.006537250243127346
104.0,0.0061828079633414745
112.0,0.0059948633424937725
120.0,0.005757846403867006
128.0,0.00564254354685545
144.0,0.005119208712130785
160.0,0.004346112255007029
176.0,0.0038581611588597298
192.0,0.004165441729128361
208.0,0.0040832688100636005
224.0,0.003662239061668515
240.0,0.0037484706845134497
256.0,0.0038374352734535933
288.0,0.003775942837819457
320.0,0.004114015959203243
352.0,0.0033757733181118965
384.0,0.0020588827319443226
416.0,0.0004566392453853041
448.0,-0.0001223327126353979
480.0,-0.0007849689573049545
512.0,-0.0005945744342170656
576.0,4.180346877546981e-05
640.0,9.2410045908764e-05
704.0,0.00021283532259985805
768.0,-0.00012530639651231468
832.0,0.0004845043586101383
896.0,0.0017808699049055576
960.0,0.0034935406874865294
1024.0,0.002956256503239274
1152.0,0.0015049444045871496
1280.0,0.002629969036206603
1408.0,0.0024524761829525232
1536.0,0.002391968620941043
1664.0,0.0003327339654788375
1792.0,-0.002095468109473586
1920.0,-0.00048618705477565527
2048.0,0.0005838425713591278
2304.0,0.0009304260602220893
2560.0,0.0013648003805428743
2816.0,0.0010856306180357933
3072.0,0.00010826162906596437
3328.0,-0.00091029261238873
3584.0,0.0011119421105831861
3840.0,0.00045112939551472664
4096.0,-3.023734643647913e-05
4608.0,-0.003029216779395938
5120.0,-0.003245095955207944
5632.0,-0.0024845676962286234
6144.0,-0.002407978754490614
6656.0,-0.003393215360119939
7168.0,0.00022507912945002317
7680.0,-0.0007873918511904776
8192.0,-0.0027245068922638893
end
