version,3.0
numOfCh,1
type,point
parent_name,19e3e_0dot4-0dot01
ch_type,1_1
kcount,1
numberNandB,1
brightnessNandB,1
carpet pos,0
pc,0
Time (ms),CH1 Auto-Correlation
1.0,0.13157321512699127
2.0,0.13003584742546082
3.0,0.12853042781352997
4.0,0.1270359456539154
5.0,0.1256711632013321
6.0,0.12435752153396606
7.0,0.12313777208328247
8.0,0.12197785824537277
9.0,0.12086743116378784
10.0,0.11978009343147278
11.0,0.1187346801161766
12.0,0.1177416518330574
13.0,0.11681541800498962
14.0,0.11595286428928375
15.0,0.11512867361307144
16.0,0.11437366902828217
18.0,0.11286066472530365
20.0,0.11136337369680405
22.0,0.1098964512348175
24.0,0.10840241611003876
26.0,0.10685793310403824
28.0,0.1053238958120346
30.0,0.10386965423822403
32.0,0.1025322675704956
36.0,0.10041983425617218
40.0,0.09878884255886078
44.0,0.09695295989513397
48.0,0.0947800725698471
52.0,0.0926159918308258
56.0,0.09103657305240631
60.0,0.08957014232873917
64.0,0.08773685991764069
72.0,0.08390966057777405
80.0,0.08024471998214722
88.0,0.07676590979099274
96.0,0.07370086014270782
104.0,0.07056798785924911
112.0,0.06734106689691544
120.0,0.06443890184164047
128.0,0.06175583228468895
144.0,0.058608077466487885
160.0,0.05440743640065193
176.0,0.04833521693944931
192.0,0.041860420256853104
208.0,0.03656857833266258
224.0,0.029948430135846138
240.0,0.02289753220975399
256.0,0.017062120139598846
288.0,0.009292316623032093
320.0,0.002960741985589266
352.0,-0.0009354156209155917
384.0,-0.00421675993129611
416.0,-0.00544549198821187
448.0,-0.008236095309257507
480.0,-0.011992346495389938
512.0,-0.014086861163377762
576.0,-0.016080277040600777
640.0,-0.018794579431414604
704.0,-0.018668757751584053
768.0,-0.016212444752454758
832.0,-0.014585314318537712
896.0,-0.014153053052723408
960.0,-0.014904728159308434
1024.0,-0.017035238444805145
1152.0,-0.015454109758138657
1280.0,-0.005353666376322508
1408.0,0.006684713996946812
1536.0,0.010529063642024994
1664.0,0.008791787549853325
1792.0,0.006131993141025305
1920.0,-0.0011014712508767843
2048.0,-0.007687012664973736
2304.0,-0.009451684542000294
2560.0,-0.0038619113620370626
2816.0,-0.009194349870085716
3072.0,-0.02118891291320324
3328.0,-0.013045273721218109
3584.0,0.0037581815849989653
3840.0,0.00023802854411769658
4096.0,0.01098716352134943
4608.0,0.007766664959490299
5120.0,-0.013818729668855667
5632.0,0.02612270787358284
6144.0,0.020952817052602768
6656.0,-0.005222581326961517
7168.0,-0.014924813061952591
7680.0,-0.02058621495962143
8192.0,-0.0405983105301857
end
