version,3.0
numOfCh,1
type,point
parent_name,19e3e_0dot4-0dot01
ch_type,1_1
kcount,1
numberNandB,1
brightnessNandB,1
carpet pos,0
pc,0
Time (ms),CH1 Auto-Correlation
1.0,0.12444256246089935
2.0,0.12294454127550125
3.0,0.12141971290111542
4.0,0.12003994733095169
5.0,0.118754543364048
6.0,0.11750189960002899
7.0,0.11632520705461502
8.0,0.1151638850569725
9.0,0.1139901652932167
10.0,0.11291943490505219
11.0,0.11184591799974442
12.0,0.11084634810686111
13.0,0.10991370677947998
14.0,0.10900961607694626
15.0,0.10811657458543777
16.0,0.10723552852869034
18.0,0.10544630140066147
20.0,0.10367123037576675
22.0,0.10202623903751373
24.0,0.10032285749912262
26.0,0.09853661805391312
28.0,0.09674715995788574
30.0,0.09508645534515381
32.0,0.0935308188199997
36.0,0.0905204489827156
40.0,0.08787260949611664
44.0,0.08523889631032944
48.0,0.08284753561019897
52.0,0.08037453144788742
56.0,0.07814203202724457
60.0,0.07590718567371368
64.0,0.07400093972682953
72.0,0.07121077179908752
80.0,0.06922143697738647
88.0,0.06797469407320023
96.0,0.06620609015226364
104.0,0.06439816206693649
112.0,0.06323040276765823
120.0,0.062075573951005936
128.0,0.06073544919490814
144.0,0.05986009165644646
160.0,0.058686934411525726
176.0,0.0566563718020916
192.0,0.05552880838513374
208.0,0.05562768131494522
224.0,0.055167533457279205
240.0,0.05481300503015518
256.0,0.05497771129012108
288.0,0.05280635505914688
320.0,0.049336519092321396
352.0,0.04642947390675545
384.0,0.045808713883161545
416.0,0.0463307648897171
448.0,0.04735098406672478
480.0,0.04765461012721062
512.0,0.047863222658634186
576.0,0.04326740652322769
640.0,0.03513825684785843
704.0,0.03114508092403412
768.0,0.03079465962946415
832.0,0.029880572110414505
896.0,0.029588274657726288
960.0,0.025304492563009262
1024.0,0.02337113954126835
1152.0,0.017633726820349693
1280.0,0.005062941461801529
1408.0,0.005825514439493418
1536.0,-0.0004951698356308043
1664.0,0.0004837761807721108
1792.0,-0.0007360387244261801
1920.0,2.7016334570362233e-05
2048.0,0.0014963119756430387
2304.0,-0.001273587578907609
2560.0,0.003326491918414831
2816.0,0.0015347592998296022
3072.0,0.00045088055776432157
3328.0,-0.0034175089094787836
3584.0,-0.003916401881724596
3840.0,-0.010912585072219372
4096.0,-0.014300401322543621
4608.0,-0.016236286610364914
5120.0,-0.019665099680423737
5632.0,-0.021522266790270805
6144.0,-0.014505107887089252
6656.0,-0.024693651124835014
7168.0,-0.036008335649967194
7680.0,-0.04278796538710594
8192.0,-0.02734636515378952
end
