version,3.0
numOfCh,1
type,point
parent_name,19e3e_0dot4-0dot01
ch_type,1_1
kcount,1
numberNandB,1
brightnessNandB,1
carpet pos,0
pc,0
Time (ms),CH1 Auto-Correlation
1.0,0.03526628762483597
2.0,0.034070033580064774
3.0,0.03292103111743927
4.0,0.03185851871967316
5.0,0.030858147889375687
6.0,0.029908092692494392
7.0,0.029023557901382446
8.0,0.02817993052303791
9.0,0.027373934164643288
10.0,0.026630915701389313
11.0,0.02593538910150528
12.0,0.02529306337237358
13.0,0.02467302232980728
14.0,0.02408437989652157
15.0,0.023520123213529587
16.0,0.022979261353611946
18.0,0.021894562989473343
20.0,0.020907437428832054
22.0,0.019971409812569618
24.0,0.019106026738882065
26.0,0.018318723887205124
28.0,0.01764841563999653
30.0,0.017097577452659607
32.0,0.016520867124199867
36.0,0.01542636752128601
40.0,0.0142733845859766
44.0,0.01310102827847004
48.0,0.012091945856809616
52.0,0.011172907426953316
56.0,0.010308949276804924
60.0,0.009644498117268085
64.0,0.00923070590943098
72.0,0.008073191158473492
80.0,0.007190235424786806
88.0,0.0065267737954854965
96.0,0.005915348883718252
104.0,0.00550828967243433
112.0,0.005200835410505533
120.0,0.004981632810086012
128.0,0.004802238196134567
144.0,0.00475593376904726
160.0,0.004069537855684757
176.0,0.0038521888200193644
192.0,0.004054476972669363
208.0,0.003989380784332752
224.0,0.004082499071955681
240.0,0.002995619084686041
256.0,0.0016267510363832116
288.0,-5.3763702453579754e-05
320.0,-0.0004957132623530924
352.0,0.0007439950713887811
384.0,0.0015335364732891321
416.0,0.0014362598303705454
448.0,0.001854180940426886
480.0,0.0014995175879448652
512.0,0.0004277099505998194
576.0,0.0033399066887795925
640.0,0.004003222566097975
704.0,0.0022143900860100985
768.0,0.0013612692710012197
832.0,0.0021610555704683065
896.0,0.0020306939259171486
960.0,0.0008481681579723954
1024.0,1.978447471628897e-05
1152.0,0.002024303423240781
1280.0,0.0026475281920284033
1408.0,0.0027732611633837223
1536.0,0.0029801258351653814
1664.0,0.0013043255312368274
1792.0,0.0030597893055528402
1920.0,0.0023819461930543184
2048.0,0.001914347754791379
2304.0,0.0014624791219830513
2560.0,0.001968266209587455
2816.0,0.0017739658942446113
3072.0,0.0007986924611032009
3328.0,0.002120231743901968
3584.0,-0.000598887272644788
3840.0,0.0008472217596136034
4096.0,0.00118960568215698
4608.0,0.0005210149101912975
5120.0,-0.0005675177671946585
5632.0,0.0001887803664430976
6144.0,0.00032449932768940926
6656.0,-0.0020992227364331484
7168.0,-0.0009212121367454529
7680.0,-0.0017107885796576738
8192.0,-0.003182943444699049
end
