version,3.0
numOfCh,1
type,point
parent_name,19e3e_0dot4-0dot01
ch_type,1_1
kcount,1
numberNandB,1
brightnessNandB,1
carpet pos,0
pc,0
Time (ms),CH1 Auto-Correlation
1.0,0.0359094999730587
2.0,0.03474270924925804
3.0,0.03363697603344917
4.0,0.032616931945085526
5.0,0.03162570297718048
6.0,0.030668601393699646
7.0,0.029742466285824776
8.0,0.028898032382130623
9.0,0.028128130361437798
10.0,0.027373088523745537
11.0,0.02661794424057007
12.0,0.025938870385289192
13.0,0.025294490158557892
14.0,0.024707524105906487
15.0,0.024143142625689507
16.0,0.023628782480955124
18.0,0.02262554131448269
20.0,0.021718880161643028
22.0,0.020835217088460922
24.0,0.02002832107245922
26.0,0.019197724759578705
28.0,0.018445832654833794
30.0,0.01774699240922928
32.0,0.017137711867690086
36.0,0.01607361249625683
40.0,0.015094541013240814
44.0,0.014204717241227627
48.0,0.013551429845392704
52.0,0.013015126809477806
56.0,0.0124247120693326
60.0,0.01183263584971428
64.0,0.011290517635643482
72.0,0.01084006205201149
80.0,0.010562309063971043
88.0,0.010236947797238827
96.0,0.009986283257603645
104.0,0.009859769605100155
112.0,0.0099327452480793
120.0,0.0100476099178195
128.0,0.009998457506299019
144.0,0.009092127904295921
160.0,0.008739729411900043
176.0,0.008160781115293503
192.0,0.007688441313803196
208.0,0.007366427220404148
224.0,0.007105393335223198
240.0,0.0070350863970816135
256.0,0.006764628458768129
288.0,0.0062143439427018166
320.0,0.004840389359742403
352.0,0.0043222736567258835
384.0,0.005014350637793541
416.0,0.0035673766396939754
448.0,0.0035009775310754776
480.0,0.003923476208001375
512.0,0.0018545219209045172
576.0,-0.0009348461171612144
640.0,-0.0023391747381538153
704.0,-0.0022634200286120176
768.0,-0.0035216286778450012
832.0,-0.004498767666518688
896.0,-0.003194978926330805
960.0,-0.004895840305835009
1024.0,-0.005668077152222395
1152.0,-0.006142378319054842
1280.0,-0.005094254855066538
1408.0,-0.002987407147884369
1536.0,-0.0027645728550851345
1664.0,-0.00016297574620693922
1792.0,0.0005608774954453111
1920.0,0.0015868988120928407
2048.0,0.0023012447636574507
2304.0,0.0028618313372135162
2560.0,0.0022003815975040197
2816.0,-0.0006350923213176429
3072.0,-0.001367264543659985
3328.0,-0.002478798385709524
3584.0,-0.0009717728244140744
3840.0,0.0005535489763133228
4096.0,0.000978022930212319
4608.0,-0.0003757751255761832
5120.0,0.0009445291943848133
5632.0,0.001799965975806117
6144.0,-0.002172381617128849
6656.0,-0.002597958082333207
7168.0,1.559350494062528e-05
7680.0,0.0034573101438581944
8192.0,0.0015485408948734403
end
