version,3.0
numOfCh,1
type,point
parent_name,19e3e_0dot4-0dot01
ch_type,1_1
kcount,1
numberNandB,1
brightnessNandB,1
carpet pos,0
pc,0
Time (ms),CH1 Auto-Correlation
1.0,0.037970397621393204
2.0,0.03681390732526779
3.0,0.035744693130254745
4.0,0.034723199903964996
5.0,0.03375060856342316
6.0,0.03281534090638161
7.0,0.03190799802541733
8.0,0.031055377796292305
9.0,0.03028399683535099
10.0,0.029564296826720238
11.0,0.02885616384446621
12.0,0.028192203491926193
13.0,0.02755945920944214
14.0,0.026924900710582733
15.0,0.026342108845710754
16.0,0.025747429579496384
18.0,0.02461817115545273
20.0,0.023502066731452942
22.0,0.022424383088946342
24.0,0.021413128823041916
26.0,0.020465336740016937
28.0,0.019627397879958153
30.0,0.018871398642659187
32.0,0.01816290244460106
36.0,0.01696707122027874
40.0,0.015859028324484825
44.0,0.014820030890405178
48.0,0.013924201019108295
52.0,0.013245400041341782
56.0,0.012846370227634907
60.0,0.01244132500141859
64.0,0.012078274972736835
72.0,0.011318184435367584
80.0,0.010274799540638924
88.0,0.009365255944430828
96.0,0.008877506479620934
104.0,0.00852117408066988
112.0,0.008130698464810848
120.0,0.007848452776670456
128.0,0.007762120105326176
144.0,0.006895307917147875
160.0,0.00610267324373126
176.0,0.005559519398957491
192.0,0.005456852726638317
208.0,0.004677994176745415
224.0,0.003975534811615944
240.0,0.00286357244476676
256.0,0.0017346126260235906
288.0,0.0012132468400523067
320.0,0.001905166427604854
352.0,0.0015335767529904842
384.0,0.001979382708668709
416.0,0.0020432251039892435
448.0,0.0018877503462135792
480.0,0.0011446275748312473
512.0,0.0012629944831132889
576.0,0.00312055298127234
640.0,0.0039726258255541325
704.0,0.002317016012966633
768.0,0.0014324132353067398
832.0,0.0008297411259263754
896.0,0.0008944077999331057
960.0,0.000610499584581703
1024.0,0.0012859695125371218
1152.0,0.0030219866894185543
1280.0,0.0032586136367172003
1408.0,-0.00017332180868834257
1536.0,-0.000715706788469106
1664.0,-0.00023076294746715575
1792.0,-0.0030344934202730656
1920.0,-0.0017179790884256363
2048.0,-0.00034906298969872296
2304.0,-0.0018168953247368336
2560.0,-0.002237746026366949
2816.0,-0.0015058002900332212
3072.0,-0.00022895501751918346
3328.0,-0.0005964142619632185
3584.0,-0.0008391084847971797
3840.0,-0.0008496778318658471
4096.0,-0.0011152473744004965
4608.0,-0.0003423458256293088
5120.0,0.0008855831692926586
5632.0,-0.0038963446859270334
6144.0,0.002561769215390086
6656.0,-0.0015770760364830494
7168.0,0.0025861207395792007
7680.0,0.0008064548019319773
8192.0,-0.0006334903882816434
end
