version,3.0
numOfCh,1
type,point
parent_name,19e3e_0dot4-0dot01
ch_type,1_1
kcount,1
numberNandB,1
brightnessNandB,1
carpet pos,0
pc,0
Time (ms),CH1 Auto-Correlation
1.0,0.04515005648136139
2.0,0.04402007535099983
3.0,0.04296214133501053
4.0,0.041965264827013016
5.0,0.04104295000433922
6.0,0.04020031541585922
7.0,0.039401426911354065
8.0,0.03864363208413124
9.0,0.037957269698381424
10.0,0.03733259066939354
11.0,0.03675949200987816
12.0,0.03620919957756996
13.0,0.035651639103889465
14.0,0.03509346768260002
15.0,0.034548621624708176
16.0,0.0340118370950222
18.0,0.033055566251277924
20.0,0.032135218381881714
22.0,0.03119228221476078
24.0,0.030291402712464333
26.0,0.02936580777168274
28.0,0.028574202209711075
30.0,0.027772357687354088
32.0,0.027029046788811684
36.0,0.02579411491751671
40.0,0.024565212428569794
44.0,0.023462994024157524
48.0,0.022533701732754707
52.0,0.021607164293527603
56.0,0.020681703463196754
60.0,0.019967442378401756
64.0,0.019400643184781075
72.0,0.018483422696590424
80.0,0.017346715554594994
88.0,0.016659701243042946
96.0,0.01599387265741825
104.0,0.015371926128864288
112.0,0.014700761064887047
120.0,0.014429861679673195
128.0,0.014389610849320889
144.0,0.014827637001872063
160.0,0.01466322597116232
176.0,0.013058298267424107
192.0,0.01167681347578764
208.0,0.010982847772538662
224.0,0.010706315748393536
240.0,0.009743772447109222
256.0,0.009350377134978771
288.0,0.01120070181787014
320.0,0.012004895135760307
352.0,0.010620102286338806
384.0,0.008004614152014256
416.0,0.006935359910130501
448.0,0.007931597530841827
480.0,0.009275716729462147
512.0,0.00897352583706379
576.0,0.0075389021076262
640.0,0.01081884279847145
704.0,0.00948613416403532
768.0,0.007155026774853468
832.0,0.006740323267877102
896.0,0.007227132562547922
960.0,0.009137900546193123
1024.0,0.010237009264528751
1152.0,0.010492604225873947
1280.0,0.007052392698824406
1408.0,0.0033770371228456497
1536.0,0.004016564693301916
1664.0,0.005520626436918974
1792.0,0.005283160135149956
1920.0,0.0089170066639781
2048.0,0.005662050098180771
2304.0,0.0010973657481372356
2560.0,-0.004184176214039326
2816.0,-0.003979474771767855
3072.0,-0.002518951892852783
3328.0,-0.009326189756393433
3584.0,-0.012900805100798607
3840.0,-0.008069618605077267
4096.0,-0.00730177341029048
4608.0,-0.014051929116249084
5120.0,-0.010803009383380413
5632.0,-0.01317057479172945
6144.0,-0.0025313803926110268
6656.0,-0.006752755958586931
7168.0,0.00026129864272661507
7680.0,-0.0001134196572820656
8192.0,0.006520646158605814
end
