version,3.0
numOfCh,1
type,point
parent_name,19e3e_0dot4-0dot01
ch_type,1_1
kcount,1
numberNandB,1
brightnessNandB,1
carpet pos,0
pc,0
Time (ms),CH1 Auto-Correlation
1.0,0.048759911209344864
2.0,0.04761684313416481
3.0,0.04659149795770645
4.0,0.04562210291624069
5.0,0.044676296412944794
6.0,0.043798863887786865
7.0,0.04296344146132469
8.0,0.04219283163547516
9.0,0.04146328195929527
10.0,0.04078064486384392
11.0,0.04017367213964462
12.0,0.039608586579561234
13.0,0.03904034569859505
14.0,0.03847876191139221
15.0,0.0379113145172596
16.0,0.03733101859688759
18.0,0.03624724596738815
20.0,0.03515040874481201
22.0,0.034128930419683456
24.0,0.03319896385073662
26.0,0.032329559326171875
28.0,0.03152288869023323
30.0,0.030782222747802734
32.0,0.030052097514271736
36.0,0.028727304190397263
40.0,0.027603110298514366
44.0,0.02677067182958126
48.0,0.02600901760160923
52.0,0.025329958647489548
56.0,0.024615034461021423
60.0,0.023942800238728523
64.0,0.02324742078781128
72.0,0.02181624248623848
80.0,0.020487094298005104
88.0,0.019322853535413742
96.0,0.018057502806186676
104.0,0.017079753801226616
112.0,0.016456831246614456
120.0,0.016188153997063637
128.0,0.01604844443500042
144.0,0.015680011361837387
160.0,0.015488879755139351
176.0,0.016355250030755997
192.0,0.015850730240345
208.0,0.014028026722371578
224.0,0.01263680960983038
240.0,0.012058030813932419
256.0,0.011179600842297077
288.0,0.010417167097330093
320.0,0.009961982257664204
352.0,0.009824715554714203
384.0,0.008890841156244278
416.0,0.007113480009138584
448.0,0.005357909016311169
480.0,0.004470662213861942
512.0,0.003481948282569647
576.0,0.0030090948566794395
640.0,0.0026178001426160336
704.0,0.0017066318541765213
768.0,0.0006111721741035581
832.0,-0.000978331547230482
896.0,-0.0023250349331647158
960.0,-0.002625590655952692
1024.0,-0.005514777731150389
1152.0,-0.0065809590741992
1280.0,-0.0073476629331707954
1408.0,-0.007020262070000172
1536.0,-0.006630518939346075
1664.0,-0.004598695784807205
1792.0,-0.005069364327937365
1920.0,-0.0019901851192116737
2048.0,-0.002688170177862048
2304.0,-0.004015019629150629
2560.0,-0.007527293171733618
2816.0,-0.007107031065970659
3072.0,-0.0046402458101511
3328.0,0.0015850845957174897
3584.0,0.0020779427140951157
3840.0,0.00338253122754395
4096.0,0.0015791826881468296
4608.0,0.0013768874341621995
5120.0,0.005144510418176651
5632.0,0.0037364845629781485
6144.0,-0.004627465270459652
6656.0,-0.005821074824780226
7168.0,-0.0003065571072511375
7680.0,0.0014981484273448586
8192.0,0.002825596136972308
end
