version,3.0
numOfCh,1
type,point
parent_name,19e3e_0dot4-0dot01
ch_type,1_1
kcount,1
numberNandB,1
brightnessNandB,1
carpet pos,0
pc,0
Time (ms),CH1 Auto-Correlation
1.0,0.03420142084360123
2.0,0.03303638845682144
3.0,0.03196550905704498
4.0,0.03096141666173935
5.0,0.030003607273101807
6.0,0.029097868129611015
7.0,0.02822638675570488
8.0,0.02740038000047207
9.0,0.026624076068401337
10.0,0.02589268796145916
11.0,0.02521645836532116
12.0,0.024547025561332703
13.0,0.0239250510931015
14.0,0.023347361013293266
15.0,0.02279336005449295
16.0,0.02226277068257332
18.0,0.021252872422337532
20.0,0.02026558108627796
22.0,0.019315455108880997
24.0,0.018386974930763245
26.0,0.01750652864575386
28.0,0.016669051721692085
30.0,0.015832548961043358
32.0,0.015066267922520638
36.0,0.013830370269715786
40.0,0.01286070141941309
44.0,0.012103741988539696
48.0,0.011189180426299572
52.0,0.010235803201794624
56.0,0.009298913180828094
60.0,0.00871957279741764
64.0,0.008377082645893097
72.0,0.00767956767231226
80.0,0.007290857378393412
88.0,0.0071404073387384415
96.0,0.006562672555446625
104.0,0.0056619904935359955
112.0,0.004728799685835838
120.0,0.003864794271066785
128.0,0.0032135050278156996
144.0,0.0026674638502299786
160.0,0.0025982761289924383
176.0,0.0031783704180270433
192.0,0.0033109125215560198
208.0,0.002704873913899064
224.0,0.0025702430866658688
240.0,0.002272921148687601
256.0,0.0021254688035696745
288.0,0.0021192121785134077
320.0,0.0008295461302623153
352.0,3.644679964054376e-05
384.0,0.0002316329482709989
416.0,0.0009923160541802645
448.0,-0.0009726413409225643
480.0,-0.0020439682994037867
512.0,-0.0020342334173619747
576.0,-0.0015293104806914926
640.0,-0.0022061525378376245
704.0,-0.0027320124208927155
768.0,-0.0024678304325789213
832.0,-0.0023536912631243467
896.0,-0.0018345488933846354
960.0,-0.0008113436051644385
1024.0,-0.002040182938799262
1152.0,-0.0030148220248520374
1280.0,-0.003054820466786623
1408.0,-0.0011394055327400565
1536.0,0.0005011761095374823
1664.0,-0.0009568572859279811
1792.0,0.00041072783642448485
1920.0,0.0013976199552416801
2048.0,-0.00012353339116089046
2304.0,0.00020970545301679522
2560.0,0.00032278860453516245
2816.0,0.001071830978617072
3072.0,0.0030763703398406506
3328.0,-3.2860058126971126e-05
3584.0,-0.0008384676184505224
3840.0,-0.002622321480885148
4096.0,-0.0037199612706899643
4608.0,0.0012230684515088797
5120.0,0.0015281739179044962
5632.0,-0.002419940894469619
6144.0,0.002486010082066059
6656.0,0.0006666445406153798
7168.0,-0.0037038528826087713
7680.0,-0.0005347999976947904
8192.0,0.0018573874840512872
end
