version,3.0
numOfCh,1
type,point
parent_name,19e3e_0dot4-0dot01
ch_type,1_1
kcount,1
numberNandB,1
brightnessNandB,1
carpet pos,0
pc,0
Time (ms),CH1 Auto-Correlation
1.0,0.036906395107507706
2.0,0.03572724387049675
3.0,0.03462570160627365
4.0,0.0335843488574028
5.0,0.03262552618980408
6.0,0.031712550669908524
7.0,0.030855964869260788
8.0,0.030048100277781487
9.0,0.029287483543157578
10.0,0.02858690731227398
11.0,0.02795047126710415
12.0,0.027338674291968346
13.0,0.02672995626926422
14.0,0.02616138756275177
15.0,0.025628432631492615
16.0,0.025130443274974823
18.0,0.02417456917464733
20.0,0.02330867201089859
22.0,0.022505365312099457
24.0,0.021692616865038872
26.0,0.020860059186816216
28.0,0.020072946324944496
30.0,0.01932378299534321
32.0,0.018671981990337372
36.0,0.017561299726366997
40.0,0.01664119027554989
44.0,0.015745751559734344
48.0,0.01486121490597725
52.0,0.01393267884850502
56.0,0.013100196607410908
60.0,0.012333710677921772
64.0,0.011629618704319
72.0,0.010711529292166233
80.0,0.009732458740472794
88.0,0.008438498713076115
96.0,0.007536482997238636
104.0,0.006845039315521717
112.0,0.006235662382096052
120.0,0.005890493281185627
128.0,0.00566026009619236
144.0,0.0044365255162119865
160.0,0.0034153955057263374
176.0,0.002266569761559367
192.0,0.0014245047932490706
208.0,0.0014180722646415234
224.0,0.0017175780376419425
240.0,0.0017884302651509643
256.0,0.002165659563615918
288.0,0.0031690846662968397
320.0,0.004831776488572359
352.0,0.004278971813619137
384.0,0.0030507389456033707
416.0,0.0026550476904958487
448.0,0.00279486202634871
480.0,0.0018245467217639089
512.0,0.00044360948959365487
576.0,-0.00010549640137469396
640.0,-0.0010923660593107343
704.0,-0.0003495168057270348
768.0,0.0016185337444767356
832.0,0.0014255060814321041
896.0,0.0006030985969118774
960.0,-0.002172143431380391
1024.0,-0.002893884666264057
1152.0,-0.003528134897351265
1280.0,-0.004195874556899071
1408.0,-0.0028138994239270687
1536.0,-0.0036655026488006115
1664.0,-0.001810051267966628
1792.0,-0.0001599742827238515
1920.0,0.0002722548379097134
2048.0,0.00013655712245963514
2304.0,0.0003563351056072861
2560.0,0.0027018690016120672
2816.0,0.0005552915972657502
3072.0,0.0004525013791862875
3328.0,-0.0002751959254965186
3584.0,-0.0004007000243291259
3840.0,-0.0007571124006062746
4096.0,0.00019243902352172881
4608.0,-0.00048244965728372335
5120.0,-0.0023450348526239395
5632.0,-0.0012079359730705619
6144.0,-0.0017349955160170794
6656.0,-0.0004721451841760427
7168.0,0.00015910253569018096
7680.0,-0.00021343684056773782
8192.0,0.00374964508228004
end
