version,3.0
numOfCh,1
type,point
parent_name,19e3e_0dot4-0dot01
ch_type,1_1
kcount,1
numberNandB,1
brightnessNandB,1
carpet pos,0
pc,0
Time (ms),CH1 Auto-Correlation
1.0,0.03842854127287865
2.0,0.03725987672805786
3.0,0.03617030754685402
4.0,0.03514659404754639
5.0,0.03417431190609932
6.0,0.03324543684720993
7.0,0.032365575432777405
8.0,0.031519997864961624
9.0,0.03068513236939907
10.0,0.029876472428441048
11.0,0.029103418812155724
12.0,0.028398148715496063
13.0,0.0277594942599535
14.0,0.02716371975839138
15.0,0.026609079912304878
16.0,0.02609463594853878
18.0,0.025135966017842293
20.0,0.02415967918932438
22.0,0.023227376863360405
24.0,0.02231803722679615
26.0,0.02144728973507881
28.0,0.020568527281284332
30.0,0.019786307588219643
32.0,0.019081829115748405
36.0,0.017775453627109528
40.0,0.016526255756616592
44.0,0.015425262972712517
48.0,0.014569200575351715
52.0,0.013788254000246525
56.0,0.013104056939482689
60.0,0.012430867180228233
64.0,0.011895539239048958
72.0,0.011034004390239716
80.0,0.010440487414598465
88.0,0.010356439277529716
96.0,0.010098164901137352
104.0,0.009642197750508785
112.0,0.009205559268593788
120.0,0.00842964556068182
128.0,0.007325852755457163
144.0,0.005174766760319471
160.0,0.00332223204895854
176.0,0.0032659259159117937
192.0,0.004607342649251223
208.0,0.005827955435961485
224.0,0.006411940790712833
240.0,0.006926532369107008
256.0,0.006511890795081854
288.0,0.005532435607165098
320.0,0.004624077118933201
352.0,0.0037037546280771494
384.0,0.002161272568628192
416.0,0.0018989049131050706
448.0,0.0015350586036220193
480.0,0.0004611184122040868
512.0,-0.000674717768561095
576.0,-0.0005237403674982488
640.0,0.0020386308897286654
704.0,0.002123989164829254
768.0,0.0003808770270552486
832.0,-0.000564589339774102
896.0,0.0021647028625011444
960.0,0.0018427077447995543
1024.0,0.0021198634058237076
1152.0,0.0012283221585676074
1280.0,-0.0024735608603805304
1408.0,-0.0003146108938381076
1536.0,-0.0005337277543731034
1664.0,-0.0001981325913220644
1792.0,-0.00034087145468220115
1920.0,0.00022732837533112615
2048.0,-0.001284643542021513
2304.0,-0.004992767237126827
2560.0,-0.0033263908699154854
2816.0,-0.001505754073150456
3072.0,-0.0006856563268229365
3328.0,2.5219147573807277e-05
3584.0,0.0005475071375258267
3840.0,0.001132245291955769
4096.0,-0.0009493890684098005
4608.0,0.0019434818532317877
5120.0,0.0028966327663511038
5632.0,0.00010120913066202775
6144.0,0.002313636476173997
6656.0,0.0013547082198783755
7168.0,-0.002368839690461755
7680.0,-0.004962739534676075
8192.0,-0.001994903665035963
end
