version,3.0
numOfCh,1
type,point
parent_name,19e3e_0dot4-0dot01
ch_type,1_1
kcount,1
numberNandB,1
brightnessNandB,1
carpet pos,0
pc,0
Time (ms),CH1 Auto-Correlation
1.0,0.04806447774171829
2.0,0.04691533371806145
3.0,0.045834966003894806
4.0,0.04479715973138809
5.0,0.04383645951747894
6.0,0.04292353615164757
7.0,0.04200608655810356
8.0,0.04115137830376625
9.0,0.04032256081700325
10.0,0.03950951620936394
11.0,0.03876226022839546
12.0,0.03807400166988373
13.0,0.037387602031230927
14.0,0.036719318479299545
15.0,0.03607301786541939
16.0,0.03541349992156029
18.0,0.03418666869401932
20.0,0.033057451248168945
22.0,0.03200327605009079
24.0,0.03108338452875614
26.0,0.030264826491475105
28.0,0.029430462047457695
30.0,0.028554342687129974
32.0,0.027676716446876526
36.0,0.02606676146388054
40.0,0.02468070015311241
44.0,0.023574108257889748
48.0,0.022558173164725304
52.0,0.02172929234802723
56.0,0.021152274683117867
60.0,0.020809784531593323
64.0,0.02040920779109001
72.0,0.01936354860663414
80.0,0.018202945590019226
88.0,0.017325138673186302
96.0,0.01646368019282818
104.0,0.016087034717202187
112.0,0.015344727784395218
120.0,0.014444554224610329
128.0,0.013517232611775398
144.0,0.012403523549437523
160.0,0.01137229148298502
176.0,0.011119757778942585
192.0,0.010247535072267056
208.0,0.008931626565754414
224.0,0.007925924845039845
240.0,0.006462639197707176
256.0,0.005493102129548788
288.0,0.005494493059813976
320.0,0.006441970355808735
352.0,0.007805963046848774
384.0,0.009355087764561176
416.0,0.010662799701094627
448.0,0.01096432376652956
480.0,0.011468560434877872
512.0,0.011574947275221348
576.0,0.008807512000203133
640.0,0.007353628519922495
704.0,0.006496930494904518
768.0,0.005209129769355059
832.0,0.007226225920021534
896.0,0.006258056964725256
960.0,0.0051469323225319386
1024.0,0.004240005277097225
1152.0,0.0011627223575487733
1280.0,0.0002594201359897852
1408.0,-0.0020547565072774887
1536.0,-0.0005325318197719753
1664.0,0.0001528186403447762
1792.0,-6.613675941480324e-05
1920.0,-0.0014942119596526027
2048.0,-0.003123296657577157
2304.0,-0.0037629830185323954
2560.0,-0.0046889642253518105
2816.0,-0.005613029934465885
3072.0,-0.004130451940000057
3328.0,-0.00341135635972023
3584.0,-0.0012735711643472314
3840.0,-0.0004668495384976268
4096.0,-0.000642768107354641
4608.0,0.0010343330213800073
5120.0,0.001877145143225789
5632.0,0.00189166609197855
6144.0,0.002176137873902917
6656.0,-0.0005673149134963751
7168.0,-0.0004892121069133282
7680.0,-0.0009184771915897727
8192.0,-0.009640219621360302
end
