version,3.0
numOfCh,1
type,point
parent_name,19e3e_0dot4-0dot01
ch_type,1_1
kcount,1
numberNandB,1
brightnessNandB,1
carpet pos,0
pc,0
Time (ms),CH1 Auto-Correlation
1.0,0.08585066348314285
2.0,0.08442989736795425
3.0,0.0831255093216896
4.0,0.08188588172197342
5.0,0.08074723184108734
6.0,0.07966587692499161
7.0,0.07858605682849884
8.0,0.07746769487857819
9.0,0.07633668184280396
10.0,0.07525523006916046
11.0,0.07422523200511932
12.0,0.0731935128569603
13.0,0.07223118096590042
14.0,0.07136966288089752
15.0,0.07048116624355316
16.0,0.069571353495121
18.0,0.06793908029794693
20.0,0.06642214953899384
22.0,0.06505793333053589
24.0,0.06384360790252686
26.0,0.06272170692682266
28.0,0.06163876876235008
30.0,0.0604897178709507
32.0,0.059378188103437424
36.0,0.05778701975941658
40.0,0.05645541101694107
44.0,0.05516684055328369
48.0,0.05404309555888176
52.0,0.05311570316553116
56.0,0.05205560475587845
60.0,0.05098633095622063
64.0,0.04992750659584999
72.0,0.04799984022974968
80.0,0.04627328738570213
88.0,0.04433898627758026
96.0,0.042915474623441696
104.0,0.04191559553146362
112.0,0.04093887656927109
120.0,0.03935945779085159
128.0,0.036903031170368195
144.0,0.032388005405664444
160.0,0.030405506491661072
176.0,0.029707878828048706
192.0,0.027708467096090317
208.0,0.024381205439567566
224.0,0.021718846634030342
240.0,0.021255144849419594
256.0,0.020110124722123146
288.0,0.017536204308271408
320.0,0.013052609749138355
352.0,0.012241183780133724
384.0,0.011926084756851196
416.0,0.010965310968458652
448.0,0.010482635349035263
480.0,0.009238126687705517
512.0,0.007835319265723228
576.0,0.006722983904182911
640.0,0.007971412502229214
704.0,0.009692049585282803
768.0,0.006650995463132858
832.0,0.006480556912720203
896.0,0.0082967234775424
960.0,0.009770398028194904
1024.0,0.009442437440156937
1152.0,0.009146717377007008
1280.0,0.0048038773238658905
1408.0,-0.00036822757101617754
1536.0,0.0009846879402175546
1664.0,0.0017888644943013787
1792.0,-0.0043417164124548435
1920.0,-0.007349255029112101
2048.0,-0.013043351471424103
2304.0,-0.02524237334728241
2560.0,-0.020525366067886353
2816.0,-0.020591240376234055
3072.0,-0.017743686214089394
3328.0,-0.02370796911418438
3584.0,-0.01671493984758854
3840.0,-0.016241934150457382
4096.0,-0.0016153526958078146
4608.0,0.007062504068017006
5120.0,0.010655573569238186
5632.0,0.02143281139433384
6144.0,0.023854533210396767
6656.0,0.004526955541223288
7168.0,-0.0018955079140141606
7680.0,0.0013908717082813382
8192.0,-0.021819639950990677
end
