version,3.0
numOfCh,1
type,point
parent_name,19e3e_0dot4-0dot01
ch_type,1_1
kcount,1
numberNandB,1
brightnessNandB,1
carpet pos,0
pc,0
Time (ms),CH1 Auto-Correlation
1.0,0.10660690069198608
2.0,0.10497453808784485
3.0,0.10341888666152954
4.0,0.1018720269203186
5.0,0.10042733699083328
6.0,0.09902596473693848
7.0,0.09772548824548721
8.0,0.09643974900245667
9.0,0.09510964155197144
10.0,0.09381623566150665
11.0,0.09247573465108871
12.0,0.09121107310056686
13.0,0.08996523916721344
14.0,0.08870121091604233
15.0,0.08752772957086563
16.0,0.08633729070425034
18.0,0.08397288620471954
20.0,0.0814865306019783
22.0,0.07916954904794693
24.0,0.07714569568634033
26.0,0.07513673603534698
28.0,0.07308349013328552
30.0,0.07130621373653412
32.0,0.06951815634965897
36.0,0.06600130349397659
40.0,0.06267845630645752
44.0,0.059407953172922134
48.0,0.0564962774515152
52.0,0.0538950189948082
56.0,0.05159512907266617
60.0,0.04904551804065704
64.0,0.046518370509147644
72.0,0.04143745079636574
80.0,0.03622225299477577
88.0,0.031038813292980194
96.0,0.026382483541965485
104.0,0.022492971271276474
112.0,0.01961495354771614
120.0,0.01857824996113777
128.0,0.018372803926467896
144.0,0.019767053425312042
160.0,0.020083516836166382
176.0,0.019859956577420235
192.0,0.019977206364274025
208.0,0.01959598995745182
224.0,0.01983950287103653
240.0,0.01972276158630848
256.0,0.019367406144738197
288.0,0.02205415815114975
320.0,0.024895766749978065
352.0,0.025477010756731033
384.0,0.023217618465423584
416.0,0.018583975732326508
448.0,0.011863824911415577
480.0,0.0076206340454518795
512.0,0.004823977127671242
576.0,0.00581904873251915
640.0,0.017470700666308403
704.0,0.022235281765460968
768.0,0.01196375023573637
832.0,0.0075261895544826984
896.0,0.00973510555922985
960.0,0.013010147027671337
1024.0,0.014012960717082024
1152.0,0.01318952813744545
1280.0,0.014841694384813309
1408.0,0.021144183352589607
1536.0,0.010011701844632626
1664.0,0.015918191522359848
1792.0,0.009819013066589832
1920.0,0.0064001926220953465
2048.0,0.003863198682665825
2304.0,0.005767404101788998
2560.0,0.001395194442011416
2816.0,-0.0018663478549569845
3072.0,-0.0010600180830806494
3328.0,-0.004875615239143372
3584.0,-0.008428425528109074
3840.0,-0.007444338407367468
4096.0,-0.010697824880480766
4608.0,-0.017195405438542366
5120.0,-0.017071174457669258
5632.0,-0.023389050737023354
6144.0,-0.01568300649523735
6656.0,-0.022183649241924286
7168.0,-0.014154319651424885
7680.0,-0.009336063638329506
8192.0,-0.028246723115444183
end
