version,3.0
numOfCh,1
type,point
parent_name,19e3e_0dot4-0dot01
ch_type,1_1
kcount,1
numberNandB,1
brightnessNandB,1
carpet pos,0
pc,0
Time (ms),CH1 Auto-Correlation
1.0,0.03751029819250107
2.0,0.03633405268192291
3.0,0.0352291576564312
4.0,0.03419777378439903
5.0,0.03324907273054123
6.0,0.032419368624687195
7.0,0.03163541108369827
8.0,0.03087036870419979
9.0,0.030097126960754395
10.0,0.0293246041983366
11.0,0.028577106073498726
12.0,0.027909904718399048
13.0,0.02728172577917576
14.0,0.02670060098171234
15.0,0.02616402506828308
16.0,0.025611748918890953
18.0,0.024563545361161232
20.0,0.02360001765191555
22.0,0.02277222089469433
24.0,0.02208496443927288
26.0,0.02136600948870182
28.0,0.020603813230991364
30.0,0.01988830231130123
32.0,0.019160406664013863
36.0,0.017616916447877884
40.0,0.016283486038446426
44.0,0.015284182503819466
48.0,0.01452464796602726
52.0,0.013861997053027153
56.0,0.013220671564340591
60.0,0.01265911478549242
64.0,0.01220534835010767
72.0,0.011395566165447235
80.0,0.010672079399228096
88.0,0.009941223077476025
96.0,0.009467271156609058
104.0,0.00878327526152134
112.0,0.008392288349568844
120.0,0.008406811393797398
128.0,0.008140948601067066
144.0,0.007366304285824299
160.0,0.006046638824045658
176.0,0.0049668122082948685
192.0,0.004048818722367287
208.0,0.0031371344812214375
224.0,0.0025582516100257635
240.0,0.0025013722479343414
256.0,0.0024124374613165855
288.0,0.0022523910738527775
320.0,0.002521707210689783
352.0,-8.611439989181235e-05
384.0,-0.0015598346944898367
416.0,-0.0013513719895854592
448.0,-0.0008022500551305711
480.0,-0.0014969962649047375
512.0,-0.002473433967679739
576.0,-0.00037467360380105674
640.0,0.0018005166202783585
704.0,-0.00012842335854656994
768.0,-0.0005183106404729187
832.0,-0.0018643527291715145
896.0,-0.001330806640908122
960.0,-0.0006469467771239579
1024.0,2.1166502847336233e-05
1152.0,-3.2905467378441244e-05
1280.0,-0.0006348291062749922
1408.0,-0.00041116922511719167
1536.0,-0.0014718169113621116
1664.0,-0.0005192375974729657
1792.0,-0.0009074137196876109
1920.0,-0.005018293391913176
2048.0,-0.004565064329653978
2304.0,-0.004600985441356897
2560.0,-0.00028547755209729075
2816.0,0.00023812313156668097
3072.0,0.0011310609988868237
3328.0,-0.001622790121473372
3584.0,-0.0032508736476302147
3840.0,-0.002512919018045068
4096.0,0.0033131781965494156
4608.0,0.0021428291220217943
5120.0,0.002201025141403079
5632.0,1.7618147467146628e-05
6144.0,0.0006336324731819332
6656.0,-0.002946540480479598
7168.0,9.782810957403854e-05
7680.0,0.0014766869135200977
8192.0,-0.004472135100513697
end
