version,3.0
numOfCh,1
type,point
parent_name,19e3e_0dot4-0dot01
ch_type,1_1
kcount,1
numberNandB,1
brightnessNandB,1
carpet pos,0
pc,0
Time (ms),CH1 Auto-Correlation
1.0,0.034429412335157394
2.0,0.033270686864852905
3.0,0.03219246491789818
4.0,0.031180793419480324
5.0,0.030211737379431725
6.0,0.02929755114018917
7.0,0.02842787839472294
8.0,0.027618948370218277
9.0,0.02681790664792061
10.0,0.026037096977233887
11.0,0.02531818114221096
12.0,0.024620093405246735
13.0,0.023994650691747665
14.0,0.023396085947752
15.0,0.02280026115477085
16.0,0.022210218012332916
18.0,0.02108382247388363
20.0,0.020069245249032974
22.0,0.019139323383569717
24.0,0.01828923262655735
26.0,0.01755884848535061
28.0,0.016912443563342094
30.0,0.016307609155774117
32.0,0.015777098014950752
36.0,0.014965510927140713
40.0,0.014273564331233501
44.0,0.013630407862365246
48.0,0.013162394054234028
52.0,0.012674941681325436
56.0,0.012060106731951237
60.0,0.011505573987960815
64.0,0.010910902172327042
72.0,0.00982766505330801
80.0,0.009179619140923023
88.0,0.008641045540571213
96.0,0.008060145191848278
104.0,0.007416381035000086
112.0,0.006798766553401947
120.0,0.006443774327635765
128.0,0.005975381471216679
144.0,0.005042532458901405
160.0,0.0033216828014701605
176.0,0.0016681852284818888
192.0,0.0011277101002633572
208.0,0.0018705627880990505
224.0,0.001833519316278398
240.0,0.001362435519695282
256.0,0.0009956781286746264
288.0,0.0011533232172951102
320.0,0.0022265207953751087
352.0,0.0028315105009824038
384.0,0.0026688729412853718
416.0,0.002721467288210988
448.0,0.003541407408192754
480.0,0.0029408778063952923
512.0,0.0023439929354935884
576.0,0.001728129223920405
640.0,0.0008928027818910778
704.0,0.0014537782408297062
768.0,0.0015173375140875578
832.0,0.0017054788768291473
896.0,0.000586272741202265
960.0,-0.0018003128934651613
1024.0,-0.0014828621642664075
1152.0,-0.0006411480135284364
1280.0,-0.0028939759358763695
1408.0,-0.0023592840880155563
1536.0,-0.0015395169612020254
1664.0,-0.000885342073161155
1792.0,0.0018373129423707724
1920.0,0.0003600797208491713
2048.0,-0.001190482173115015
2304.0,0.0002174248656956479
2560.0,-0.0009113147971220315
2816.0,-0.0013556892517954111
3072.0,-0.0011347262188792229
3328.0,-0.0011576885590329766
3584.0,0.0021502552554011345
3840.0,0.00039664743235334754
4096.0,-0.0001863081124611199
4608.0,-0.0015947618521749973
5120.0,-0.0036819083616137505
5632.0,-0.002082651946693659
6144.0,-0.000998102710582316
6656.0,-0.0022841491736471653
7168.0,0.00209807395003736
7680.0,0.0020556824747473
8192.0,0.0016520607750862837
end
