version,3.0
numOfCh,1
type,point
parent_name,fe81d_0dot069-0dot1
ch_type,1_1
kcount,1
numberNandB,1
brightnessNandB,1
carpet pos,0
pc,0
Time (ms),CH1 Auto-Correlation
1.0,0.08023398369550705
2.0,0.0775977149605751
3.0,0.07487407326698303
4.0,0.07202346622943878
5.0,0.06948961317539215
6.0,0.06661071628332138
7.0,0.0661473497748375
8.0,0.06576821953058243
9.0,0.06517323851585388
10.0,0.064686119556427
11.0,0.0641324445605278
12.0,0.06347145885229111
13.0,0.06287197768688202
14.0,0.062274910509586334
15.0,0.06173637509346008
16.0,0.06125739961862564
18.0,0.060637522488832474
20.0,0.06013062223792076
22.0,0.05952727794647217
24.0,0.058839891105890274
26.0,0.0581263042986393
28.0,0.05730515718460083
30.0,0.05661999434232712
32.0,0.05587773025035858
36.0,0.054577071219682693
40.0,0.05347773805260658
44.0,0.052560582756996155
48.0,0.051477089524269104
52.0,0.05041084438562393
56.0,0.049405694007873535
60.0,0.04852018132805824
64.0,0.04778073728084564
72.0,0.0461692176759243
80.0,0.044436052441596985
88.0,0.042893923819065094
96.0,0.04118376225233078
104.0,0.03971794247627258
112.0,0.03824931010603905
120.0,0.03710922226309776
128.0,0.03599333390593529
144.0,0.03297661244869232
160.0,0.03068467229604721
176.0,0.0285028088837862
192.0,0.026828279718756676
208.0,0.02574804052710533
224.0,0.025187425315380096
240.0,0.024412263184785843
256.0,0.023497849702835083
288.0,0.021346423774957657
320.0,0.01932230032980442
352.0,0.018026214092969894
384.0,0.017449084669351578
416.0,0.016022218391299248
448.0,0.013369817286729813
480.0,0.01130405068397522
512.0,0.010782675817608833
576.0,0.008762624114751816
640.0,0.006709140259772539
704.0,0.004130002576857805
768.0,0.0029541458934545517
832.0,0.0020617512054741383
896.0,0.0013981818920001388
960.0,0.003984728828072548
1024.0,0.005732390563935041
1152.0,-9.86997656582389e-06
1280.0,-0.0040925778448581696
1408.0,-0.00416942872107029
1536.0,-0.0024044921156018972
1664.0,-0.007194099016487598
1792.0,-0.008318736217916012
1920.0,-0.007814197801053524
2048.0,-0.003474919591099024
2304.0,-0.0012415428645908833
2560.0,-0.0013801209861412644
2816.0,-0.004887671209871769
3072.0,-0.0084540955722332
3328.0,-0.007498007733374834
3584.0,-0.0019470482366159558
3840.0,0.0008417716016992927
4096.0,-0.0008458559168502688
4608.0,-0.01096225343644619
5120.0,-0.013777948915958405
5632.0,-0.003423545276746154
6144.0,-0.0017093915957957506
6656.0,-0.0089341439306736
7168.0,-0.004967072047293186
7680.0,0.014067019335925579
8192.0,0.00316714309155941
end
