version,3.0
numOfCh,1
type,point
parent_name,fe81d_0dot069-0dot1
ch_type,1_1
kcount,1
numberNandB,1
brightnessNandB,1
carpet pos,0
pc,0
Time (ms),CH1 Auto-Correlation
1.0,0.04904322698712349
2.0,0.048581577837467194
3.0,0.048128820955753326
4.0,0.04766802862286568
5.0,0.04720721021294594
6.0,0.04675174504518509
7.0,0.04634477570652962
8.0,0.045941855758428574
9.0,0.045538321137428284
10.0,0.04516758397221565
11.0,0.04479276388883591
12.0,0.0444209948182106
13.0,0.04405185207724571
14.0,0.04367793723940849
15.0,0.04332486167550087
16.0,0.04296502098441124
18.0,0.04229190945625305
20.0,0.04164627194404602
22.0,0.041019488126039505
24.0,0.04042181372642517
26.0,0.039856065064668655
28.0,0.039306532591581345
30.0,0.03876765817403793
32.0,0.03824764862656593
36.0,0.03728325664997101
40.0,0.03632436320185661
44.0,0.03544469550251961
48.0,0.03460395708680153
52.0,0.03373828902840614
56.0,0.03292246535420418
60.0,0.032111041247844696
64.0,0.0312691293656826
72.0,0.029819445684552193
80.0,0.028724394738674164
88.0,0.027681102976202965
96.0,0.02671152539551258
104.0,0.025894014164805412
112.0,0.025024358183145523
120.0,0.024103958159685135
128.0,0.02321578748524189
144.0,0.021948833018541336
160.0,0.020722590386867523
176.0,0.019207695499062538
192.0,0.017877276986837387
208.0,0.016495298594236374
224.0,0.015115834772586823
240.0,0.014084403403103352
256.0,0.013002157211303711
288.0,0.011440236121416092
320.0,0.008793178014457226
352.0,0.006928781513124704
384.0,0.006687881890684366
416.0,0.00678948312997818
448.0,0.006226150318980217
480.0,0.0052833412773907185
512.0,0.005044745746999979
576.0,0.0057298834435641766
640.0,0.008216572925448418
704.0,0.013058439828455448
768.0,0.01406764518469572
832.0,0.012160269543528557
896.0,0.01029896829277277
960.0,0.009263711050152779
1024.0,0.00781845860183239
1152.0,0.005823941435664892
1280.0,0.0018145538633689284
1408.0,-0.00023040581436362118
1536.0,0.003247216809540987
1664.0,0.0025439204182475805
1792.0,0.0015486441552639008
1920.0,0.0012918430147692561
2048.0,0.002029501600190997
2304.0,-0.0007416297448799014
2560.0,-0.010010986588895321
2816.0,-0.009582332335412502
3072.0,-0.001788076595403254
3328.0,-0.007439753040671349
3584.0,-0.0155409537255764
3840.0,-0.006125402636826038
4096.0,-0.0051340037025511265
4608.0,-0.00468521099537611
5120.0,0.0005787687259726226
5632.0,-0.0053539639338850975
6144.0,0.0009550739196129143
6656.0,-0.006035560742020607
7168.0,0.0036284339148551226
7680.0,0.006027228198945522
8192.0,0.012199532240629196
end
