version,3.0
numOfCh,1
type,point
parent_name,fe81d_0dot069-0dot1
ch_type,1_1
kcount,1
numberNandB,1
brightnessNandB,1
carpet pos,0
pc,0
Time (ms),CH1 Auto-Correlation
1.0,0.05042954534292221
2.0,0.04998467490077019
3.0,0.0495426319539547
4.0,0.04909151792526245
5.0,0.0486692376434803
6.0,0.048247791826725006
7.0,0.04785066470503807
8.0,0.047465335577726364
9.0,0.047076914459466934
10.0,0.046698641031980515
11.0,0.04633283615112305
12.0,0.04596368968486786
13.0,0.045586343854665756
14.0,0.04521206393837929
15.0,0.04484901204705238
16.0,0.04448916018009186
18.0,0.04377784952521324
20.0,0.04309892654418945
22.0,0.042426858097314835
24.0,0.04179619252681732
26.0,0.041185859590768814
28.0,0.04058126360177994
30.0,0.039973512291908264
32.0,0.03936447948217392
36.0,0.03827233612537384
40.0,0.037230487912893295
44.0,0.0362577885389328
48.0,0.03533964976668358
52.0,0.03451256826519966
56.0,0.03377801924943924
60.0,0.03304680064320564
64.0,0.03233996406197548
72.0,0.031116412952542305
80.0,0.029885796830058098
88.0,0.02859562635421753
96.0,0.0272967591881752
104.0,0.02601325511932373
112.0,0.02482137456536293
120.0,0.023592010140419006
128.0,0.022500930353999138
144.0,0.02069021388888359
160.0,0.01935519278049469
176.0,0.018072469159960747
192.0,0.016743430867791176
208.0,0.015471652150154114
224.0,0.014340785332024097
240.0,0.013520079664885998
256.0,0.013390296138823032
288.0,0.012061784975230694
320.0,0.00957433506846428
352.0,0.007362152449786663
384.0,0.006303269416093826
416.0,0.005779534112662077
448.0,0.005747992545366287
480.0,0.004981718957424164
512.0,0.0037833969108760357
576.0,0.004199917893856764
640.0,0.0035964760463684797
704.0,0.00303268781863153
768.0,0.00343959778547287
832.0,0.0030769009608775377
896.0,-0.0003149118856526911
960.0,-0.0030716541223227978
1024.0,-0.004272363614290953
1152.0,-0.0039053980726748705
1280.0,-0.00392440939322114
1408.0,-0.004081360530108213
1536.0,-0.0031619470100849867
1664.0,-0.003218173747882247
1792.0,-0.006553920451551676
1920.0,-0.005146911833435297
2048.0,-0.0012836350360885262
2304.0,-0.004286850802600384
2560.0,-0.00302381394430995
2816.0,0.008348135277628899
3072.0,0.004500257782638073
3328.0,0.003210402326658368
3584.0,0.00995752215385437
3840.0,0.00615591648966074
4096.0,-0.0029685720801353455
4608.0,-0.011593417264521122
5120.0,-0.014205357059836388
5632.0,-0.014634593389928341
6144.0,-0.0004613347991835326
6656.0,0.008605591021478176
7168.0,-0.0013029110850766301
7680.0,-0.003410555422306061
8192.0,0.0012895532418042421
end
