version,3.0
numOfCh,1
type,point
parent_name,fe81d_0dot069-0dot1
ch_type,1_1
kcount,1
numberNandB,1
brightnessNandB,1
carpet pos,0
pc,0
Time (ms),CH1 Auto-Correlation
1.0,0.14251022040843964
2.0,0.14170078933238983
3.0,0.14097632467746735
4.0,0.140293151140213
5.0,0.13962696492671967
6.0,0.13898757100105286
7.0,0.13838247954845428
8.0,0.13780400156974792
9.0,0.1372227519750595
10.0,0.13664312660694122
11.0,0.1361040621995926
12.0,0.13551990687847137
13.0,0.13499349355697632
14.0,0.1344449520111084
15.0,0.1338968127965927
16.0,0.1333947479724884
18.0,0.1323898285627365
20.0,0.13148146867752075
22.0,0.13068336248397827
24.0,0.1299021989107132
26.0,0.12917505204677582
28.0,0.12852483987808228
30.0,0.12789370119571686
32.0,0.12731042504310608
36.0,0.12622886896133423
40.0,0.12522901594638824
44.0,0.12418147921562195
48.0,0.12304934859275818
52.0,0.12179204821586609
56.0,0.12062185257673264
60.0,0.11943522840738297
64.0,0.11814003437757492
72.0,0.11576350778341293
80.0,0.1131511852145195
88.0,0.11070363968610764
96.0,0.10831531882286072
104.0,0.10583429038524628
112.0,0.1036047637462616
120.0,0.10166577249765396
128.0,0.09954275190830231
144.0,0.09468339383602142
160.0,0.09021232277154922
176.0,0.08613550662994385
192.0,0.08220389485359192
208.0,0.07821299880743027
224.0,0.07356081902980804
240.0,0.06952059268951416
256.0,0.0652976781129837
288.0,0.05695796757936478
320.0,0.050163574516773224
352.0,0.043677110224962234
384.0,0.03859930858016014
416.0,0.03274136781692505
448.0,0.02726461924612522
480.0,0.022517716512084007
512.0,0.019962821155786514
576.0,0.019202180206775665
640.0,0.021242422983050346
704.0,0.027611665427684784
768.0,0.03469056263566017
832.0,0.043102432042360306
896.0,0.051284197717905045
960.0,0.06154400110244751
1024.0,0.06852712482213974
1152.0,0.07366161793470383
1280.0,0.06174805015325546
1408.0,0.04195469990372658
1536.0,0.02592645026743412
1664.0,0.020552337169647217
1792.0,0.02310960181057453
1920.0,0.02979274094104767
2048.0,0.04127899557352066
2304.0,0.044941581785678864
2560.0,0.025390269234776497
2816.0,0.010938609950244427
3072.0,0.013713337481021881
3328.0,0.02180139720439911
3584.0,0.012983645312488079
3840.0,-0.0031982162036001682
4096.0,-0.002965156687423587
4608.0,-0.0061969151720404625
5120.0,-0.02705574594438076
5632.0,-0.03868325799703598
6144.0,-0.056420933455228806
6656.0,-0.05100991949439049
7168.0,-0.05797502398490906
7680.0,-0.049229372292757034
8192.0,-0.060584016144275665
end
