version,3.0
numOfCh,1
type,point
parent_name,fe81d_0dot069-0dot1
ch_type,1_1
kcount,1
numberNandB,1
brightnessNandB,1
carpet pos,0
pc,0
Time (ms),CH1 Auto-Correlation
1.0,0.04721002280712128
2.0,0.046743422746658325
3.0,0.046289943158626556
4.0,0.04583941400051117
5.0,0.04540227726101875
6.0,0.04495854675769806
7.0,0.04452243074774742
8.0,0.04407159611582756
9.0,0.04364863038063049
10.0,0.043245259672403336
11.0,0.042849235236644745
12.0,0.042474258691072464
13.0,0.04209638386964798
14.0,0.04170752316713333
15.0,0.041315753012895584
16.0,0.04092764854431152
18.0,0.04014778137207031
20.0,0.039377037435770035
22.0,0.03866808861494064
24.0,0.037990279495716095
26.0,0.037330251187086105
28.0,0.03667133301496506
30.0,0.03602132573723793
32.0,0.03537193685770035
36.0,0.03412952646613121
40.0,0.033022478222846985
44.0,0.03190881758928299
48.0,0.030872618779540062
52.0,0.029884420335292816
56.0,0.028982531279325485
60.0,0.028047004714608192
64.0,0.02707051672041416
72.0,0.02524987794458866
80.0,0.023560116067528725
88.0,0.021870281547307968
96.0,0.02024289220571518
104.0,0.018802043050527573
112.0,0.017567187547683716
120.0,0.01651419885456562
128.0,0.015542644076049328
144.0,0.0141271548345685
160.0,0.01320476271212101
176.0,0.0125252241268754
192.0,0.012179647572338581
208.0,0.011483644135296345
224.0,0.010687453672289848
240.0,0.009443427436053753
256.0,0.008153515867888927
288.0,0.005478110630065203
320.0,0.0030782048124819994
352.0,0.002274352591484785
384.0,0.0019483892247080803
416.0,0.0021965689957141876
448.0,0.003156055463477969
480.0,0.0040030525997281075
512.0,0.00581179466098547
576.0,0.006926255766302347
640.0,0.0034475885331630707
704.0,0.0014292456908151507
768.0,0.002094341441988945
832.0,0.0014283823547884822
896.0,-0.001635570777580142
960.0,-0.0042777894996106625
1024.0,-0.005526816006749868
1152.0,6.52155649731867e-05
1280.0,0.000887953327037394
1408.0,-0.000984423328191042
1536.0,-0.0014407908311113715
1664.0,0.001760876621119678
1792.0,0.00032550006289966404
1920.0,-0.00357494642958045
2048.0,-0.004738077986985445
2304.0,-0.00031015570857562125
2560.0,-0.0015667278785258532
2816.0,-0.00038560666143894196
3072.0,-0.002397804753854871
3328.0,-0.00620232941582799
3584.0,-0.0005794291500933468
3840.0,-0.0004694544477388263
4096.0,0.0008268528035841882
4608.0,-0.005455467849969864
5120.0,-0.006371599622070789
5632.0,-0.0032922911923378706
6144.0,-0.006274704821407795
6656.0,-0.0035535036586225033
7168.0,0.0073857237584888935
7680.0,0.005557049997150898
8192.0,0.0027065647300332785
end
