version,3.0
numOfCh,1
type,point
parent_name,fe81d_0dot069-0dot1
ch_type,1_1
kcount,1
numberNandB,1
brightnessNandB,1
carpet pos,0
pc,0
Time (ms),CH1 Auto-Correlation
1.0,0.07964178919792175
2.0,0.0789593830704689
3.0,0.07828288525342941
4.0,0.07758212834596634
5.0,0.07690154761075974
6.0,0.07625873386859894
7.0,0.07564643770456314
8.0,0.07509419322013855
9.0,0.0745428279042244
10.0,0.07401276379823685
11.0,0.07349957525730133
12.0,0.07300280779600143
13.0,0.07248047739267349
14.0,0.07193947583436966
15.0,0.07139980792999268
16.0,0.07084432989358902
18.0,0.06966026872396469
20.0,0.06854411214590073
22.0,0.06750933080911636
24.0,0.06650876998901367
26.0,0.06558164954185486
28.0,0.06463917344808578
30.0,0.06369974464178085
32.0,0.06281014531850815
36.0,0.06112510338425636
40.0,0.059620197862386703
44.0,0.05819646641612053
48.0,0.05695337802171707
52.0,0.055667854845523834
56.0,0.0543995164334774
60.0,0.05317399650812149
64.0,0.05192246660590172
72.0,0.049637917429208755
80.0,0.04746578261256218
88.0,0.04548032581806183
96.0,0.04362719506025314
104.0,0.04172348231077194
112.0,0.039758600294589996
120.0,0.03801563382148743
128.0,0.03641916811466217
144.0,0.03352833911776543
160.0,0.030627425760030746
176.0,0.028474269434809685
192.0,0.026807846501469612
208.0,0.025274425745010376
224.0,0.023810362443327904
240.0,0.022053586319088936
256.0,0.019778316840529442
288.0,0.0157155841588974
320.0,0.012975874356925488
352.0,0.011545367538928986
384.0,0.00898314081132412
416.0,0.0067409430630505085
448.0,0.005254570860415697
480.0,0.0029264886397868395
512.0,0.0009850047063082457
576.0,-0.0015114820562303066
640.0,-0.003944747615605593
704.0,-0.006957430392503738
768.0,-0.009228158742189407
832.0,-0.01169750839471817
896.0,-0.011786195449531078
960.0,-0.010878391563892365
1024.0,-0.008107073605060577
1152.0,-0.004952206742018461
1280.0,-0.005472299177199602
1408.0,-0.008074711076915264
1536.0,-0.00806820672005415
1664.0,0.0010762454476207495
1792.0,-0.0011434897314757109
1920.0,-0.006589588709175587
2048.0,-0.004054858349263668
2304.0,-0.00013521002256311476
2560.0,-0.004149247892200947
2816.0,-0.003416850697249174
3072.0,-0.0021691061556339264
3328.0,0.0033893301151692867
3584.0,-0.00031213960028253496
3840.0,-0.0017347624525427818
4096.0,-0.004288958385586739
4608.0,-0.01135456282645464
5120.0,0.0042510791681706905
5632.0,0.002776192268356681
6144.0,-0.004732768516987562
6656.0,-0.006500463001430035
7168.0,0.0059653050266206264
7680.0,0.009365159086883068
8192.0,0.0017273990670219064
end
