version,3.0
numOfCh,1
type,point
parent_name,fe81d_0dot069-0dot1
ch_type,1_1
kcount,1
numberNandB,1
brightnessNandB,1
carpet pos,0
pc,0
Time (ms),CH1 Auto-Correlation
1.0,0.07529806345701218
2.0,0.07423221319913864
3.0,0.07323264330625534
4.0,0.07224827259778976
5.0,0.07135111093521118
6.0,0.07050371170043945
7.0,0.06969432532787323
8.0,0.06901520490646362
9.0,0.0683194175362587
10.0,0.0676158145070076
11.0,0.066925548017025
12.0,0.06621257215738297
13.0,0.06553032249212265
14.0,0.06487336754798889
15.0,0.06413590908050537
16.0,0.06347741186618805
18.0,0.06225763261318207
20.0,0.06107426807284355
22.0,0.05986574664711952
24.0,0.05867025628685951
26.0,0.05756894499063492
28.0,0.056509219110012054
30.0,0.0555042028427124
32.0,0.05456215515732765
36.0,0.05267558991909027
40.0,0.051088981330394745
44.0,0.04951916262507439
48.0,0.048230912536382675
52.0,0.04726122319698334
56.0,0.046278711408376694
60.0,0.045486338436603546
64.0,0.04490068554878235
72.0,0.04411844164133072
80.0,0.043453577905893326
88.0,0.042722128331661224
96.0,0.04198569059371948
104.0,0.04089377820491791
112.0,0.03943246230483055
120.0,0.03816819190979004
128.0,0.03695591166615486
144.0,0.03466321527957916
160.0,0.032608743757009506
176.0,0.031199341639876366
192.0,0.029516618698835373
208.0,0.029133157804608345
224.0,0.029261089861392975
240.0,0.028856186196208
256.0,0.027410799637436867
288.0,0.02405138686299324
320.0,0.020358139649033546
352.0,0.019471071660518646
384.0,0.020366763696074486
416.0,0.022145112976431847
448.0,0.02000691182911396
480.0,0.016802767291665077
512.0,0.01567203924059868
576.0,0.01650332659482956
640.0,0.01719857007265091
704.0,0.019714917987585068
768.0,0.0204647034406662
832.0,0.023015785962343216
896.0,0.022180980071425438
960.0,0.02066163346171379
1024.0,0.01700090616941452
1152.0,0.012854507192969322
1280.0,0.016716470941901207
1408.0,0.012341514229774475
1536.0,0.006995894480496645
1664.0,0.006625948008149862
1792.0,0.005467163864523172
1920.0,0.0013913961593061686
2048.0,0.002999287797138095
2304.0,0.0016159985680133104
2560.0,-0.004587514325976372
2816.0,-0.007173590827733278
3072.0,-0.008129436522722244
3328.0,-0.011093087494373322
3584.0,-0.01912432722747326
3840.0,-0.030569398775696754
4096.0,-0.02298036776483059
4608.0,-0.02235572040081024
5120.0,-0.015576936304569244
5632.0,-0.01100090891122818
6144.0,-0.0034689134918153286
6656.0,-0.005614859517663717
7168.0,-0.0028465846553444862
7680.0,0.00632880162447691
8192.0,-0.0026173482183367014
end
