version,3.0
numOfCh,1
type,point
parent_name,fe81d_0dot069-0dot1
ch_type,1_1
kcount,1
numberNandB,1
brightnessNandB,1
carpet pos,0
pc,0
Time (ms),CH1 Auto-Correlation
1.0,0.0687234103679657
2.0,0.06802383065223694
3.0,0.0673711821436882
4.0,0.06670138984918594
5.0,0.06610643863677979
6.0,0.06546838581562042
7.0,0.0647825226187706
8.0,0.06412336230278015
9.0,0.06348151713609695
10.0,0.06290555000305176
11.0,0.062295567244291306
12.0,0.06162557005882263
13.0,0.061205435544252396
14.0,0.060822438448667526
15.0,0.06042565032839775
16.0,0.059991877526044846
18.0,0.059110164642333984
20.0,0.058281898498535156
22.0,0.057516276836395264
24.0,0.056727971881628036
26.0,0.05590040609240532
28.0,0.05503523722290993
30.0,0.05425272509455681
32.0,0.05345625802874565
36.0,0.05198231339454651
40.0,0.05066888406872749
44.0,0.049205146729946136
48.0,0.047674551606178284
52.0,0.0461963526904583
56.0,0.04485020786523819
60.0,0.04365020617842674
64.0,0.04258320480585098
72.0,0.04070262983441353
80.0,0.03864100202918053
88.0,0.036727678030729294
96.0,0.03480476886034012
104.0,0.03291020914912224
112.0,0.031060295179486275
120.0,0.029395218938589096
128.0,0.027743211016058922
144.0,0.02536187879741192
160.0,0.022701069712638855
176.0,0.020624734461307526
192.0,0.018992450088262558
208.0,0.017708931118249893
224.0,0.016816210001707077
240.0,0.016184931620955467
256.0,0.015890995040535927
288.0,0.015211503952741623
320.0,0.01489048358052969
352.0,0.014029360376298428
384.0,0.01325320452451706
416.0,0.013803805224597454
448.0,0.013421737588942051
480.0,0.012029324658215046
512.0,0.009716011583805084
576.0,0.005974816158413887
640.0,0.0019911264535039663
704.0,-0.00267105083912611
768.0,-0.006572525482624769
832.0,-0.007560776546597481
896.0,-0.00716932350769639
960.0,-0.007797495927661657
1024.0,-0.008235666900873184
1152.0,-0.012403273023664951
1280.0,-0.014478432014584541
1408.0,-0.015029667876660824
1536.0,-0.017038455232977867
1664.0,-0.012213025242090225
1792.0,-0.004199768416583538
1920.0,-0.004868863616138697
2048.0,-0.0028798661660403013
2304.0,0.002685768995434046
2560.0,0.007904047146439552
2816.0,0.009381894953548908
3072.0,0.008290098048746586
3328.0,0.0040900688618421555
3584.0,-0.0029115905053913593
3840.0,-0.005559084936976433
4096.0,-0.010012723505496979
4608.0,-0.010223127901554108
5120.0,0.006504242308437824
5632.0,0.008453276008367538
6144.0,0.0014378995401784778
6656.0,-0.011331576853990555
7168.0,-0.01001509465277195
7680.0,0.0029936349019408226
8192.0,0.006396799348294735
end
