version,3.0
numOfCh,1
type,point
parent_name,fe81d_0dot069-0dot1
ch_type,1_1
kcount,1
numberNandB,1
brightnessNandB,1
carpet pos,0
pc,0
Time (ms),CH1 Auto-Correlation
1.0,0.060691941529512405
2.0,0.06017543748021126
3.0,0.05968378111720085
4.0,0.05921204760670662
5.0,0.0587477944791317
6.0,0.05832428112626076
7.0,0.05790088325738907
8.0,0.05748266726732254
9.0,0.05708344653248787
10.0,0.05668799951672554
11.0,0.05631314218044281
12.0,0.05595037341117859
13.0,0.05558639019727707
14.0,0.055220577865839005
15.0,0.05485234037041664
16.0,0.05446305498480797
18.0,0.053736209869384766
20.0,0.05304951220750809
22.0,0.05239949747920036
24.0,0.05176861211657524
26.0,0.05116099491715431
28.0,0.0505603589117527
30.0,0.0499759316444397
32.0,0.04939359799027443
36.0,0.04822790250182152
40.0,0.04701937735080719
44.0,0.04578202962875366
48.0,0.04450635612010956
52.0,0.04330362752079964
56.0,0.042204052209854126
60.0,0.041203513741493225
64.0,0.040324583649635315
72.0,0.038781844079494476
80.0,0.037272486835718155
88.0,0.035926397889852524
96.0,0.034644778817892075
104.0,0.03337329253554344
112.0,0.03226997330784798
120.0,0.03136676549911499
128.0,0.030442262068390846
144.0,0.02837246283888817
160.0,0.026713469997048378
176.0,0.025525538250803947
192.0,0.024669917300343513
208.0,0.023888375610113144
224.0,0.023182420060038567
240.0,0.02247268706560135
256.0,0.021598827093839645
288.0,0.01942731998860836
320.0,0.018101543188095093
352.0,0.01613975502550602
384.0,0.013313003815710545
416.0,0.010972212068736553
448.0,0.009304137900471687
480.0,0.007592893671244383
512.0,0.005458546802401543
576.0,0.0030652163550257683
640.0,0.0014348810072988272
704.0,0.0006656948826275766
768.0,-0.00010675469820853323
832.0,-0.0010661794804036617
896.0,-0.0018259970238432288
960.0,-0.0015459052519872785
1024.0,-0.0034006210044026375
1152.0,-0.005332479253411293
1280.0,-0.0023107524029910564
1408.0,0.00021553141414187849
1536.0,0.005054729524999857
1664.0,0.009890847839415073
1792.0,0.012747296132147312
1920.0,0.012203240767121315
2048.0,0.006390983704477549
2304.0,-0.0010087087284773588
2560.0,-0.003864890430122614
2816.0,-0.005588811822235584
3072.0,-0.003842927049845457
3328.0,-0.006046611815690994
3584.0,-0.010903611779212952
3840.0,-0.012158690020442009
4096.0,-0.0038966366555541754
4608.0,0.0033614260610193014
5120.0,-0.0028775306418538094
5632.0,-0.01213797926902771
6144.0,-0.0011469846358522773
6656.0,0.0002871491597034037
7168.0,-0.01533125527203083
7680.0,-0.009830355644226074
8192.0,0.0031108681578189135
end
