version,3.0
numOfCh,1
type,point
parent_name,fe81d_0dot069-0dot1
ch_type,1_1
kcount,1
numberNandB,1
brightnessNandB,1
carpet pos,0
pc,0
Time (ms),CH1 Auto-Correlation
1.0,0.07514901459217072
2.0,0.07458972185850143
3.0,0.07404974848031998
4.0,0.07351965457201004
5.0,0.0729973241686821
6.0,0.07250586152076721
7.0,0.07203258574008942
8.0,0.07157906889915466
9.0,0.07112526893615723
10.0,0.07069464027881622
11.0,0.07028908282518387
12.0,0.06988070905208588
13.0,0.06947781145572662
14.0,0.06908690929412842
15.0,0.06869487464427948
16.0,0.06831763684749603
18.0,0.06757942587137222
20.0,0.06685806065797806
22.0,0.0661720484495163
24.0,0.06551047414541245
26.0,0.06486682593822479
28.0,0.06424156576395035
30.0,0.06363075971603394
32.0,0.0630110427737236
36.0,0.061731286346912384
40.0,0.06051339581608772
44.0,0.059377919882535934
48.0,0.05824996903538704
52.0,0.05714168772101402
56.0,0.05605678632855415
60.0,0.054959896951913834
64.0,0.05392102897167206
72.0,0.05214807391166687
80.0,0.05045989528298378
88.0,0.04884691908955574
96.0,0.04720582067966461
104.0,0.04580406844615936
112.0,0.04478684067726135
120.0,0.043915312737226486
128.0,0.04315021261572838
144.0,0.04198851436376572
160.0,0.04062940925359726
176.0,0.039113689213991165
192.0,0.03717917948961258
208.0,0.03543022647500038
224.0,0.03357411548495293
240.0,0.03166448697447777
256.0,0.03001977875828743
288.0,0.0285965409129858
320.0,0.028781378641724586
352.0,0.028845470398664474
384.0,0.02777296118438244
416.0,0.026038305833935738
448.0,0.02415451966226101
480.0,0.022588158026337624
512.0,0.02244516648352146
576.0,0.021029839292168617
640.0,0.018826210871338844
704.0,0.019585320726037025
768.0,0.019986918196082115
832.0,0.019389336928725243
896.0,0.019958697259426117
960.0,0.01804458536207676
1024.0,0.018452126532793045
1152.0,0.016898656263947487
1280.0,0.01791561208665371
1408.0,0.020628774538636208
1536.0,0.016147274523973465
1664.0,0.011454564519226551
1792.0,0.009613312780857086
1920.0,0.008015834726393223
2048.0,0.006428641267120838
2304.0,-0.005020808894187212
2560.0,-0.004846211988478899
2816.0,-0.005602853838354349
3072.0,-0.010661525651812553
3328.0,-0.009789500385522842
3584.0,-0.018078720197081566
3840.0,-0.023482801392674446
4096.0,-0.02240113355219364
4608.0,-0.023630822077393532
5120.0,-0.02146444283425808
5632.0,-0.026526741683483124
6144.0,-0.020335886627435684
6656.0,-0.011544632725417614
7168.0,-0.015216407366096973
7680.0,-0.011944267898797989
8192.0,0.002451464533805847
end
