version,3.0
numOfCh,1
type,point
parent_name,fe81d_0dot069-0dot1
ch_type,1_1
kcount,1
numberNandB,1
brightnessNandB,1
carpet pos,0
pc,0
Time (ms),CH1 Auto-Correlation
1.0,0.08037526905536652
2.0,0.07976435869932175
3.0,0.0791722908616066
4.0,0.0785984918475151
5.0,0.07804875075817108
6.0,0.07750224322080612
7.0,0.07696852833032608
8.0,0.07646451890468597
9.0,0.07594268769025803
10.0,0.07542406767606735
11.0,0.07489531487226486
12.0,0.07440066337585449
13.0,0.07392565906047821
14.0,0.0734347403049469
15.0,0.07295100390911102
16.0,0.07248136401176453
18.0,0.07150120288133621
20.0,0.07054747641086578
22.0,0.06961144506931305
24.0,0.06868403404951096
26.0,0.06770786643028259
28.0,0.06674352288246155
30.0,0.06583145260810852
32.0,0.06500526517629623
36.0,0.06355512142181396
40.0,0.06214286386966705
44.0,0.06084214523434639
48.0,0.05967746302485466
52.0,0.05867794156074524
56.0,0.05773170664906502
60.0,0.056780170649290085
64.0,0.055890247225761414
72.0,0.05437935143709183
80.0,0.053034763783216476
88.0,0.05170276015996933
96.0,0.050265658646821976
104.0,0.0487620010972023
112.0,0.04708225652575493
120.0,0.04551547393202782
128.0,0.04419580101966858
144.0,0.041803937405347824
160.0,0.039837826043367386
176.0,0.03840166702866554
192.0,0.03720167651772499
208.0,0.03536415472626686
224.0,0.033949412405490875
240.0,0.03273125737905502
256.0,0.0310653205960989
288.0,0.02790076658129692
320.0,0.02465003915131092
352.0,0.02150213159620762
384.0,0.018331581726670265
416.0,0.01451222226023674
448.0,0.011043157428503036
480.0,0.009300579316914082
512.0,0.007321565877646208
576.0,0.0030508930794894695
640.0,-0.0005919642862863839
704.0,-0.0045913876965641975
768.0,-0.003004689235240221
832.0,-0.0039034837391227484
896.0,-0.007959114387631416
960.0,-0.012066377326846123
1024.0,-0.012434455566108227
1152.0,-0.01081396359950304
1280.0,-0.012148521840572357
1408.0,-0.012628107331693172
1536.0,-0.009900837205350399
1664.0,-0.002084696665406227
1792.0,-0.004335225094109774
1920.0,-0.008776393719017506
2048.0,-0.014153417199850082
2304.0,-0.00048057318781502545
2560.0,0.007908087223768234
2816.0,0.004905651323497295
3072.0,-0.008146061562001705
3328.0,-0.011369130574166775
3584.0,-0.007431450299918652
3840.0,-0.002809279365465045
4096.0,0.004926876164972782
4608.0,-0.0014864017721265554
5120.0,-0.011228211224079132
5632.0,-0.012626038864254951
6144.0,-0.014238810166716576
6656.0,0.0031431904062628746
7168.0,0.004154689610004425
7680.0,0.009456825442612171
8192.0,0.033758629113435745
end
