version,3.0
numOfCh,1
type,point
parent_name,fe81d_0dot069-0dot1
ch_type,1_1
kcount,1
numberNandB,1
brightnessNandB,1
carpet pos,0
pc,0
Time (ms),CH1 Auto-Correlation
1.0,0.0618203841149807
2.0,0.06111038476228714
3.0,0.06043101102113724
4.0,0.059762582182884216
5.0,0.05911098048090935
6.0,0.058509234338998795
7.0,0.05792941153049469
8.0,0.057362962514162064
9.0,0.05683451518416405
10.0,0.05633324757218361
11.0,0.05581127852201462
12.0,0.05528410151600838
13.0,0.05480768904089928
14.0,0.054332491010427475
15.0,0.053842782974243164
16.0,0.053382717072963715
18.0,0.05247996002435684
20.0,0.05157047510147095
22.0,0.05067843571305275
24.0,0.04980470985174179
26.0,0.048932597041130066
28.0,0.048094507306814194
30.0,0.04730699583888054
32.0,0.046520691365003586
36.0,0.04495275765657425
40.0,0.04340408369898796
44.0,0.04185296595096588
48.0,0.04055434465408325
52.0,0.03934517502784729
56.0,0.03821883723139763
60.0,0.03717384487390518
64.0,0.036213234066963196
72.0,0.034544844180345535
80.0,0.03300454840064049
88.0,0.03152124211192131
96.0,0.030151650309562683
104.0,0.02901001274585724
112.0,0.027702949941158295
120.0,0.026659058406949043
128.0,0.025512732565402985
144.0,0.023034056648612022
160.0,0.02092723734676838
176.0,0.019078778102993965
192.0,0.018168127164244652
208.0,0.01760968379676342
224.0,0.01695874333381653
240.0,0.01575249806046486
256.0,0.014462828636169434
288.0,0.011508934199810028
320.0,0.009615300223231316
352.0,0.006449568551033735
384.0,0.004294786602258682
416.0,0.004220004193484783
448.0,0.00632707541808486
480.0,0.007384858559817076
512.0,0.007414189167320728
576.0,0.006196495611220598
640.0,0.0036341757513582706
704.0,0.0036797416396439075
768.0,0.0016809344524517655
832.0,0.00424127746373415
896.0,0.005595438182353973
960.0,0.008182140998542309
1024.0,0.008739257231354713
1152.0,0.006365438457578421
1280.0,0.005549405235797167
1408.0,0.0034385602921247482
1536.0,0.005248724948614836
1664.0,0.008002880960702896
1792.0,0.011383691802620888
1920.0,0.010267511941492558
2048.0,0.005191676784306765
2304.0,-0.004364501219242811
2560.0,-0.00873555988073349
2816.0,-0.0033373641781508923
3072.0,-0.013016162440180779
3328.0,-0.014910341240465641
3584.0,-0.006581873632967472
3840.0,-0.0019045062363147736
4096.0,-0.009177264757454395
4608.0,-0.016081897541880608
5120.0,-0.006230988539755344
5632.0,0.002954694442451
6144.0,-0.00010854647553060204
6656.0,0.0031579644419252872
7168.0,0.0017179630231112242
7680.0,0.013300771825015545
8192.0,-0.0035962751135230064
end
