version,3.0
numOfCh,1
type,point
parent_name,fe81d_0dot069-0dot1
ch_type,1_1
kcount,1
numberNandB,1
brightnessNandB,1
carpet pos,0
pc,0
Time (ms),CH1 Auto-Correlation
1.0,0.0620957612991333
2.0,0.06142639368772507
3.0,0.060785312205553055
4.0,0.060190171003341675
5.0,0.05967239663004875
6.0,0.05918288975954056
7.0,0.05874396115541458
8.0,0.058338090777397156
9.0,0.057928383350372314
10.0,0.057528890669345856
11.0,0.05710214376449585
12.0,0.056688692420721054
13.0,0.056258056312799454
14.0,0.055811699479818344
15.0,0.05537339672446251
16.0,0.05493074283003807
18.0,0.054117120802402496
20.0,0.05335254222154617
22.0,0.05266077443957329
24.0,0.05195176228880882
26.0,0.0512390099465847
28.0,0.050560981035232544
30.0,0.04995539039373398
32.0,0.04939964413642883
36.0,0.04828990250825882
40.0,0.047347769141197205
44.0,0.046501655131578445
48.0,0.04566636309027672
52.0,0.04484565928578377
56.0,0.043994974344968796
60.0,0.04301883280277252
64.0,0.04218802973628044
72.0,0.04061564803123474
80.0,0.03906111419200897
88.0,0.03768410533666611
96.0,0.03663570433855057
104.0,0.03540339693427086
112.0,0.03413795679807663
120.0,0.032838866114616394
128.0,0.03149297460913658
144.0,0.029725058004260063
160.0,0.028319358825683594
176.0,0.026704903692007065
192.0,0.024802301079034805
208.0,0.02247263491153717
224.0,0.020152799785137177
240.0,0.01815006509423256
256.0,0.015842482447624207
288.0,0.012005087919533253
320.0,0.00845351442694664
352.0,0.005889866501092911
384.0,0.003778178011998534
416.0,0.0014549391344189644
448.0,-0.00042742438381537795
480.0,-0.0010262447176501155
512.0,-0.0014148650225251913
576.0,-0.003053070278838277
640.0,-0.006297193467617035
704.0,-0.009531584568321705
768.0,-0.011582680977880955
832.0,-0.011345934122800827
896.0,-0.010540813207626343
960.0,-0.010401658713817596
1024.0,-0.009919308125972748
1152.0,-0.00453766668215394
1280.0,-0.001878906972706318
1408.0,-0.002301822416484356
1536.0,0.0005479738465510309
1664.0,0.006077560596168041
1792.0,0.012844494543969631
1920.0,0.01581311598420143
2048.0,0.01795843616127968
2304.0,0.002861442742869258
2560.0,-0.009778224863111973
2816.0,-0.014448792673647404
3072.0,-0.005225279368460178
3328.0,0.005326409358531237
3584.0,0.0026961141265928745
3840.0,0.001855220994912088
4096.0,0.00688917376101017
4608.0,-0.005937260575592518
5120.0,-0.007375534623861313
5632.0,-0.0080107431858778
6144.0,0.0007556111086159945
6656.0,-0.004309635143727064
7168.0,-0.012214023619890213
7680.0,0.00024062299053184688
8192.0,0.0033282407093793154
end
