version,3.0
numOfCh,1
type,point
parent_name,fe81d_0dot069-0dot1
ch_type,1_1
kcount,1
numberNandB,1
brightnessNandB,1
carpet pos,0
pc,0
Time (ms),CH1 Auto-Correlation
1.0,0.06494477391242981
2.0,0.06434564292430878
3.0,0.06379005312919617
4.0,0.0632617250084877
5.0,0.06276021152734756
6.0,0.06226713955402374
7.0,0.061774346977472305
8.0,0.06128150597214699
9.0,0.0608343631029129
10.0,0.060402896255254745
11.0,0.059993717819452286
12.0,0.05958753451704979
13.0,0.05917869880795479
14.0,0.05877559259533882
15.0,0.0583786703646183
16.0,0.05799638852477074
18.0,0.057222116738557816
20.0,0.05643334612250328
22.0,0.05567428842186928
24.0,0.05491555109620094
26.0,0.054144322872161865
28.0,0.05337807163596153
30.0,0.05265282839536667
32.0,0.051965370774269104
36.0,0.050738122314214706
40.0,0.049653906375169754
44.0,0.04865078628063202
48.0,0.04772776737809181
52.0,0.046743277460336685
56.0,0.04583914205431938
60.0,0.0449795126914978
64.0,0.044139303267002106
72.0,0.042603570967912674
80.0,0.040982697159051895
88.0,0.039494916796684265
96.0,0.03798050805926323
104.0,0.03651104494929314
112.0,0.035172123461961746
120.0,0.03372969850897789
128.0,0.032361775636672974
144.0,0.03040665201842785
160.0,0.028128614649176598
176.0,0.02542576752603054
192.0,0.022893579676747322
208.0,0.020963991060853004
224.0,0.019570959731936455
240.0,0.01805517077445984
256.0,0.016054503619670868
288.0,0.012139820493757725
320.0,0.010042679496109486
352.0,0.008850878104567528
384.0,0.007959429174661636
416.0,0.007021066267043352
448.0,0.005548671819269657
480.0,0.004911747295409441
512.0,0.005157485604286194
576.0,0.00505957892164588
640.0,0.002467597834765911
704.0,-0.0019070430425927043
768.0,-0.006894375663250685
832.0,-0.009636052884161472
896.0,-0.010482661426067352
960.0,-0.011146998964250088
1024.0,-0.013339375145733356
1152.0,-0.013739563524723053
1280.0,-0.012665229849517345
1408.0,-0.007323098834604025
1536.0,-0.006059319246560335
1664.0,-0.006367334630340338
1792.0,-0.009023994207382202
1920.0,-0.010675748810172081
2048.0,-0.005785021930932999
2304.0,-0.008470248430967331
2560.0,-0.0015566580696031451
2816.0,0.004184347577393055
3072.0,0.003776607569307089
3328.0,0.0008489548927173018
3584.0,-0.0017830112483352423
3840.0,0.006025498267263174
4096.0,0.0005094368825666606
4608.0,0.0014905361458659172
5120.0,0.010179988108575344
5632.0,-0.0030771815218031406
6144.0,-0.01776144653558731
6656.0,0.0024163902271538973
7168.0,0.015625977888703346
7680.0,-0.0009448074270039797
8192.0,-0.00536871375516057
end
