version,3.0
numOfCh,1
type,point
parent_name,fe81d_0dot069-0dot1
ch_type,1_1
kcount,1
numberNandB,1
brightnessNandB,1
carpet pos,0
pc,0
Time (ms),CH1 Auto-Correlation
1.0,0.059818074107170105
2.0,0.05935719981789589
3.0,0.05889150872826576
4.0,0.05843713879585266
5.0,0.05797886475920677
6.0,0.05753828212618828
7.0,0.05709829553961754
8.0,0.05666406825184822
9.0,0.05622377246618271
10.0,0.05580767244100571
11.0,0.05539959669113159
12.0,0.05499882996082306
13.0,0.05460003390908241
14.0,0.05420579016208649
15.0,0.05382031202316284
16.0,0.05343768000602722
18.0,0.052678611129522324
20.0,0.051938917487859726
22.0,0.05121399834752083
24.0,0.05051538720726967
26.0,0.04983290657401085
28.0,0.04917970672249794
30.0,0.048537105321884155
32.0,0.047902289777994156
36.0,0.046631474047899246
40.0,0.045410092920064926
44.0,0.04422789812088013
48.0,0.043084871023893356
52.0,0.04202057793736458
56.0,0.04097805172204971
60.0,0.03995481878519058
64.0,0.039012353867292404
72.0,0.03715325519442558
80.0,0.035307932645082474
88.0,0.03340862691402435
96.0,0.03166459500789642
104.0,0.0302195493131876
112.0,0.02918424643576145
120.0,0.028381530195474625
128.0,0.027729352936148643
144.0,0.026514410972595215
160.0,0.02537805587053299
176.0,0.024407697841525078
192.0,0.02326374687254429
208.0,0.022269010543823242
224.0,0.021821914240717888
240.0,0.020730098709464073
256.0,0.019669460132718086
288.0,0.018414882943034172
320.0,0.016787633299827576
352.0,0.015712227672338486
384.0,0.01465156115591526
416.0,0.01360598299652338
448.0,0.01304081454873085
480.0,0.012236880138516426
512.0,0.011731518432497978
576.0,0.009264638647437096
640.0,0.008712146431207657
704.0,0.008358594961464405
768.0,0.009905609302222729
832.0,0.012983832508325577
896.0,0.013382853008806705
960.0,0.011999877169728279
1024.0,0.01024200301617384
1152.0,0.00921713002026081
1280.0,0.00919389445334673
1408.0,0.007260614074766636
1536.0,0.005521222483366728
1664.0,0.007728451397269964
1792.0,0.0060163987800478935
1920.0,0.004580243956297636
2048.0,-4.744059879158158e-06
2304.0,-0.0017708531813696027
2560.0,-0.0023144776932895184
2816.0,-0.004247081000357866
3072.0,0.001385005540214479
3328.0,0.0013792598620057106
3584.0,-0.003336065448820591
3840.0,-0.0037141849752515554
4096.0,-0.004750974476337433
4608.0,-0.0027275115717202425
5120.0,-0.0036358956713229418
5632.0,-0.005314492620527744
6144.0,-8.377126050618244e-07
6656.0,0.00283236987888813
7168.0,-0.0073149739764630795
7680.0,-0.0008871816098690033
8192.0,-0.004027903079986572
end
