version,3.0
numOfCh,1
type,point
parent_name,fe81d_0dot069-0dot1
ch_type,1_1
kcount,1
numberNandB,1
brightnessNandB,1
carpet pos,0
pc,0
Time (ms),CH1 Auto-Correlation
1.0,0.07168684154748917
2.0,0.07121626287698746
3.0,0.07077638059854507
4.0,0.07034320384263992
5.0,0.06990742683410645
6.0,0.0694764256477356
7.0,0.06905905157327652
8.0,0.06864174455404282
9.0,0.06822444498538971
10.0,0.06780116260051727
11.0,0.06739335507154465
12.0,0.06698484718799591
13.0,0.0665869191288948
14.0,0.0661933645606041
15.0,0.06581632047891617
16.0,0.06543386727571487
18.0,0.0646514892578125
20.0,0.06389408558607101
22.0,0.0631757378578186
24.0,0.06248277425765991
26.0,0.06182489171624184
28.0,0.06118012219667435
30.0,0.060527246445417404
32.0,0.05991659313440323
36.0,0.058717869222164154
40.0,0.05757064372301102
44.0,0.056426577270030975
48.0,0.05533059313893318
52.0,0.0542631559073925
56.0,0.053188931196928024
60.0,0.05213123559951782
64.0,0.05109790712594986
72.0,0.04932529851794243
80.0,0.04781798645853996
88.0,0.04631814360618591
96.0,0.044719960540533066
104.0,0.04306723549962044
112.0,0.04158131033182144
120.0,0.04020165279507637
128.0,0.03877728804945946
144.0,0.03661325201392174
160.0,0.034897271543741226
176.0,0.03369083255529404
192.0,0.03251535817980766
208.0,0.03112165816128254
224.0,0.0296871829777956
240.0,0.028335077688097954
256.0,0.027661412954330444
288.0,0.026097068563103676
320.0,0.02411964349448681
352.0,0.021966008469462395
384.0,0.020313775166869164
416.0,0.019044896587729454
448.0,0.017787866294384003
480.0,0.015958402305841446
512.0,0.014971000142395496
576.0,0.014142501167953014
640.0,0.013713015243411064
704.0,0.01516937930136919
768.0,0.01717270538210869
832.0,0.016031745821237564
896.0,0.014279537834227085
960.0,0.011879676021635532
1024.0,0.010668554343283176
1152.0,0.011150550097227097
1280.0,0.006305845454335213
1408.0,0.0029953974299132824
1536.0,-0.0015782545087859035
1664.0,-0.005752615164965391
1792.0,-0.00869621243327856
1920.0,-0.0028890951070934534
2048.0,0.004237343091517687
2304.0,0.00061230972642079
2560.0,-0.0026753826532512903
2816.0,0.006335027050226927
3072.0,0.005438079126179218
3328.0,0.0021670227870345116
3584.0,-0.009087148122489452
3840.0,-0.0211180467158556
4096.0,-0.009996321052312851
4608.0,-0.017835402861237526
5120.0,0.002923062304034829
5632.0,0.013963069766759872
6144.0,0.021937217563390732
6656.0,0.011230219155550003
7168.0,0.0024815888609737158
7680.0,-0.005091970786452293
8192.0,-0.0027903474401682615
end
