version,3.0
numOfCh,1
type,point
parent_name,fe81d_0dot069-0dot1
ch_type,1_1
kcount,1
numberNandB,1
brightnessNandB,1
carpet pos,0
pc,0
Time (ms),CH1 Auto-Correlation
1.0,0.06669677793979645
2.0,0.0661625936627388
3.0,0.06563152372837067
4.0,0.06510480493307114
5.0,0.06461029499769211
6.0,0.06411676853895187
7.0,0.06362143158912659
8.0,0.06314713507890701
9.0,0.06267689168453217
10.0,0.06220458820462227
11.0,0.06173071265220642
12.0,0.06126612797379494
13.0,0.06081521138548851
14.0,0.0603669248521328
15.0,0.059942539781332016
16.0,0.05951354652643204
18.0,0.058696944266557693
20.0,0.05790082737803459
22.0,0.057124584913253784
24.0,0.05634836107492447
26.0,0.05559876933693886
28.0,0.05490041896700859
30.0,0.05424143746495247
32.0,0.05356248468160629
36.0,0.052333395928144455
40.0,0.0511862114071846
44.0,0.050116557627916336
48.0,0.049107372760772705
52.0,0.04814444109797478
56.0,0.047190677374601364
60.0,0.046271469444036484
64.0,0.04542471095919609
72.0,0.04395952820777893
80.0,0.042668770998716354
88.0,0.04140585660934448
96.0,0.040236931294202805
104.0,0.03923562169075012
112.0,0.038354333490133286
120.0,0.037740178406238556
128.0,0.03718739002943039
144.0,0.035463474690914154
160.0,0.03392340615391731
176.0,0.032995108515024185
192.0,0.03179297596216202
208.0,0.029840387403964996
224.0,0.028015609830617905
240.0,0.026602212339639664
256.0,0.026127643883228302
288.0,0.024857057258486748
320.0,0.024161793291568756
352.0,0.02271510474383831
384.0,0.021476710215210915
416.0,0.02015289105474949
448.0,0.018356332555413246
480.0,0.016540182754397392
512.0,0.014716542325913906
576.0,0.010528521612286568
640.0,0.007062146905809641
704.0,0.0038157571107149124
768.0,0.0013057742035016418
832.0,-0.00042845081770792603
896.0,-0.0019359469879418612
960.0,-0.002227172954007983
1024.0,-0.0023450315929949284
1152.0,-0.0021584653295576572
1280.0,-0.0018324815900996327
1408.0,-0.006291653960943222
1536.0,-0.008441329002380371
1664.0,-0.009740082547068596
1792.0,-0.012560215778648853
1920.0,-0.01677059568464756
2048.0,-0.02010154351592064
2304.0,-0.020188599824905396
2560.0,-0.012680607847869396
2816.0,-0.014918503351509571
3072.0,-0.01178820338100195
3328.0,-0.00610728794708848
3584.0,0.004948149435222149
3840.0,0.015336006879806519
4096.0,0.021228818222880363
4608.0,0.014627288095653057
5120.0,0.0049187494441866875
5632.0,-0.002159800846129656
6144.0,-0.0052732122130692005
6656.0,-0.002447432139888406
7168.0,-0.010108544491231441
7680.0,-0.005785894114524126
8192.0,0.001593696535564959
end
