version,3.0
numOfCh,1
type,point
parent_name,fe81d_0dot069-0dot1
ch_type,1_1
kcount,1
numberNandB,1
brightnessNandB,1
carpet pos,0
pc,0
Time (ms),CH1 Auto-Correlation
1.0,0.054645128548145294
2.0,0.05404219776391983
3.0,0.053461961448192596
4.0,0.0529184564948082
5.0,0.052382804453372955
6.0,0.05187331885099411
7.0,0.05139114335179329
8.0,0.05090437829494476
9.0,0.05039915814995766
10.0,0.04989973083138466
11.0,0.04941324517130852
12.0,0.04893936589360237
13.0,0.04848504438996315
14.0,0.04803144559264183
15.0,0.0475807785987854
16.0,0.04714955762028694
18.0,0.046298254281282425
20.0,0.04552029073238373
22.0,0.04475676268339157
24.0,0.043962206691503525
26.0,0.04320073872804642
28.0,0.042433448135852814
30.0,0.04168129712343216
32.0,0.040910907089710236
36.0,0.03940150886774063
40.0,0.03794131428003311
44.0,0.03658192977309227
48.0,0.03532486781477928
52.0,0.03410721197724342
56.0,0.03294507786631584
60.0,0.03173641115427017
64.0,0.030444400385022163
72.0,0.027909908443689346
80.0,0.02568342350423336
88.0,0.023832444101572037
96.0,0.022226640954613686
104.0,0.020744826644659042
112.0,0.01950123719871044
120.0,0.01829451508820057
128.0,0.01700323261320591
144.0,0.014918237924575806
160.0,0.013330665417015553
176.0,0.012294242158532143
192.0,0.012016537599265575
208.0,0.011842158623039722
224.0,0.011821504682302475
240.0,0.011829454451799393
256.0,0.01139388419687748
288.0,0.010584037750959396
320.0,0.011501490138471127
352.0,0.011607038788497448
384.0,0.009639990516006947
416.0,0.007347302511334419
448.0,0.005082089453935623
480.0,0.002720506163313985
512.0,0.00031011062674224377
576.0,0.0011676250724121928
640.0,0.004609534051269293
704.0,0.006073969881981611
768.0,0.0068465424701571465
832.0,0.009807507507503033
896.0,0.010640563443303108
960.0,0.009512275457382202
1024.0,0.01084109302610159
1152.0,0.0090506412088871
1280.0,0.002264023758471012
1408.0,-0.004940003156661987
1536.0,-0.005082091316580772
1664.0,-0.005016808398067951
1792.0,-0.0020354725420475006
1920.0,0.005572533700615168
2048.0,0.006841340102255344
2304.0,-0.00044661923311650753
2560.0,-0.0027304249815642834
2816.0,-0.0013250608462840319
3072.0,-0.001974726328626275
3328.0,-0.009119846858084202
3584.0,-0.009301342070102692
3840.0,-0.008632431738078594
4096.0,-0.008961914107203484
4608.0,-0.003278586780652404
5120.0,-0.001250256784260273
5632.0,0.006385285872966051
6144.0,-0.005613495595753193
6656.0,0.0025111765135079622
7168.0,-0.009552257135510445
7680.0,0.005553168244659901
8192.0,-0.007767489179968834
end
