version,3.0
numOfCh,1
type,point
parent_name,fe81d_0dot069-0dot1
ch_type,1_1
kcount,1
numberNandB,1
brightnessNandB,1
carpet pos,0
pc,0
Time (ms),CH1 Auto-Correlation
1.0,0.07842335850000381
2.0,0.0779227688908577
3.0,0.07742871344089508
4.0,0.07694225013256073
5.0,0.07647521048784256
6.0,0.07601308822631836
7.0,0.07557190209627151
8.0,0.07512771338224411
9.0,0.07468980550765991
10.0,0.07426172494888306
11.0,0.07385152578353882
12.0,0.0734534040093422
13.0,0.07304687052965164
14.0,0.0726613774895668
15.0,0.07228738814592361
16.0,0.0719219446182251
18.0,0.07124991714954376
20.0,0.07059496641159058
22.0,0.06996804475784302
24.0,0.06937532126903534
26.0,0.06880907714366913
28.0,0.06827010214328766
30.0,0.06768524646759033
32.0,0.06707978993654251
36.0,0.06589382886886597
40.0,0.06470129638910294
44.0,0.06361034512519836
48.0,0.06257212907075882
52.0,0.061576616019010544
56.0,0.0605974979698658
60.0,0.05970967561006546
64.0,0.058938220143318176
72.0,0.05766051635146141
80.0,0.05648953840136528
88.0,0.05544735863804817
96.0,0.054373402148485184
104.0,0.053405556827783585
112.0,0.052287064492702484
120.0,0.051098812371492386
128.0,0.049915045499801636
144.0,0.048022620379924774
160.0,0.046362753957509995
176.0,0.044885359704494476
192.0,0.04386758431792259
208.0,0.04316873848438263
224.0,0.042826853692531586
240.0,0.04241044819355011
256.0,0.042095620185136795
288.0,0.04161692038178444
320.0,0.04041202366352081
352.0,0.03909273445606232
384.0,0.03716122731566429
416.0,0.0346585288643837
448.0,0.032411087304353714
480.0,0.029586082324385643
512.0,0.02679666317999363
576.0,0.025462621822953224
640.0,0.024755198508501053
704.0,0.023273685947060585
768.0,0.020684458315372467
832.0,0.01985085941851139
896.0,0.019505340605974197
960.0,0.01931767351925373
1024.0,0.018868517130613327
1152.0,0.017361553385853767
1280.0,0.01887950301170349
1408.0,0.018984241411089897
1536.0,0.016873477026820183
1664.0,0.013176430016756058
1792.0,0.010770583525300026
1920.0,0.0073748086579144
2048.0,0.003738789353519678
2304.0,0.001588176004588604
2560.0,-0.0015265881083905697
2816.0,0.0018867492908611894
3072.0,0.0008698913734406233
3328.0,0.003008458763360977
3584.0,0.002614477416500449
3840.0,-0.0024679750204086304
4096.0,-0.008677762001752853
4608.0,-0.0034559268970042467
5120.0,-0.017856711521744728
5632.0,-0.03596510738134384
6144.0,-0.03046993352472782
6656.0,-0.029851075261831284
7168.0,-0.04293549060821533
7680.0,-0.0342579185962677
8192.0,-0.01597277820110321
end
