version,3.0
numOfCh,1
type,point
parent_name,fe81d_0dot069-0dot1
ch_type,1_1
kcount,1
numberNandB,1
brightnessNandB,1
carpet pos,0
pc,0
Time (ms),CH1 Auto-Correlation
1.0,0.06808297336101532
2.0,0.06757302582263947
3.0,0.06710122525691986
4.0,0.06663955003023148
5.0,0.06618852913379669
6.0,0.06574353575706482
7.0,0.06530560553073883
8.0,0.06486517190933228
9.0,0.06441452354192734
10.0,0.06397057324647903
11.0,0.06355386227369308
12.0,0.0631466805934906
13.0,0.0627494752407074
14.0,0.06236392259597778
15.0,0.0619732141494751
16.0,0.06157591938972473
18.0,0.06077944114804268
20.0,0.060007184743881226
22.0,0.059244219213724136
24.0,0.058513935655355453
26.0,0.05785469338297844
28.0,0.057223204523324966
30.0,0.05660151690244675
32.0,0.055993687361478806
36.0,0.05480511486530304
40.0,0.0536358617246151
44.0,0.05244351923465729
48.0,0.05132010206580162
52.0,0.050215356051921844
56.0,0.04910832643508911
60.0,0.048040490597486496
64.0,0.04706941172480583
72.0,0.04530886188149452
80.0,0.04381832852959633
88.0,0.04257461801171303
96.0,0.04146221652626991
104.0,0.04050480201840401
112.0,0.03951925039291382
120.0,0.038444217294454575
128.0,0.03746574744582176
144.0,0.03570758178830147
160.0,0.033657994121313095
176.0,0.03175724670290947
192.0,0.029904766008257866
208.0,0.027746424078941345
224.0,0.02551952376961708
240.0,0.023284127935767174
256.0,0.021193260326981544
288.0,0.01765647530555725
320.0,0.0156466793268919
352.0,0.015507656149566174
384.0,0.01517954096198082
416.0,0.01395175326615572
448.0,0.012732532806694508
480.0,0.011455157771706581
512.0,0.010699871927499771
576.0,0.008293548598885536
640.0,0.005257605109363794
704.0,0.00433334382250905
768.0,0.006846731062978506
832.0,0.008192170411348343
896.0,0.0084003284573555
960.0,0.0058585344813764095
1024.0,0.0046887206844985485
1152.0,0.0037693518679589033
1280.0,8.868440636433661e-05
1408.0,-0.0056373123079538345
1536.0,-0.006283049006015062
1664.0,-0.0031281861010938883
1792.0,-0.0031190384179353714
1920.0,-0.006382372230291367
2048.0,-0.0065481411293148994
2304.0,-0.012670458294451237
2560.0,-0.01405356265604496
2816.0,-0.01618785783648491
3072.0,-0.017465487122535706
3328.0,-0.0096063781529665
3584.0,-0.005091377999633551
3840.0,-0.009677937254309654
4096.0,-0.016203029081225395
4608.0,-0.00011339457705616951
5120.0,0.0051689185202121735
5632.0,0.018185442313551903
6144.0,-0.004396879579871893
6656.0,0.004724544007331133
7168.0,0.0011898159282281995
7680.0,0.0043888939544558525
8192.0,0.004941134713590145
end
