version,3.0
numOfCh,1
type,point
parent_name,34a6d_1dot0-0dot01
ch_type,1_1
kcount,1
numberNandB,1
brightnessNandB,1
carpet pos,0
pc,0
Time (ms),CH1 Auto-Correlation
1.0,0.04105500504374504
2.0,0.037871766835451126
3.0,0.035165101289749146
4.0,0.03289514034986496
5.0,0.03093387745320797
6.0,0.029229557141661644
7.0,0.02778615429997444
8.0,0.026575163006782532
9.0,0.025479942560195923
10.0,0.024524066597223282
11.0,0.023546764627099037
12.0,0.022649865597486496
13.0,0.021737176924943924
14.0,0.020952051505446434
15.0,0.020298603922128677
16.0,0.019652821123600006
18.0,0.018384581431746483
20.0,0.01736874133348465
22.0,0.01642123982310295
24.0,0.01564079336822033
26.0,0.014754479750990868
28.0,0.013850192539393902
30.0,0.013057239353656769
32.0,0.012177994474768639
36.0,0.010849660262465477
40.0,0.010121741332113743
44.0,0.009412603452801704
48.0,0.008692954666912556
52.0,0.0079442597925663
56.0,0.006939824670553207
60.0,0.005906865932047367
64.0,0.005049326457083225
72.0,0.0042534442618489265
80.0,0.0037343266885727644
88.0,0.003004909958690405
96.0,0.002602405147626996
104.0,0.001807006890885532
112.0,0.0012068349169567227
120.0,0.00149592908564955
128.0,0.0014441446401178837
144.0,0.000282291293842718
160.0,-0.000641411985270679
176.0,-0.0011272310512140393
192.0,-0.000533946615178138
208.0,0.0003040502197109163
224.0,0.0014167604967951775
240.0,0.001499076490290463
256.0,0.001778649864718318
288.0,0.0009749944438226521
320.0,0.001629415899515152
352.0,0.0010471759596839547
384.0,0.0007272836519405246
416.0,0.0014093900099396706
448.0,0.0017708834493532777
480.0,0.0012352440971881151
512.0,0.0010200669057667255
576.0,-0.0005904748686589301
640.0,-0.0011341995559632778
704.0,-0.002084611915051937
768.0,-0.0001201378763653338
832.0,0.0020414204336702824
896.0,0.001296281348913908
960.0,-0.0014683275949209929
1024.0,0.0002767674741335213
1152.0,6.966679211473092e-05
1280.0,-0.001634776359423995
1408.0,-6.770873733330518e-05
1536.0,0.00020230168593116105
1664.0,0.0015297357458621264
1792.0,-0.0008188094361685216
1920.0,0.0009998439345508814
2048.0,0.0020149864722043276
2304.0,0.0003248184220865369
2560.0,-0.00048135826364159584
2816.0,-0.00021096214186400175
3072.0,-0.00263228896073997
3328.0,-0.00182731740642339
3584.0,-0.0017434183973819017
3840.0,-0.0013466458767652512
4096.0,-0.0012698799837380648
4608.0,-0.0007597897201776505
5120.0,-0.0006048155482858419
5632.0,-0.00028882516198791564
6144.0,-0.0005648793885484338
6656.0,0.00040904420893639326
7168.0,0.0010713225929066539
7680.0,0.0008587982738390565
8192.0,-3.249846849939786e-05
end
