version,3.0
numOfCh,1
type,point
parent_name,34a6d_1dot0-0dot01
ch_type,1_1
kcount,1
numberNandB,1
brightnessNandB,1
carpet pos,0
pc,0
Time (ms),CH1 Auto-Correlation
1.0,0.28547582030296326
2.0,0.28139442205429077
3.0,0.27760860323905945
4.0,0.2743074893951416
5.0,0.2711363732814789
6.0,0.2681339383125305
7.0,0.2652820944786072
8.0,0.2624313235282898
9.0,0.2596992254257202
10.0,0.25692591071128845
11.0,0.255024790763855
12.0,0.2533372938632965
13.0,0.25164148211479187
14.0,0.24986253678798676
15.0,0.2481115609407425
16.0,0.24644578993320465
18.0,0.24335864186286926
20.0,0.24033749103546143
22.0,0.23750029504299164
24.0,0.2346852868795395
26.0,0.23186080157756805
28.0,0.22899645566940308
30.0,0.22598206996917725
32.0,0.2230215072631836
36.0,0.21697919070720673
40.0,0.21110855042934418
44.0,0.20577892661094666
48.0,0.20327390730381012
52.0,0.200933039188385
56.0,0.19827957451343536
60.0,0.19489538669586182
64.0,0.19168587028980255
72.0,0.18378888070583344
80.0,0.18083404004573822
88.0,0.1786176860332489
96.0,0.1757393777370453
104.0,0.17321042716503143
112.0,0.17178960144519806
120.0,0.17114266753196716
128.0,0.1683386266231537
144.0,0.1638466864824295
160.0,0.15288352966308594
176.0,0.1429334133863449
192.0,0.13550816476345062
208.0,0.13017331063747406
224.0,0.12398850172758102
240.0,0.12316643446683884
256.0,0.12253555655479431
288.0,0.12205826491117477
320.0,0.11754655838012695
352.0,0.10624906420707703
384.0,0.09535939246416092
416.0,0.08812195807695389
448.0,0.08244617283344269
480.0,0.07915318012237549
512.0,0.07259245216846466
576.0,0.06870099902153015
640.0,0.058574218302965164
704.0,0.04601433500647545
768.0,0.03224002569913864
832.0,0.02096676453948021
896.0,0.007805530447512865
960.0,-0.00115003006067127
1024.0,-0.007889946922659874
1152.0,-0.003907277248799801
1280.0,-0.001174445729702711
1408.0,-1.5444617019966245e-05
1536.0,-0.009166061878204346
1664.0,-0.01222477201372385
1792.0,-0.016117552295327187
1920.0,-0.022939303889870644
2048.0,-0.011589727364480495
2304.0,-0.03103211708366871
2560.0,-0.03522235155105591
2816.0,-0.02883218228816986
3072.0,-0.018742317333817482
3328.0,-0.017360739409923553
3584.0,-0.014357111416757107
3840.0,-0.026906054466962814
4096.0,-0.04244017228484154
4608.0,-0.027813229709863663
5120.0,-0.008303298614919186
5632.0,-0.004258355591446161
6144.0,0.01566239818930626
6656.0,0.008707627654075623
7168.0,-0.06399767100811005
7680.0,-0.11444076150655746
8192.0,-0.08222535997629166
end
