version,3.0
numOfCh,1
type,point
parent_name,34a6d_1dot0-0dot01
ch_type,1_1
kcount,1
numberNandB,1
brightnessNandB,1
carpet pos,0
pc,0
Time (ms),CH1 Auto-Correlation
1.0,0.04882368817925453
2.0,0.0458197183907032
3.0,0.04315153881907463
4.0,0.04076168313622475
5.0,0.038579683750867844
6.0,0.03666699677705765
7.0,0.03492467477917671
8.0,0.03339942917227745
9.0,0.0320500023663044
10.0,0.03093876875936985
11.0,0.029893500730395317
12.0,0.028972959145903587
13.0,0.02819932997226715
14.0,0.02745623141527176
15.0,0.026712698861956596
16.0,0.026070134714245796
18.0,0.024924177676439285
20.0,0.02396611124277115
22.0,0.02309209480881691
24.0,0.0222960002720356
26.0,0.02148161642253399
28.0,0.020697250962257385
30.0,0.019945306703448296
32.0,0.01922457292675972
36.0,0.01806546375155449
40.0,0.017405033111572266
44.0,0.016693145036697388
48.0,0.015827642753720284
52.0,0.014935459941625595
56.0,0.014377640560269356
60.0,0.014367738738656044
64.0,0.014053327031433582
72.0,0.013561231084167957
80.0,0.013240157626569271
88.0,0.012777994386851788
96.0,0.012160781770944595
104.0,0.011285415850579739
112.0,0.010217896662652493
120.0,0.009297304786741734
128.0,0.008742976933717728
144.0,0.008073899894952774
160.0,0.009206293150782585
176.0,0.0093437060713768
192.0,0.008630800992250443
208.0,0.007199636194854975
224.0,0.007099836133420467
240.0,0.007807351183146238
256.0,0.007401025388389826
288.0,0.006412407383322716
320.0,0.005740593187510967
352.0,0.0077871219255030155
384.0,0.006347632966935635
416.0,0.006324856076389551
448.0,0.005700957030057907
480.0,0.005691695027053356
512.0,0.005126415751874447
576.0,0.001319658593274653
640.0,2.4670232960488647e-05
704.0,0.00022380860173143446
768.0,0.001780006568878889
832.0,0.002560616470873356
896.0,0.0015105354832485318
960.0,-0.0009959107264876366
1024.0,-0.0019978040363639593
1152.0,-0.0012953641125932336
1280.0,-0.0016259998083114624
1408.0,-0.0004886905662715435
1536.0,-0.0027667502872645855
1664.0,-0.001101301982998848
1792.0,-0.0031096867751330137
1920.0,-0.003978310152888298
2048.0,-0.0023789287079125643
2304.0,-0.00018736234051175416
2560.0,-0.0017978454707190394
2816.0,-0.00403822585940361
3072.0,-0.002268274314701557
3328.0,-0.004837528802454472
3584.0,-0.0026292367838323116
3840.0,-0.0024746719282120466
4096.0,-0.0028342525474727154
4608.0,0.0018185552908107638
5120.0,0.0016828275984153152
5632.0,0.0001722935849102214
6144.0,0.0023531599435955286
6656.0,-0.0007731813821010292
7168.0,0.0007145298295654356
7680.0,0.0007806991343386471
8192.0,-0.0002547258045524359
end
