version,3.0
numOfCh,1
type,point
parent_name,34a6d_1dot0-0dot01
ch_type,1_1
kcount,1
numberNandB,1
brightnessNandB,1
carpet pos,0
pc,0
Time (ms),CH1 Auto-Correlation
1.0,0.04765251278877258
2.0,0.04431452974677086
3.0,0.04146932065486908
4.0,0.03895634785294533
5.0,0.03671897575259209
6.0,0.034738823771476746
7.0,0.03306236118078232
8.0,0.031592559069395065
9.0,0.030215302482247353
10.0,0.02896074764430523
11.0,0.0277330931276083
12.0,0.02657988667488098
13.0,0.025376414880156517
14.0,0.024251163005828857
15.0,0.023272661492228508
16.0,0.022394856438040733
18.0,0.020980406552553177
20.0,0.019823605194687843
22.0,0.018831510096788406
24.0,0.01800289936363697
26.0,0.017187410965561867
28.0,0.016508271917700768
30.0,0.01591428555548191
32.0,0.015348579734563828
36.0,0.01445699017494917
40.0,0.01348879560828209
44.0,0.012890221551060677
48.0,0.01228304486721754
52.0,0.011843250133097172
56.0,0.011546149849891663
60.0,0.010690413415431976
64.0,0.009415249340236187
72.0,0.00790102407336235
80.0,0.007525833323597908
88.0,0.006647286470979452
96.0,0.005874310620129108
104.0,0.0060274493880569935
112.0,0.006967497058212757
120.0,0.007560864090919495
128.0,0.007598633412271738
144.0,0.006777818780392408
160.0,0.005712400656193495
176.0,0.004328130278736353
192.0,0.002477210247889161
208.0,0.0025646116118878126
224.0,0.002166780410334468
240.0,0.001495811389759183
256.0,0.0016268177423626184
288.0,-0.0007863189093768597
320.0,-0.0024556980933994055
352.0,-0.001318730297498405
384.0,-0.0014371905708685517
416.0,-0.0018947516800835729
448.0,-0.0018221738282591105
480.0,-0.00042577265412546694
512.0,0.00023780728224664927
576.0,-0.0010081131476908922
640.0,-0.0011154321255162358
704.0,-0.00027154647978022695
768.0,0.0011167565826326609
832.0,-0.0008043218404054642
896.0,-0.0005250653484836221
960.0,-0.0009488880750723183
1024.0,-0.0013432578416541219
1152.0,-0.0008828568970784545
1280.0,0.0006855425890535116
1408.0,0.00028628253494389355
1536.0,0.00042908318573608994
1664.0,0.0015528001822531223
1792.0,0.0005420017405413091
1920.0,-0.0012978820595890284
2048.0,-0.0012454132083803415
2304.0,-0.0001025834571919404
2560.0,-0.0010522282682359219
2816.0,-0.001962439389899373
3072.0,0.0007632336928509176
3328.0,-0.0006054593250155449
3584.0,-0.003097773529589176
3840.0,0.0025180287193506956
4096.0,0.0024356006179004908
4608.0,0.0009810719639062881
5120.0,-0.002620353829115629
5632.0,0.0016866177320480347
6144.0,-0.001150278141722083
6656.0,-0.004197766538709402
7168.0,-1.22928850032622e-05
7680.0,-0.000510607787873596
8192.0,0.002016284968703985
end
