version,3.0
numOfCh,1
type,point
parent_name,34a6d_1dot0-0dot01
ch_type,1_1
kcount,1
numberNandB,1
brightnessNandB,1
carpet pos,0
pc,0
Time (ms),CH1 Auto-Correlation
1.0,0.1784517765045166
2.0,0.17604327201843262
3.0,0.173972025513649
4.0,0.17218352854251862
5.0,0.17060671746730804
6.0,0.16908009350299835
7.0,0.16765838861465454
8.0,0.166323721408844
9.0,0.16510158777236938
10.0,0.16385172307491302
11.0,0.16272090375423431
12.0,0.16169071197509766
13.0,0.1606617271900177
14.0,0.15974512696266174
15.0,0.15896067023277283
16.0,0.158199742436409
18.0,0.15682712197303772
20.0,0.15548765659332275
22.0,0.15414932370185852
24.0,0.1527574360370636
26.0,0.15148472785949707
28.0,0.1503397524356842
30.0,0.1492946594953537
32.0,0.14840266108512878
36.0,0.14649824798107147
40.0,0.144818514585495
44.0,0.14321202039718628
48.0,0.141719788312912
52.0,0.1405182033777237
56.0,0.13899382948875427
60.0,0.13744378089904785
64.0,0.1358216404914856
72.0,0.1332901567220688
80.0,0.12989795207977295
88.0,0.12607860565185547
96.0,0.12276983261108398
104.0,0.1199537068605423
112.0,0.11650025844573975
120.0,0.11366309225559235
128.0,0.11090509593486786
144.0,0.10810688138008118
160.0,0.10818811506032944
176.0,0.10818833112716675
192.0,0.10970672219991684
208.0,0.1111811101436615
224.0,0.11309568583965302
240.0,0.11579979956150055
256.0,0.11700961738824844
288.0,0.11835576593875885
320.0,0.11821448057889938
352.0,0.11401991546154022
384.0,0.10897372663021088
416.0,0.10288459807634354
448.0,0.10039155930280685
480.0,0.09977025538682938
512.0,0.10033173859119415
576.0,0.10375994443893433
640.0,0.09670841693878174
704.0,0.08488582074642181
768.0,0.0758342295885086
832.0,0.0700242668390274
896.0,0.06542087346315384
960.0,0.057172033935785294
1024.0,0.0525280199944973
1152.0,0.04162714257836342
1280.0,0.024633921682834625
1408.0,0.007384699769318104
1536.0,0.0011503330897539854
1664.0,-0.008225024677813053
1792.0,-0.014441062696278095
1920.0,-0.01844617910683155
2048.0,-0.022632835432887077
2304.0,-0.03314618766307831
2560.0,-0.02818015031516552
2816.0,-0.026113266125321388
3072.0,-0.01902749203145504
3328.0,-0.02221429906785488
3584.0,-0.016846273094415665
3840.0,-0.014199580065906048
4096.0,-0.0207420252263546
4608.0,-0.021377701312303543
5120.0,-0.028133971616625786
5632.0,-0.029620902612805367
6144.0,-0.031033845618367195
6656.0,-0.04160749167203903
7168.0,-0.05934906378388405
7680.0,-0.07306618243455887
8192.0,-0.06358534097671509
end
