version,3.0
numOfCh,1
type,point
parent_name,34a6d_1dot0-0dot01
ch_type,1_1
kcount,1
numberNandB,1
brightnessNandB,1
carpet pos,0
pc,0
Time (ms),CH1 Auto-Correlation
1.0,0.038817256689071655
2.0,0.03572978079319
3.0,0.03308869153261185
4.0,0.030896933749318123
5.0,0.028933562338352203
6.0,0.027183501049876213
7.0,0.025536689907312393
8.0,0.024061959236860275
9.0,0.022747399285435677
10.0,0.02153860032558441
11.0,0.020422017201781273
12.0,0.019440609961748123
13.0,0.018604055047035217
14.0,0.017717184498906136
15.0,0.016878703609108925
16.0,0.016148535534739494
18.0,0.014909978955984116
20.0,0.013883574865758419
22.0,0.012968435883522034
24.0,0.012146620079874992
26.0,0.011342578567564487
28.0,0.01047607883810997
30.0,0.009893722832202911
32.0,0.009501824155449867
36.0,0.008445018902420998
40.0,0.007585691288113594
44.0,0.007117395289242268
48.0,0.00655011972412467
52.0,0.0058495537377893925
56.0,0.005352934822440147
60.0,0.004996290430426598
64.0,0.004746944177895784
72.0,0.003992926795035601
80.0,0.003498580539599061
88.0,0.003772884141653776
96.0,0.003852853551506996
104.0,0.003795806085690856
112.0,0.002731525804847479
120.0,0.0015794818755239248
128.0,0.0011986028403043747
144.0,0.0003705668495967984
160.0,1.4185055988491513e-05
176.0,0.0003599032061174512
192.0,0.0009717579814605415
208.0,0.0005610937369056046
224.0,-0.0003172297729179263
240.0,-0.0015848188195377588
256.0,-0.0025379990693181753
288.0,-0.000987462350167334
320.0,0.0009492396493442357
352.0,0.0025541838258504868
384.0,0.003988085780292749
416.0,0.0031431992538273335
448.0,0.0026535545475780964
480.0,0.0017352350987493992
512.0,0.00030069862259551883
576.0,5.2239916840335354e-05
640.0,-0.0009950266685336828
704.0,-0.0011335414601489902
768.0,0.0002633428666740656
832.0,0.0004931116127409041
896.0,0.0019810053054243326
960.0,0.0014205537736415863
1024.0,-0.00022350248764269054
1152.0,-0.00038968981243669987
1280.0,0.00021661000209860504
1408.0,0.00026377447647973895
1536.0,-0.0024893314111977816
1664.0,-0.0009624126832932234
1792.0,-0.0005173241370357573
1920.0,-0.0014580768765881658
2048.0,0.0005799017962999642
2304.0,-0.00017578201368451118
2560.0,-7.366495992755517e-05
2816.0,5.3616095101460814e-05
3072.0,1.8383936549071223e-05
3328.0,-0.00030264348606579006
3584.0,-0.00028374831890687346
3840.0,-0.00040204962715506554
4096.0,-0.0008332045981660485
4608.0,0.0004450619453564286
5120.0,0.00046454629045911133
5632.0,0.0008310578996315598
6144.0,-0.00012843255535699427
6656.0,-0.0014502350240945816
7168.0,-0.0015603998908773065
7680.0,-0.0010318333515897393
8192.0,0.00014758204633835703
end
