version,3.0
numOfCh,1
type,point
parent_name,34a6d_1dot0-0dot01
ch_type,1_1
kcount,1
numberNandB,1
brightnessNandB,1
carpet pos,0
pc,0
Time (ms),CH1 Auto-Correlation
1.0,0.0430835597217083
2.0,0.039966512471437454
3.0,0.03732578828930855
4.0,0.03499536216259003
5.0,0.03289873152971268
6.0,0.031055865809321404
7.0,0.02939632348716259
8.0,0.027851790189743042
9.0,0.026479478925466537
10.0,0.025204090401530266
11.0,0.024174435064196587
12.0,0.02327027916908264
13.0,0.022394029423594475
14.0,0.02160685323178768
15.0,0.020757466554641724
16.0,0.019923489540815353
18.0,0.018650025129318237
20.0,0.017471835017204285
22.0,0.016485922038555145
24.0,0.01556053850799799
26.0,0.014769326895475388
28.0,0.014144820161163807
30.0,0.013662460260093212
32.0,0.013187562115490437
36.0,0.012461197562515736
40.0,0.011894100345671177
44.0,0.011088169179856777
48.0,0.010119795799255371
52.0,0.00956728495657444
56.0,0.009319288656115532
60.0,0.00903422199189663
64.0,0.008916406892240047
72.0,0.00761338509619236
80.0,0.0066373213194310665
88.0,0.005921842530369759
96.0,0.00517783360555768
104.0,0.00456727109849453
112.0,0.003454325720667839
120.0,0.002701815450564027
128.0,0.0024940138682723045
144.0,0.0016312156803905964
160.0,0.0015162782510742545
176.0,0.0020752549171447754
192.0,0.0016647005686536431
208.0,0.0030847678426653147
224.0,0.0027910047210752964
240.0,0.0018841992132365704
256.0,0.0014420135412365198
288.0,0.0013854751596227288
320.0,0.0005802224040962756
352.0,0.0014429900329560041
384.0,0.0017722607590258121
416.0,0.002071462571620941
448.0,0.0010551083832979202
480.0,0.000650383997708559
512.0,0.0009611187851987779
576.0,0.0027833187486976385
640.0,0.0026114557404071093
704.0,0.001060792594216764
768.0,0.0001890206622192636
832.0,-0.001094413106329739
896.0,-0.000952289963606745
960.0,-0.0004977437201887369
1024.0,0.001239884295500815
1152.0,0.0010699945269152522
1280.0,-0.001046133111231029
1408.0,-0.0009713646140880883
1536.0,-1.2048022654198576e-05
1664.0,0.00011545394954737276
1792.0,0.0002447717706672847
1920.0,-0.00043913681292906404
2048.0,-0.003059403970837593
2304.0,-0.0012810485204681754
2560.0,-0.0014019260415807366
2816.0,0.0009445121977478266
3072.0,0.001379219233058393
3328.0,0.001519771758466959
3584.0,0.0009720653761178255
3840.0,-0.00039435771759599447
4096.0,-0.0005233148112893105
4608.0,-0.0020360334310680628
5120.0,-0.0008304156363010406
5632.0,-0.0009926327038556337
6144.0,-0.001178409089334309
6656.0,0.000937439501285553
7168.0,0.0001861327327787876
7680.0,-0.001347508281469345
8192.0,-0.0010239750845357776
end
