version,3.0
numOfCh,1
type,point
parent_name,34a6d_1dot0-0dot01
ch_type,1_1
kcount,1
numberNandB,1
brightnessNandB,1
carpet pos,0
pc,0
Time (ms),CH1 Auto-Correlation
1.0,0.09349477291107178
2.0,0.09060012549161911
3.0,0.08806158602237701
4.0,0.08579042553901672
5.0,0.0837688148021698
6.0,0.0820365622639656
7.0,0.08035038411617279
8.0,0.0788290724158287
9.0,0.07736796140670776
10.0,0.0760725885629654
11.0,0.0748664140701294
12.0,0.07370910793542862
13.0,0.07259414345026016
14.0,0.07161442935466766
15.0,0.0706477165222168
16.0,0.06963451951742172
18.0,0.06768390536308289
20.0,0.06634204089641571
22.0,0.06509073078632355
24.0,0.06394418329000473
26.0,0.06279749423265457
28.0,0.06162581965327263
30.0,0.06046777591109276
32.0,0.05932304635643959
36.0,0.056751422584056854
40.0,0.054871611297130585
44.0,0.05304044112563133
48.0,0.05156664922833443
52.0,0.05036335438489914
56.0,0.04973617568612099
60.0,0.04921306297183037
64.0,0.04818704351782799
72.0,0.04500322788953781
80.0,0.0423257015645504
88.0,0.03969215974211693
96.0,0.037716805934906006
104.0,0.036410409957170486
112.0,0.03532059118151665
120.0,0.034555498510599136
128.0,0.03438129648566246
144.0,0.03499031439423561
160.0,0.03536679223179817
176.0,0.0350913442671299
192.0,0.03406606987118721
208.0,0.03309329226613045
224.0,0.03158217668533325
240.0,0.03091857023537159
256.0,0.03081909939646721
288.0,0.02888323925435543
320.0,0.02877068519592285
352.0,0.030255302786827087
384.0,0.028618501499295235
416.0,0.02848995476961136
448.0,0.02538125030696392
480.0,0.02406073920428753
512.0,0.023691298440098763
576.0,0.019997505471110344
640.0,0.01886705867946148
704.0,0.0193589236587286
768.0,0.01593657396733761
832.0,0.014351398684084415
896.0,0.01099717989563942
960.0,0.006566961295902729
1024.0,0.0036001643165946007
1152.0,0.00423478614538908
1280.0,-0.0007426132797263563
1408.0,-0.0012961705215275288
1536.0,-0.0015146323712542653
1664.0,-0.001105613075196743
1792.0,-0.003914638422429562
1920.0,-0.006649285554885864
2048.0,-0.009654785506427288
2304.0,-0.009981040842831135
2560.0,-0.007206813432276249
2816.0,-0.008425131440162659
3072.0,-0.012520698830485344
3328.0,-0.009791544638574123
3584.0,-0.009591068141162395
3840.0,-0.01254123542457819
4096.0,-0.011499970220029354
4608.0,-0.010538389906287193
5120.0,-0.004735417198389769
5632.0,0.0006663861568085849
6144.0,0.0033872611820697784
6656.0,0.008078044280409813
7168.0,0.016040565446019173
7680.0,0.006133492104709148
8192.0,-0.010670824907720089
end
