version,3.0
numOfCh,1
type,point
parent_name,34a6d_1dot0-0dot01
ch_type,1_1
kcount,1
numberNandB,1
brightnessNandB,1
carpet pos,0
pc,0
Time (ms),CH1 Auto-Correlation
1.0,0.0404646135866642
2.0,0.03741403669118881
3.0,0.03475751355290413
4.0,0.03238280117511749
5.0,0.030383406206965446
6.0,0.028644990175962448
7.0,0.02703351527452469
8.0,0.025491084903478622
9.0,0.024000970646739006
10.0,0.022733593359589577
11.0,0.021589208394289017
12.0,0.02061333693563938
13.0,0.01969078555703163
14.0,0.018767831847071648
15.0,0.017935702577233315
16.0,0.01708286814391613
18.0,0.015561152249574661
20.0,0.014235995709896088
22.0,0.012936587445437908
24.0,0.011530268006026745
26.0,0.010338077321648598
28.0,0.009171689860522747
30.0,0.008181443437933922
32.0,0.0073646847158670425
36.0,0.0060488260351121426
40.0,0.00510477414354682
44.0,0.004439772106707096
48.0,0.0038621313869953156
52.0,0.003730732947587967
56.0,0.0037334326189011335
60.0,0.0034767049364745617
64.0,0.003400840563699603
72.0,0.003033434273675084
80.0,0.0029699336737394333
88.0,0.0021104675251990557
96.0,0.0014237239956855774
104.0,0.0013680151896551251
112.0,0.0018093138933181763
120.0,0.0017564235022291541
128.0,0.001751990639604628
144.0,0.001344118034467101
160.0,0.0006404198938980699
176.0,0.0012437587138265371
192.0,0.0011861713137477636
208.0,0.0008448742446489632
224.0,-2.0697159925475717e-05
240.0,0.00020708254305645823
256.0,-1.5151713341765571e-05
288.0,-0.0008472742629237473
320.0,-0.0012136748991906643
352.0,-0.0009596644667908549
384.0,-0.0004462321230676025
416.0,-0.0010692995274439454
448.0,-0.0014626099728047848
480.0,-0.0005954029620625079
512.0,-0.0018844740698114038
576.0,-0.001832253998145461
640.0,-0.001886664074845612
704.0,-0.0008394336909987032
768.0,-0.00128228310495615
832.0,6.660445069428533e-05
896.0,0.00024298143398482352
960.0,2.19080138776917e-05
1024.0,-0.00039236649172380567
1152.0,-0.0012140539474785328
1280.0,-0.0006639441708102822
1408.0,-0.00018650744459591806
1536.0,0.0014392610173672438
1664.0,0.00032513789483346045
1792.0,0.0009001775761134923
1920.0,-0.0004250774800311774
2048.0,-0.0022180983796715736
2304.0,0.0004502138472162187
2560.0,0.00201552826911211
2816.0,0.00032473719329573214
3072.0,-0.0015190399717539549
3328.0,0.0002021161635639146
3584.0,0.0005369572318159044
3840.0,-0.0010717029217630625
4096.0,0.0005062572890892625
4608.0,-0.0012062956811860204
5120.0,0.0013308636844158173
5632.0,-0.0003512979601509869
6144.0,-0.0006304822745732963
6656.0,-9.762543049873784e-05
7168.0,-0.00028277124511078
7680.0,-0.0002914939832407981
8192.0,0.0011209548683837056
end
