version,3.0
numOfCh,1
type,point
parent_name,34a6d_1dot0-0dot01
ch_type,1_1
kcount,1
numberNandB,1
brightnessNandB,1
carpet pos,0
pc,0
Time (ms),CH1 Auto-Correlation
1.0,0.03835531696677208
2.0,0.03515501320362091
3.0,0.03242376446723938
4.0,0.030042897909879684
5.0,0.02797999046742916
6.0,0.02610331028699875
7.0,0.024470485746860504
8.0,0.02298155054450035
9.0,0.021625887602567673
10.0,0.02034066990017891
11.0,0.019209010526537895
12.0,0.018185365945100784
13.0,0.017165806144475937
14.0,0.016318967565894127
15.0,0.01550991926342249
16.0,0.01472550816833973
18.0,0.013390211388468742
20.0,0.012209896929562092
22.0,0.011251627467572689
24.0,0.010397925972938538
26.0,0.009436633437871933
28.0,0.00863603875041008
30.0,0.007992616854608059
32.0,0.007509702350944281
36.0,0.006871174555271864
40.0,0.006090298295021057
44.0,0.005819627549499273
48.0,0.005760436411947012
52.0,0.005699626170098782
56.0,0.005050106439739466
60.0,0.004438491538167
64.0,0.003925957717001438
72.0,0.0030609979294240475
80.0,0.0027702022343873978
88.0,0.002360772807151079
96.0,0.0017331675626337528
104.0,0.0015708167338743806
112.0,0.0015073481481522322
120.0,0.001600405783392489
128.0,0.0018339219968765974
144.0,0.0009665002580732107
160.0,0.0014478220837190747
176.0,0.0021099925506860018
192.0,0.00013778687571175396
208.0,-0.00024369280436076224
224.0,-0.00019762260490097106
240.0,-0.0011082899291068316
256.0,-0.0005796070327050984
288.0,-0.0024093929678201675
320.0,-0.0010451674461364746
352.0,-0.0010289197089150548
384.0,0.0002664209750946611
416.0,0.0008508598548360169
448.0,-0.00037613348104059696
480.0,-0.0004968025605194271
512.0,-0.001468505011871457
576.0,-0.0011203938629478216
640.0,-0.002155961701646447
704.0,-0.0016890116967260838
768.0,-0.0013056729221716523
832.0,-0.0006959768361411989
896.0,-0.0003728314477484673
960.0,0.00013188360026106238
1024.0,5.9271231293678284e-05
1152.0,0.0008280797628685832
1280.0,0.0007119160727597773
1408.0,0.0001156166908913292
1536.0,-0.00028266318258829415
1664.0,-0.00034269283059984446
1792.0,-0.0010336637496948242
1920.0,-0.0005363677628338337
2048.0,0.0010959309292957187
2304.0,0.000493482279125601
2560.0,3.650377766462043e-05
2816.0,-0.00032333334092982113
3072.0,0.000887845060788095
3328.0,-6.654615390289109e-06
3584.0,1.7164518794743344e-05
3840.0,6.248549470910802e-05
4096.0,-0.0004094944160897285
4608.0,-0.0005993340164422989
5120.0,0.000776293920353055
5632.0,-0.0008071563788689673
6144.0,5.8768418966792524e-05
6656.0,0.0003952587430831045
7168.0,-0.0007412527920678258
7680.0,-0.0002468638413120061
8192.0,-4.203577191219665e-05
end
