version,3.0
numOfCh,1
type,point
parent_name,34a6d_1dot0-0dot01
ch_type,1_1
kcount,1
numberNandB,1
brightnessNandB,1
carpet pos,0
pc,0
Time (ms),CH1 Auto-Correlation
1.0,0.04221825674176216
2.0,0.03914197161793709
3.0,0.03646651655435562
4.0,0.03421759232878685
5.0,0.03222602978348732
6.0,0.030416373163461685
7.0,0.02886803075671196
8.0,0.027466971427202225
9.0,0.026188025251030922
10.0,0.025133218616247177
11.0,0.024161485955119133
12.0,0.023315157741308212
13.0,0.022552242502570152
14.0,0.021775808185338974
15.0,0.021056601777672768
16.0,0.020325953140854836
18.0,0.019044343382120132
20.0,0.017982015386223793
22.0,0.01705632358789444
24.0,0.016173454001545906
26.0,0.015217313542962074
28.0,0.0143653005361557
30.0,0.01364255789667368
32.0,0.013133362866938114
36.0,0.01227261871099472
40.0,0.011023257859051228
44.0,0.009885529987514019
48.0,0.00909188948571682
52.0,0.0085374154150486
56.0,0.00801872555166483
60.0,0.007525427266955376
64.0,0.00732653820887208
72.0,0.0074504041112959385
80.0,0.006959573831409216
88.0,0.005753033794462681
96.0,0.0050255851820111275
104.0,0.004002120345830917
112.0,0.0035784312058240175
120.0,0.002990840235725045
128.0,0.00264857430011034
144.0,0.00233757053501904
160.0,0.0008833638275973499
176.0,0.00017463360563851893
192.0,-6.222158845048398e-06
208.0,-0.00017617532284930348
224.0,-0.0004569930606521666
240.0,-0.0011234406847506762
256.0,-0.0007760949665680528
288.0,-0.0016853805864229798
320.0,-0.0028269311878830194
352.0,-0.002942186314612627
384.0,-0.0017645531333982944
416.0,-0.001107088173739612
448.0,-0.0008336729952134192
480.0,-0.000961456389632076
512.0,-0.0007830006652511656
576.0,0.001004091347567737
640.0,-5.908422735956265e-06
704.0,-0.00014375627506524324
768.0,-0.001482454244978726
832.0,-0.0007797927246429026
896.0,-0.0013012203853577375
960.0,-9.186129318550229e-05
1024.0,0.0012301021488383412
1152.0,0.002301742322742939
1280.0,0.001513696275651455
1408.0,0.0006561226327903569
1536.0,-0.0018680195789784193
1664.0,-0.0007105424883775413
1792.0,0.0029431155417114496
1920.0,0.0030614815186709166
2048.0,-0.0009498283034190536
2304.0,-0.002000197069719434
2560.0,0.0007689049234613776
2816.0,-0.0005682012415491045
3072.0,0.003370222868397832
3328.0,-0.00015194580191746354
3584.0,0.0006222438532859087
3840.0,-0.0003344197466503829
4096.0,-0.002256178529933095
4608.0,0.0010829580714926124
5120.0,-0.0010433145798742771
5632.0,-0.0003194294695276767
6144.0,-0.0010010282276198268
6656.0,0.000493027560878545
7168.0,-0.0008085058652795851
7680.0,0.0002842015237547457
8192.0,3.696433486766182e-05
end
