version,3.0
numOfCh,1
type,point
parent_name,34a6d_1dot0-0dot01
ch_type,1_1
kcount,1
numberNandB,1
brightnessNandB,1
carpet pos,0
pc,0
Time (ms),CH1 Auto-Correlation
1.0,0.04068203270435333
2.0,0.03736763447523117
3.0,0.03452848643064499
4.0,0.032128702849149704
5.0,0.02996761165559292
6.0,0.028069213032722473
7.0,0.026412783190608025
8.0,0.024956684559583664
9.0,0.02365848608314991
10.0,0.02251233346760273
11.0,0.021334223449230194
12.0,0.02030925452709198
13.0,0.01943611353635788
14.0,0.018717173486948013
15.0,0.017914650961756706
16.0,0.017016956582665443
18.0,0.015505868010222912
20.0,0.014275302179157734
22.0,0.013290315866470337
24.0,0.012419076636433601
26.0,0.011630073189735413
28.0,0.010943816043436527
30.0,0.010366481728851795
32.0,0.009748993441462517
36.0,0.008528023958206177
40.0,0.007624492049217224
44.0,0.0069197556003928185
48.0,0.006020419765263796
52.0,0.005437158513814211
56.0,0.005163988564163446
60.0,0.004732179921120405
64.0,0.004441551398485899
72.0,0.004146623890846968
80.0,0.00432163430377841
88.0,0.005192743148654699
96.0,0.0052750748582184315
104.0,0.005309595726430416
112.0,0.005263140890747309
120.0,0.004947458393871784
128.0,0.0047674523666501045
144.0,0.003178743412718177
160.0,0.001401317771524191
176.0,0.0011624465696513653
192.0,0.0010509052081033587
208.0,-0.00010217426461167634
224.0,-0.001538202865049243
240.0,-0.0011707470985129476
256.0,-0.0010839871829375625
288.0,-0.0011673967819660902
320.0,-0.0009310653549619019
352.0,-0.002039890270680189
384.0,-0.001760554499924183
416.0,-0.0013167079305276275
448.0,-0.0018409809563308954
480.0,-0.0008461899124085903
512.0,-0.00045069592306390405
576.0,0.00017950400069821626
640.0,-0.0012784128775820136
704.0,0.0004683147417381406
768.0,-0.0007419505855068564
832.0,-9.810165647650138e-05
896.0,-0.0010027122916653752
960.0,-0.0017071887850761414
1024.0,-0.000920395425055176
1152.0,-0.000701974262483418
1280.0,-3.480110899545252e-05
1408.0,-0.002430290449410677
1536.0,-0.001241333782672882
1664.0,-0.0010265902383252978
1792.0,0.0010624146088957787
1920.0,0.001286742277443409
2048.0,-0.00027329244767315686
2304.0,-0.0012520866002887487
2560.0,0.0005970321944914758
2816.0,-0.0009638998890295625
3072.0,-0.00033160665770992637
3328.0,0.0010136286728084087
3584.0,0.0008025571587495506
3840.0,-0.0005721914349123836
4096.0,0.0014776349999010563
4608.0,-0.0007009953842498362
5120.0,-3.5663015296449885e-05
5632.0,-0.0008992643561214209
6144.0,-0.00039879634277895093
6656.0,0.00018222338985651731
7168.0,0.0004922714433632791
7680.0,7.970674050739035e-05
8192.0,-0.00033341257949359715
end
