version,3.0
numOfCh,1
type,point
parent_name,34a6d_1dot0-0dot01
ch_type,1_1
kcount,1
numberNandB,1
brightnessNandB,1
carpet pos,0
pc,0
Time (ms),CH1 Auto-Correlation
1.0,0.042138949036598206
2.0,0.03894440829753876
3.0,0.03615419566631317
4.0,0.03371932730078697
5.0,0.031623248010873795
6.0,0.029745684936642647
7.0,0.028174228966236115
8.0,0.02666475437581539
9.0,0.025341542437672615
10.0,0.024155613034963608
11.0,0.023066997528076172
12.0,0.021979346871376038
13.0,0.02100732922554016
14.0,0.020214706659317017
15.0,0.019495807588100433
16.0,0.018954869359731674
18.0,0.017870107665657997
20.0,0.016990866512060165
22.0,0.01608867757022381
24.0,0.015454825013875961
26.0,0.014933988451957703
28.0,0.014482113532721996
30.0,0.014012593775987625
32.0,0.013533134944736958
36.0,0.012636074796319008
40.0,0.011663947254419327
44.0,0.010760974138975143
48.0,0.009934677742421627
52.0,0.009435956366360188
56.0,0.00864615011960268
60.0,0.008284918032586575
64.0,0.008367291651666164
72.0,0.008111209608614445
80.0,0.007510372903198004
88.0,0.006834603846073151
96.0,0.0056022717617452145
104.0,0.004511576145887375
112.0,0.003927772399038076
120.0,0.00398409366607666
128.0,0.004419515375047922
144.0,0.003859970485791564
160.0,0.0022741188295185566
176.0,0.0006769326864741743
192.0,0.00044940298539586365
208.0,0.0005102562718093395
224.0,-0.00016778940334916115
240.0,-0.0011257949518039823
256.0,-0.00032555710640735924
288.0,0.0008735244045965374
320.0,-1.9121673176414333e-05
352.0,-0.0005246863001957536
384.0,-0.0003676774213090539
416.0,0.00024326791753992438
448.0,-0.0006017513806000352
480.0,-0.0006760230171494186
512.0,-0.0004099075449630618
576.0,0.0017369703855365515
640.0,0.0027530191000550985
704.0,0.0026007485575973988
768.0,0.0003888611972797662
832.0,0.00016088450502138585
896.0,-0.0013159181689843535
960.0,-0.0010934663005173206
1024.0,-0.0005517555400729179
1152.0,0.0013153563486412168
1280.0,0.0010359145235270262
1408.0,-0.0005729899276047945
1536.0,0.0007494609453715384
1664.0,6.365068111335859e-05
1792.0,0.0011776693863794208
1920.0,0.00022827275097370148
2048.0,-0.000920668535400182
2304.0,-0.0016417363658547401
2560.0,-6.502978067146614e-05
2816.0,0.00037779961712658405
3072.0,0.0015538742300122976
3328.0,0.0003087111690547317
3584.0,-0.0015655644237995148
3840.0,-0.0005114831728860736
4096.0,-0.0013423479394987226
4608.0,-0.0014141524443402886
5120.0,-0.0018226144602522254
5632.0,-0.0004065565299242735
6144.0,-0.0005385181866586208
6656.0,-0.00032696002745069563
7168.0,0.0010927327675744891
7680.0,6.981871410971507e-05
8192.0,0.0009277734789066017
end
