version,3.0
numOfCh,1
type,point
parent_name,34a6d_1dot0-0dot01
ch_type,1_1
kcount,1
numberNandB,1
brightnessNandB,1
carpet pos,0
pc,0
Time (ms),CH1 Auto-Correlation
1.0,0.0414922870695591
2.0,0.03830564394593239
3.0,0.03550759702920914
4.0,0.0330820195376873
5.0,0.031040485948324203
6.0,0.029314104467630386
7.0,0.027677319943904877
8.0,0.026227695867419243
9.0,0.024950629100203514
10.0,0.023877127096056938
11.0,0.022910578176379204
12.0,0.02203977480530739
13.0,0.021267548203468323
14.0,0.02057717926800251
15.0,0.0199759341776371
16.0,0.019483264535665512
18.0,0.018520692363381386
20.0,0.017459794878959656
22.0,0.01628280244767666
24.0,0.015314899384975433
26.0,0.014453547075390816
28.0,0.013664765283465385
30.0,0.012941114604473114
32.0,0.012289203703403473
36.0,0.011499938555061817
40.0,0.010529959574341774
44.0,0.009632042609155178
48.0,0.009197765029966831
52.0,0.008989162743091583
56.0,0.008569474332034588
60.0,0.008245473727583885
64.0,0.007935548201203346
72.0,0.0071750846691429615
80.0,0.007040854077786207
88.0,0.006552435457706451
96.0,0.005519734229892492
104.0,0.004545893054455519
112.0,0.004228223115205765
120.0,0.004193540196865797
128.0,0.004393147770315409
144.0,0.004402314778417349
160.0,0.004216617904603481
176.0,0.0038337819278240204
192.0,0.00422473531216383
208.0,0.004401978570967913
224.0,0.004724706057459116
240.0,0.004368102643638849
256.0,0.0036407536827027798
288.0,0.003139450680464506
320.0,0.0031073731370270252
352.0,0.0031402187887579203
384.0,0.0041811238043010235
416.0,0.004698693752288818
448.0,0.004424739629030228
480.0,0.004768827930092812
512.0,0.004280028864741325
576.0,0.0035250764340162277
640.0,0.0028796219266951084
704.0,0.0022947960533201694
768.0,0.0031518142204731703
832.0,0.004631269257515669
896.0,0.0017810212448239326
960.0,0.0008622491732239723
1024.0,0.0005873687914572656
1152.0,0.0008164059836417437
1280.0,-0.0008579110726714134
1408.0,0.00013056355237495154
1536.0,-0.0019313611555844545
1664.0,-0.00020390204736031592
1792.0,0.0007866965606808662
1920.0,-0.0007249806076288223
2048.0,-0.0014335348969325423
2304.0,-0.0017802452202886343
2560.0,-0.001382373971864581
2816.0,-0.002541075926274061
3072.0,-0.0031438611913472414
3328.0,-0.001159908715635538
3584.0,-0.0010691090719774365
3840.0,-0.001019526505842805
4096.0,-0.0005312003777362406
4608.0,0.0002120543213095516
5120.0,0.001065731979906559
5632.0,0.0012852499494329095
6144.0,0.0008234512060880661
6656.0,-0.0008935548830777407
7168.0,-0.001662317430600524
7680.0,-0.0033042505383491516
8192.0,-0.0032941114623099566
end
