version,3.0
numOfCh,1
type,point
parent_name,34a6d_1dot0-0dot01
ch_type,1_1
kcount,1
numberNandB,1
brightnessNandB,1
carpet pos,0
pc,0
Time (ms),CH1 Auto-Correlation
1.0,0.15159188210964203
2.0,0.14899590611457825
3.0,0.14662444591522217
4.0,0.14448583126068115
5.0,0.14244532585144043
6.0,0.1405637115240097
7.0,0.13873429596424103
8.0,0.1370873898267746
9.0,0.13554908335208893
10.0,0.134028822183609
11.0,0.13259567320346832
12.0,0.13108867406845093
13.0,0.12968765199184418
14.0,0.12835948169231415
15.0,0.12698903679847717
16.0,0.1257191002368927
18.0,0.12334666401147842
20.0,0.12137701362371445
22.0,0.119750015437603
24.0,0.11823008954524994
26.0,0.11661889404058456
28.0,0.11511927098035812
30.0,0.11375060677528381
32.0,0.1126759946346283
36.0,0.11100979149341583
40.0,0.10920875519514084
44.0,0.10714312642812729
48.0,0.10528963804244995
52.0,0.1033417284488678
56.0,0.10094989836215973
60.0,0.09871610999107361
64.0,0.09657659381628036
72.0,0.09278418868780136
80.0,0.08940346539020538
88.0,0.0868150070309639
96.0,0.08529922366142273
104.0,0.08507256954908371
112.0,0.08497032523155212
120.0,0.08428570628166199
128.0,0.08306143432855606
144.0,0.08056900650262833
160.0,0.07695156335830688
176.0,0.07403955608606339
192.0,0.06821919977664948
208.0,0.06278704851865768
224.0,0.06216895952820778
240.0,0.06468969583511353
256.0,0.0647970587015152
288.0,0.06964623928070068
320.0,0.06751766055822372
352.0,0.06454352289438248
384.0,0.06726692616939545
416.0,0.06791072338819504
448.0,0.0643344447016716
480.0,0.06101084500551224
512.0,0.05895950272679329
576.0,0.051201798021793365
640.0,0.03989042341709137
704.0,0.03810284286737442
768.0,0.04033197462558746
832.0,0.04391859844326973
896.0,0.04491791874170303
960.0,0.04674214497208595
1024.0,0.04034747555851936
1152.0,0.03017318993806839
1280.0,0.03810984641313553
1408.0,0.03760664165019989
1536.0,0.021799134090542793
1664.0,0.012826692312955856
1792.0,0.010185686871409416
1920.0,0.004072957672178745
2048.0,-0.003432905301451683
2304.0,-0.005634489934891462
2560.0,-0.010321605950593948
2816.0,-0.008011328056454659
3072.0,-0.006516183726489544
3328.0,-0.00874856673181057
3584.0,-0.016970770433545113
3840.0,-0.014072616584599018
4096.0,-0.008835568092763424
4608.0,-0.025302991271018982
5120.0,-0.040867969393730164
5632.0,-0.04246482253074646
6144.0,-0.04679393023252487
6656.0,-0.04242417961359024
7168.0,-0.035472698509693146
7680.0,-0.011672788299620152
8192.0,-0.0029482741374522448
end
