version,3.0
numOfCh,1
type,point
parent_name,34a6d_1dot0-0dot01
ch_type,1_1
kcount,1
numberNandB,1
brightnessNandB,1
carpet pos,0
pc,0
Time (ms),CH1 Auto-Correlation
1.0,0.06520405411720276
2.0,0.06183042749762535
3.0,0.058893270790576935
4.0,0.05626881495118141
5.0,0.053777486085891724
6.0,0.05160745978355408
7.0,0.04959975928068161
8.0,0.04773997515439987
9.0,0.0459684357047081
10.0,0.04438817501068115
11.0,0.043024346232414246
12.0,0.041667550802230835
13.0,0.0403924435377121
14.0,0.03924747183918953
15.0,0.03803446516394615
16.0,0.03687670826911926
18.0,0.035072918981313705
20.0,0.03348832577466965
22.0,0.03190891817212105
24.0,0.030428219586610794
26.0,0.029049750417470932
28.0,0.027902038767933846
30.0,0.02653816156089306
32.0,0.02555307000875473
36.0,0.02344554476439953
40.0,0.02153693698346615
44.0,0.01943511888384819
48.0,0.01752675510942936
52.0,0.015865487977862358
56.0,0.01428283378481865
60.0,0.013505777344107628
64.0,0.012383392080664635
72.0,0.011062763631343842
80.0,0.00976096373051405
88.0,0.008344453759491444
96.0,0.007690528407692909
104.0,0.008117291145026684
112.0,0.008380872197449207
120.0,0.007782838307321072
128.0,0.007190950680524111
144.0,0.006390939466655254
160.0,0.004468521568924189
176.0,0.0014476494397968054
192.0,0.0002580665750429034
208.0,-0.00019763142336159945
224.0,-0.00013866731023881584
240.0,-4.495677785598673e-05
256.0,-0.0015299217775464058
288.0,-0.0014179989229887724
320.0,-0.0002884293789975345
352.0,0.0018209528643637896
384.0,0.0017584313172847033
416.0,0.0002114792150678113
448.0,-0.003310134867206216
480.0,-0.004415275063365698
512.0,-0.002768316539004445
576.0,-5.6186807341873646e-05
640.0,0.0012082079192623496
704.0,-0.00035657730768434703
768.0,0.0007072313455864787
832.0,-0.00022343349701259285
896.0,-0.001981111476197839
960.0,0.00015275423356797546
1024.0,0.004078321624547243
1152.0,0.0035326990764588118
1280.0,-0.00011644529877230525
1408.0,-0.0011644281912595034
1536.0,0.00015867594629526138
1664.0,-0.0021659121848642826
1792.0,-0.0028347945772111416
1920.0,-0.0023802402429282665
2048.0,-0.0016107232077047229
2304.0,-0.001758601050823927
2560.0,-0.001781767699867487
2816.0,-0.0008894475759007037
3072.0,-0.0026540604885667562
3328.0,-0.0026360058691352606
3584.0,-0.0025704067666083574
3840.0,-0.0016921081114560366
4096.0,-0.0018639026675373316
4608.0,-0.0019822444301098585
5120.0,0.0014778808690607548
5632.0,0.002402036916464567
6144.0,0.0032633391674607992
6656.0,-0.00022980180801823735
7168.0,-0.00021032134827692062
7680.0,0.003079999005421996
8192.0,-0.0008490837644785643
end
