version,3.0
numOfCh,1
type,point
parent_name,34a6d_1dot0-0dot01
ch_type,1_1
kcount,1
numberNandB,1
brightnessNandB,1
carpet pos,0
pc,0
Time (ms),CH1 Auto-Correlation
1.0,0.044288720935583115
2.0,0.041014816612005234
3.0,0.03814917802810669
4.0,0.03574054688215256
5.0,0.03356243669986725
6.0,0.0316014364361763
7.0,0.029779650270938873
8.0,0.028089633211493492
9.0,0.02655656449496746
10.0,0.025147724896669388
11.0,0.023902520537376404
12.0,0.0227969903498888
13.0,0.021733831614255905
14.0,0.02063337154686451
15.0,0.01963866874575615
16.0,0.018765678629279137
18.0,0.017025727778673172
20.0,0.015427880920469761
22.0,0.01420548278838396
24.0,0.01333832647651434
26.0,0.012637872248888016
28.0,0.011922321282327175
30.0,0.011471796780824661
32.0,0.010977455414831638
36.0,0.010493342764675617
40.0,0.009794178418815136
44.0,0.008990212343633175
48.0,0.008085578680038452
52.0,0.007747512776404619
56.0,0.007608247455209494
60.0,0.007338589057326317
64.0,0.007124834693968296
72.0,0.006565760355442762
80.0,0.005621570628136396
88.0,0.004831518512219191
96.0,0.004751439206302166
104.0,0.004434382077306509
112.0,0.004014512524008751
120.0,0.0038138581439852715
128.0,0.0033530050422996283
144.0,0.0022884670179337263
160.0,0.0015713948523625731
176.0,0.000732212676666677
192.0,0.0014540011761710048
208.0,0.0020116104278713465
224.0,0.0017522157868370414
240.0,0.0015491904923692346
256.0,0.0019864740315824747
288.0,0.0014418920036405325
320.0,0.001718080136924982
352.0,0.0020493315532803535
384.0,1.1039847777283285e-05
416.0,0.000909295049495995
448.0,-0.0003002119483426213
480.0,-0.0011931667104363441
512.0,-0.0020345887169241905
576.0,-0.0013546078698709607
640.0,-0.00014116920647211373
704.0,-0.0011675461428239942
768.0,-0.0026676119305193424
832.0,-0.0016036322340369225
896.0,5.681243783328682e-05
960.0,0.0006132574053481221
1024.0,-0.0023542505223304033
1152.0,-0.0008875443018041551
1280.0,-0.0003249046567361802
1408.0,-0.0006248217541724443
1536.0,-0.0008282728376798332
1664.0,0.0008146636537276208
1792.0,-0.0004465638194233179
1920.0,-0.0003354230721015483
2048.0,-0.0013135832268744707
2304.0,-0.002798928413540125
2560.0,-0.001464012311771512
2816.0,-0.00013891002163290977
3072.0,-0.0007070971187204123
3328.0,-0.000521056295838207
3584.0,5.1191632337577175e-06
3840.0,0.0015611595008522272
4096.0,0.0013319649733603
4608.0,0.0005976996617391706
5120.0,0.0011349398409947753
5632.0,-0.00023938242520671338
6144.0,0.0013783177128061652
6656.0,-0.00012508491636253893
7168.0,-0.004734471440315247
7680.0,3.3755717595340684e-05
8192.0,0.00020348701218608767
end
