version,3.0
numOfCh,1
type,point
parent_name,34a6d_1dot0-0dot01
ch_type,1_1
kcount,1
numberNandB,1
brightnessNandB,1
carpet pos,0
pc,0
Time (ms),CH1 Auto-Correlation
1.0,0.1411360502243042
2.0,0.1381450742483139
3.0,0.13541895151138306
4.0,0.13303136825561523
5.0,0.1310402750968933
6.0,0.12926892936229706
7.0,0.1275787651538849
8.0,0.12600143253803253
9.0,0.12443509697914124
10.0,0.12301263958215714
11.0,0.12172361463308334
12.0,0.12048760056495667
13.0,0.11944109946489334
14.0,0.11843448132276535
15.0,0.11750955134630203
16.0,0.11647190898656845
18.0,0.11443185806274414
20.0,0.11251500993967056
22.0,0.11079203337430954
24.0,0.10922001302242279
26.0,0.10769256949424744
28.0,0.10624341666698456
30.0,0.10493015497922897
32.0,0.10378535836935043
36.0,0.10096044838428497
40.0,0.0984957367181778
44.0,0.09596292674541473
48.0,0.09337768703699112
52.0,0.09063030779361725
56.0,0.08786612004041672
60.0,0.08556471019983292
64.0,0.08355551213026047
72.0,0.0807541012763977
80.0,0.07861462980508804
88.0,0.07656640559434891
96.0,0.07492226362228394
104.0,0.07337410748004913
112.0,0.07214980572462082
120.0,0.07184682041406631
128.0,0.0714755579829216
144.0,0.07045827060937881
160.0,0.06862477958202362
176.0,0.06703530251979828
192.0,0.06431198865175247
208.0,0.061818115413188934
224.0,0.05898825824260712
240.0,0.057142049074172974
256.0,0.05667168274521828
288.0,0.05309141427278519
320.0,0.05011921375989914
352.0,0.04508969932794571
384.0,0.03722474351525307
416.0,0.032152578234672546
448.0,0.030883513391017914
480.0,0.031537000089883804
512.0,0.03201998397707939
576.0,0.035166528075933456
640.0,0.046095870435237885
704.0,0.041507165879011154
768.0,0.033636026084423065
832.0,0.028600115329027176
896.0,0.022904222831130028
960.0,0.020867155864834785
1024.0,0.013843203894793987
1152.0,-0.0011882685357704759
1280.0,-0.0014442243846133351
1408.0,-0.005855169612914324
1536.0,-0.005381867289543152
1664.0,-0.004893181379884481
1792.0,-0.0047375597059726715
1920.0,-0.00541720911860466
2048.0,-0.0013819937594234943
2304.0,-0.0066871000453829765
2560.0,-0.01703646034002304
2816.0,-0.011306192725896835
3072.0,-0.015723995864391327
3328.0,-0.026833709329366684
3584.0,-0.02833390422165394
3840.0,-0.0276331789791584
4096.0,-0.035445865243673325
4608.0,-0.030289344489574432
5120.0,-0.013283883221447468
5632.0,0.004829305224120617
6144.0,-0.0016968944109976292
6656.0,-0.007058367133140564
7168.0,-0.005775262136012316
7680.0,0.010119645856320858
8192.0,0.014554931782186031
end
