version,3.0
numOfCh,1
type,point
parent_name,34a6d_1dot0-0dot01
ch_type,1_1
kcount,1
numberNandB,1
brightnessNandB,1
carpet pos,0
pc,0
Time (ms),CH1 Auto-Correlation
1.0,0.09200295805931091
2.0,0.08895055204629898
3.0,0.08630137145519257
4.0,0.08378776907920837
5.0,0.08158315718173981
6.0,0.07956387102603912
7.0,0.07767149060964584
8.0,0.0759711042046547
9.0,0.07440228015184402
10.0,0.07307776063680649
11.0,0.07192167639732361
12.0,0.0708029642701149
13.0,0.0697016566991806
14.0,0.06864193826913834
15.0,0.06754729151725769
16.0,0.06652543693780899
18.0,0.06466055661439896
20.0,0.0628742203116417
22.0,0.06093438342213631
24.0,0.05902407318353653
26.0,0.05725836008787155
28.0,0.05556391924619675
30.0,0.05384582653641701
32.0,0.05245129391551018
36.0,0.05075555667281151
40.0,0.04913298040628433
44.0,0.047696150839328766
48.0,0.04626011848449707
52.0,0.04457484185695648
56.0,0.04263428971171379
60.0,0.04144028201699257
64.0,0.04104914143681526
72.0,0.0400710329413414
80.0,0.03883974254131317
88.0,0.038180917501449585
96.0,0.036165013909339905
104.0,0.034045785665512085
112.0,0.032424356788396835
120.0,0.03111528605222702
128.0,0.030748866498470306
144.0,0.02977350912988186
160.0,0.02846933901309967
176.0,0.02619357965886593
192.0,0.02307668700814247
208.0,0.018816323950886726
224.0,0.014143602922558784
240.0,0.012171844951808453
256.0,0.012489558197557926
288.0,0.012146773748099804
320.0,0.015083500184118748
352.0,0.017907898873090744
384.0,0.017451798543334007
416.0,0.015159237198531628
448.0,0.015335534699261189
480.0,0.01661905273795128
512.0,0.017436284571886063
576.0,0.010313494130969048
640.0,0.00390486023388803
704.0,0.003100451547652483
768.0,0.00253622536547482
832.0,-0.0013324415776878595
896.0,-0.003374344203621149
960.0,-0.00382767291739583
1024.0,-0.005225667729973793
1152.0,-0.0017535231309011579
1280.0,-0.0012926477938890457
1408.0,0.005146441515535116
1536.0,0.011176417581737041
1664.0,0.01290675438940525
1792.0,0.015371640212833881
1920.0,0.015525725670158863
2048.0,0.011992589570581913
2304.0,0.0010947053087875247
2560.0,-0.005537419114261866
2816.0,-0.011690502986311913
3072.0,-0.0071206046268343925
3328.0,-0.005182589404284954
3584.0,-0.003969771321862936
3840.0,0.004473675042390823
4096.0,0.0014384799869731069
4608.0,-0.007001219782978296
5120.0,-0.008690635673701763
5632.0,-0.00768388994038105
6144.0,-0.0037113246507942677
6656.0,-0.0055612362921237946
7168.0,-0.010355100966989994
7680.0,-0.012934008613228798
8192.0,-0.006028467323631048
end
