version,3.0
numOfCh,1
type,point
parent_name,34a6d_1dot0-0dot01
ch_type,1_1
kcount,1
numberNandB,1
brightnessNandB,1
carpet pos,0
pc,0
Time (ms),CH1 Auto-Correlation
1.0,0.041275955736637115
2.0,0.03808147832751274
3.0,0.03531487658619881
4.0,0.032876212149858475
5.0,0.030751768499612808
6.0,0.02882617712020874
7.0,0.02716275490820408
8.0,0.025633053854107857
9.0,0.02414122223854065
10.0,0.022848717868328094
11.0,0.02176901139318943
12.0,0.02070939540863037
13.0,0.019820237532258034
14.0,0.01895769126713276
15.0,0.01812291145324707
16.0,0.017450222745537758
18.0,0.01633378118276596
20.0,0.015410032123327255
22.0,0.01454088930040598
24.0,0.013948045670986176
26.0,0.013381018303334713
28.0,0.0126995500177145
30.0,0.012161617167294025
32.0,0.011844620108604431
36.0,0.010977216996252537
40.0,0.009870932437479496
44.0,0.008765111677348614
48.0,0.008057291619479656
52.0,0.007493629585951567
56.0,0.007306945975869894
60.0,0.007072454784065485
64.0,0.006766155827790499
72.0,0.005882726050913334
80.0,0.004536438267678022
88.0,0.0030705721583217382
96.0,0.0016007543308660388
104.0,0.0008193327812477946
112.0,0.0004383988562040031
120.0,0.0005955523229204118
128.0,0.0013017673045396805
144.0,0.0009420884307473898
160.0,0.00039781141094863415
176.0,-0.00018204182561021298
192.0,8.693992276675999e-05
208.0,0.00026136660017073154
224.0,0.0006689095171168447
240.0,-7.491414726246148e-05
256.0,0.0008710048859938979
288.0,0.002606163499876857
320.0,0.0024613607674837112
352.0,0.003541362239047885
384.0,0.002409268170595169
416.0,0.0022198306396603584
448.0,0.0011027302825823426
480.0,0.0006551641854457557
512.0,0.0005203955224715173
576.0,0.0011356706963852048
640.0,0.0015899826539680362
704.0,0.0006098725716583431
768.0,0.0002657090371940285
832.0,0.0006676359917037189
896.0,0.002222198760136962
960.0,0.0014441414969041944
1024.0,-0.000650052388664335
1152.0,-0.000711331726051867
1280.0,0.0001994287595152855
1408.0,0.0006394474185071886
1536.0,0.00035030822618864477
1664.0,-0.0006569086108356714
1792.0,-0.0012930248631164432
1920.0,0.0014773841248825192
2048.0,-0.00010787502833409235
2304.0,-0.0006181107019074261
2560.0,-0.0026331795379519463
2816.0,-0.001734600868076086
3072.0,-0.0017627198249101639
3328.0,-0.0007961895316839218
3584.0,3.409229248063639e-05
3840.0,-0.00027855319785885513
4096.0,-0.0008023706031963229
4608.0,0.0011831596493721008
5120.0,0.001247877487912774
5632.0,0.0018349934834986925
6144.0,0.00026018856442533433
6656.0,0.0016756050754338503
7168.0,0.00014520701370202005
7680.0,-0.0006707475404255092
8192.0,-0.0024491220247000456
end
