version,3.0
numOfCh,1
type,point
parent_name,34a6d_1dot0-0dot01
ch_type,1_1
kcount,1
numberNandB,1
brightnessNandB,1
carpet pos,0
pc,0
Time (ms),CH1 Auto-Correlation
1.0,0.04383343830704689
2.0,0.04057415947318077
3.0,0.03772987797856331
4.0,0.03528200089931488
5.0,0.03317273035645485
6.0,0.03137343376874924
7.0,0.02975931577384472
8.0,0.02835637517273426
9.0,0.027124393731355667
10.0,0.025991030037403107
11.0,0.024844590574502945
12.0,0.023713162168860435
13.0,0.02259451150894165
14.0,0.02159305289387703
15.0,0.020628079771995544
16.0,0.01978030614554882
18.0,0.018418092280626297
20.0,0.017204884439706802
22.0,0.01606784760951996
24.0,0.015058757737278938
26.0,0.01412783283740282
28.0,0.01343949418514967
30.0,0.012959831394255161
32.0,0.012630408629775047
36.0,0.01168801262974739
40.0,0.011260655708611012
44.0,0.010854684747755527
48.0,0.010196610353887081
52.0,0.009295443072915077
56.0,0.008508935570716858
60.0,0.007949039340019226
64.0,0.007421246264129877
72.0,0.006314899772405624
80.0,0.00521254725754261
88.0,0.00325466669164598
96.0,0.0016610950697213411
104.0,0.0005557574331760406
112.0,0.00031154273892752826
120.0,0.0008025734568946064
128.0,0.0011154195526614785
144.0,0.0004539798537734896
160.0,-4.620976687874645e-05
176.0,-0.00044734374387189746
192.0,-0.0004074012103956193
208.0,0.0003832766378764063
224.0,0.0013227887684479356
240.0,0.0016540975775569677
256.0,0.0017004108522087336
288.0,0.0024731445591896772
320.0,0.002408439526334405
352.0,0.0019164675613865256
384.0,0.001964207971468568
416.0,0.0022801656741648912
448.0,0.0016949851997196674
480.0,0.0015900377184152603
512.0,0.000543884641956538
576.0,0.0001753513643052429
640.0,0.0018646802054718137
704.0,0.0014303479110822082
768.0,0.0001628722675377503
832.0,0.001093521947041154
896.0,0.0018510360969230533
960.0,0.001067674602381885
1024.0,0.0009522062609903514
1152.0,0.002652568044140935
1280.0,0.0005902718985453248
1408.0,0.002471096580848098
1536.0,0.004428149200975895
1664.0,0.0011711869155988097
1792.0,0.0010507820406928658
1920.0,0.0007721636211499572
2048.0,0.0007676083478145301
2304.0,0.00038661513826809824
2560.0,0.0014689115341752768
2816.0,0.0008242139592766762
3072.0,-0.0003077656729146838
3328.0,0.0008857292123138905
3584.0,0.0013651956105604768
3840.0,0.0006829767371527851
4096.0,0.0017258967272937298
4608.0,8.627500210423023e-05
5120.0,0.0008198586292564869
5632.0,0.00032688898500055075
6144.0,-0.0005777766346000135
6656.0,-0.00017533988284412771
7168.0,-0.0014237196883186698
7680.0,-0.0007668600301258266
8192.0,-0.0006889846990816295
end
