version,3.0
numOfCh,1
type,point
parent_name,34a6d_1dot0-0dot01
ch_type,1_1
kcount,1
numberNandB,1
brightnessNandB,1
carpet pos,0
pc,0
Time (ms),CH1 Auto-Correlation
1.0,0.042408932000398636
2.0,0.03903644159436226
3.0,0.03619750961661339
4.0,0.03374990075826645
5.0,0.031692638993263245
6.0,0.029801184311509132
7.0,0.027968693524599075
8.0,0.02630833350121975
9.0,0.024818725883960724
10.0,0.023581454530358315
11.0,0.022562893107533455
12.0,0.021578624844551086
13.0,0.02068139985203743
14.0,0.019783655181527138
15.0,0.018950432538986206
16.0,0.018219102174043655
18.0,0.01695743389427662
20.0,0.015721743926405907
22.0,0.014653586782515049
24.0,0.013553041964769363
26.0,0.012492845766246319
28.0,0.01138261053711176
30.0,0.010515592060983181
32.0,0.009602314792573452
36.0,0.008868126198649406
40.0,0.00835347454994917
44.0,0.007469149772077799
48.0,0.006508151534944773
52.0,0.005728445947170258
56.0,0.0054357461631298065
60.0,0.00482300715520978
64.0,0.004269460681825876
72.0,0.0043672602623701096
80.0,0.004812315106391907
88.0,0.0048200334422290325
96.0,0.004729518201202154
104.0,0.004064147360622883
112.0,0.0033744662068784237
120.0,0.00301454053260386
128.0,0.0022967946715652943
144.0,0.0014244343619793653
160.0,0.0013522625667974353
176.0,0.0014509090688079596
192.0,0.001618142006918788
208.0,0.0021037417463958263
224.0,0.0011230582604184747
240.0,0.0007064398960210383
256.0,0.0007621134864166379
288.0,0.0009004366002045572
320.0,-0.00023008688003756106
352.0,-0.000600665807723999
384.0,-0.0016999259823933244
416.0,-0.0007872004061937332
448.0,0.000496665365062654
480.0,0.0010456204181537032
512.0,0.00026930923922918737
576.0,0.0005079566035419703
640.0,0.0004715214599855244
704.0,0.00045743086957372725
768.0,0.0020388029515743256
832.0,0.0001585442660143599
896.0,-0.0016553784953430295
960.0,-0.002328141825273633
1024.0,-0.001535654067993164
1152.0,0.001357408007606864
1280.0,0.002054583514109254
1408.0,0.0005412034224718809
1536.0,0.00025063182692974806
1664.0,0.0005266119842417538
1792.0,0.0009890396613627672
1920.0,0.0013705308083444834
2048.0,-6.13201191299595e-05
2304.0,-0.0007923591765575111
2560.0,-0.002225437667220831
2816.0,-0.00029907599673606455
3072.0,-0.00014043605187907815
3328.0,0.0013714114902541041
3584.0,0.0025346605107188225
3840.0,-0.0005147216143086553
4096.0,-0.0006673528696410358
4608.0,-0.000350736896507442
5120.0,0.00030646182131022215
5632.0,-7.75397929828614e-05
6144.0,-0.00017585806199349463
6656.0,0.00034401402808725834
7168.0,0.000321932282531634
7680.0,0.00024415331427007914
8192.0,-0.0018537413561716676
end
