version,3.0
numOfCh,1
type,point
parent_name,34a6d_1dot0-0dot01
ch_type,1_1
kcount,1
numberNandB,1
brightnessNandB,1
carpet pos,0
pc,0
Time (ms),CH1 Auto-Correlation
1.0,0.2417609691619873
2.0,0.2386014312505722
3.0,0.23567897081375122
4.0,0.23292140662670135
5.0,0.230194091796875
6.0,0.22761580348014832
7.0,0.22518569231033325
8.0,0.2228342741727829
9.0,0.22055703401565552
10.0,0.21851933002471924
11.0,0.21656768023967743
12.0,0.21473471820354462
13.0,0.2129519283771515
14.0,0.2112109661102295
15.0,0.2094772756099701
16.0,0.20778006315231323
18.0,0.20440883934497833
20.0,0.2014683485031128
22.0,0.19858643412590027
24.0,0.19611932337284088
26.0,0.19351860880851746
28.0,0.19095024466514587
30.0,0.1883811503648758
32.0,0.18612542748451233
36.0,0.18210537731647491
40.0,0.1780422031879425
44.0,0.1735713928937912
48.0,0.1690116822719574
52.0,0.165369912981987
56.0,0.16260221600532532
60.0,0.15982206165790558
64.0,0.15666623413562775
72.0,0.1495501697063446
80.0,0.14353108406066895
88.0,0.13776107132434845
96.0,0.13227613270282745
104.0,0.1271151900291443
112.0,0.12183844298124313
120.0,0.117812879383564
128.0,0.1148330345749855
144.0,0.11083944886922836
160.0,0.10919974744319916
176.0,0.10796527564525604
192.0,0.10692354291677475
208.0,0.10668516904115677
224.0,0.10611329972743988
240.0,0.10527831315994263
256.0,0.10429970920085907
288.0,0.10793602466583252
320.0,0.10840914398431778
352.0,0.11013539880514145
384.0,0.10682174563407898
416.0,0.10642571747303009
448.0,0.10503751039505005
480.0,0.10097269713878632
512.0,0.09596331417560577
576.0,0.09282241761684418
640.0,0.09728752076625824
704.0,0.09389999508857727
768.0,0.09045306593179703
832.0,0.08087027072906494
896.0,0.07877597212791443
960.0,0.07259733974933624
1024.0,0.05824340879917145
1152.0,0.05760476738214493
1280.0,0.05125671997666359
1408.0,0.040239498019218445
1536.0,0.0252021923661232
1664.0,0.022765446454286575
1792.0,0.00459650345146656
1920.0,0.006474707741290331
2048.0,0.019510865211486816
2304.0,-0.02333657443523407
2560.0,-0.036271993070840836
2816.0,-0.059591975063085556
3072.0,-0.0732063353061676
3328.0,-0.08319675922393799
3584.0,-0.09580063074827194
3840.0,-0.10963986814022064
4096.0,-0.11506406962871552
4608.0,-0.11852356046438217
5120.0,-0.09529672563076019
5632.0,-0.049124497920274734
6144.0,-0.013533107005059719
6656.0,0.03919060528278351
7168.0,0.13240565359592438
7680.0,0.2212849259376526
8192.0,0.12096021324396133
end
