version,3.0
numOfCh,1
type,point
parent_name,ff67b_10dot0-0dot01
ch_type,1_1
kcount,1
numberNandB,1
brightnessNandB,1
carpet pos,0
pc,0
Time (ms),CH1 Auto-Correlation
1.0,0.0536891408264637
2.0,0.04555711895227432
3.0,0.040349699556827545
4.0,0.03600116819143295
5.0,0.03273407369852066
6.0,0.029685888439416885
7.0,0.026354771107435226
8.0,0.02406437322497368
9.0,0.02243182435631752
10.0,0.020800134167075157
11.0,0.019156111404299736
12.0,0.016913341358304024
13.0,0.015249227173626423
14.0,0.01308164931833744
15.0,0.011259573511779308
16.0,0.010096878744661808
18.0,0.006961124949157238
20.0,0.005318053998053074
22.0,0.00472209881991148
24.0,0.0042809005826711655
26.0,0.004237874876707792
28.0,0.004087331239134073
30.0,0.0037166632246226072
32.0,0.0037658323999494314
36.0,0.003583007026463747
40.0,0.003550516674295068
44.0,0.003286706516519189
48.0,0.0030154429841786623
52.0,0.0022815975826233625
56.0,0.002456963062286377
60.0,0.0034430031664669514
64.0,0.002978788921609521
72.0,0.0024673910811543465
80.0,0.0027200402691960335
88.0,0.002087909262627363
96.0,-1.2763293852913193e-05
104.0,0.0004180839750915766
112.0,0.00105249451007694
120.0,0.0023455247282981873
128.0,0.0029386982787400484
144.0,0.001984428847208619
160.0,0.0006211643340066075
176.0,0.0005362674128264189
192.0,6.53011302347295e-05
208.0,0.0005560758290812373
224.0,0.0005886424914933741
240.0,-0.00033915636595338583
256.0,-0.00010830812971107662
288.0,0.0005953115760348737
320.0,-0.00015740803792141378
352.0,0.0008361904183402658
384.0,0.0011395581532269716
416.0,0.0009218666236847639
448.0,-0.00038574490463361144
480.0,-0.00019214258645661175
512.0,-0.0011201865272596478
576.0,-0.000325447617797181
640.0,-0.0010378578444942832
704.0,-0.00034876479185186327
768.0,-0.0003762562992051244
832.0,-0.0002035601355601102
896.0,0.0002577776904217899
960.0,0.0010980551596730947
1024.0,0.0013619818491861224
1152.0,0.00011564765009097755
1280.0,0.00018703311798162758
1408.0,4.694736344390549e-05
1536.0,-0.00017011379532050341
1664.0,0.0008378697675652802
1792.0,-0.0002247719094157219
1920.0,-0.0010537358466535807
2048.0,-0.0014923809794709086
2304.0,-0.0006350486073642969
2560.0,-0.0002954097872134298
2816.0,-3.1644001865061e-05
3072.0,6.419447890948504e-05
3328.0,-2.6672669264371507e-05
3584.0,-0.00015802709094714373
3840.0,0.0008513418724760413
4096.0,0.0003867838822770864
4608.0,-0.0003892960667144507
5120.0,5.980256537441164e-05
5632.0,-0.0006988847744651139
6144.0,-0.0006168392719700933
6656.0,0.0006714088376611471
7168.0,3.462951781330048e-06
end
