version,3.0
numOfCh,1
type,point
parent_name,ff67b_10dot0-0dot01
ch_type,1_1
kcount,1
numberNandB,1
brightnessNandB,1
carpet pos,0
pc,0
Time (ms),CH1 Auto-Correlation
1.0,0.08260573446750641
2.0,0.07513890415430069
3.0,0.06939072161912918
4.0,0.06586896628141403
5.0,0.061941348016262054
6.0,0.058244459331035614
7.0,0.054867785423994064
8.0,0.05197939649224281
9.0,0.04729963839054108
10.0,0.04483698680996895
11.0,0.04131699725985527
12.0,0.03916197270154953
13.0,0.03638746589422226
14.0,0.035639986395835876
15.0,0.03290849179029465
16.0,0.03190912306308746
18.0,0.024461545050144196
20.0,0.01843130961060524
22.0,0.012541416101157665
24.0,0.005309369880706072
26.0,0.0024330592714250088
28.0,0.0020295027643442154
30.0,0.0012436005054041743
32.0,-0.0009779557585716248
36.0,-0.001146521419286728
40.0,-0.002432001056149602
44.0,-0.0026729085948318243
48.0,-0.001925479038618505
52.0,-0.0009447635966353118
56.0,-0.0012774566421285272
60.0,-0.0026944216806441545
64.0,-0.0021406218875199556
72.0,-0.001232917420566082
80.0,-0.0023045609705150127
88.0,-0.0010886802338063717
96.0,-0.0025736233219504356
104.0,-0.00010294521052855998
112.0,0.00134405551943928
120.0,-0.0014850979205220938
128.0,-0.0026469333097338676
144.0,-0.0030736166518181562
160.0,-0.0008784493547864258
176.0,0.0005527025205083191
192.0,0.004636501427739859
208.0,0.0083356574177742
224.0,0.0033317289780825377
240.0,0.006338129751384258
256.0,0.0032555731013417244
288.0,0.002360815182328224
320.0,-0.0007566596614196897
352.0,-0.0011892731999978423
384.0,-0.004757423419505358
416.0,0.0006067033391445875
448.0,0.0013745169853791595
480.0,-0.0009724707924760878
512.0,-0.0038411940913647413
576.0,-0.002602342749014497
640.0,-0.0021257426124066114
704.0,0.004509905818849802
768.0,0.004576445557177067
832.0,0.0012950359378010035
896.0,0.0020712176337838173
960.0,0.003055914770811796
1024.0,-0.0008435351774096489
end
