version,3.0
numOfCh,1
type,point
parent_name,484af_0dot069-0dot01
ch_type,1_1
kcount,1
numberNandB,1
brightnessNandB,1
carpet pos,0
pc,0
Time (ms),CH1 Auto-Correlation
1.0,0.028112312778830528
2.0,0.027897391468286514
3.0,0.02767343446612358
4.0,0.027453627437353134
5.0,0.027231601998209953
6.0,0.02700904756784439
7.0,0.026783522218465805
8.0,0.026562334969639778
9.0,0.02634843811392784
10.0,0.02613692916929722
11.0,0.02592570148408413
12.0,0.0257217176258564
13.0,0.025518719106912613
14.0,0.025315552949905396
15.0,0.025115545839071274
16.0,0.02491827681660652
18.0,0.024532072246074677
20.0,0.024165986105799675
22.0,0.02381019853055477
24.0,0.023470571264624596
26.0,0.023145366460084915
28.0,0.022822922095656395
30.0,0.022506235167384148
32.0,0.02219223603606224
36.0,0.021602697670459747
40.0,0.0210492592304945
44.0,0.02050243504345417
48.0,0.01996527798473835
52.0,0.01945408433675766
56.0,0.01893443800508976
60.0,0.018401041626930237
64.0,0.017883101478219032
72.0,0.01692291535437107
80.0,0.016105933114886284
88.0,0.015409003011882305
96.0,0.014774751849472523
104.0,0.014130799099802971
112.0,0.013458013534545898
120.0,0.012899034656584263
128.0,0.012423564679920673
144.0,0.011609908193349838
160.0,0.01105761993676424
176.0,0.010624710470438004
192.0,0.010061347857117653
208.0,0.009385463781654835
224.0,0.008529942482709885
240.0,0.007609090302139521
256.0,0.006552073173224926
288.0,0.005067541729658842
320.0,0.003977708052843809
352.0,0.0032110544852912426
384.0,0.003053162479773164
416.0,0.0028960814233869314
448.0,0.002567300572991371
480.0,0.002058501588180661
512.0,0.0016717755934223533
576.0,0.0019892354030162096
640.0,0.0019389356020838022
704.0,0.0007067060796543956
768.0,0.0014693166594952345
832.0,0.0014458369696512818
896.0,0.0007655546069145203
960.0,0.0004045914101880044
1024.0,0.0002517522079870105
1152.0,-0.0021537174470722675
1280.0,-0.003319601761177182
1408.0,-0.00355303636752069
1536.0,-0.0038265425246208906
1664.0,-0.004023042507469654
1792.0,-0.0037084848154336214
1920.0,-0.003585239639505744
2048.0,-0.0018558319425210357
2304.0,-0.003416032763198018
2560.0,-0.003936348017305136
2816.0,-0.003342907875776291
3072.0,-0.004916391335427761
3328.0,-0.00652256328612566
3584.0,-0.004666753578931093
3840.0,-0.002539303619414568
4096.0,0.0008474137866869569
4608.0,0.005208604037761688
5120.0,0.005885688122361898
5632.0,0.005341716110706329
6144.0,0.0015341911930590868
6656.0,-0.0005954413791187108
7168.0,-0.00574053730815649
7680.0,-0.0072555928491055965
8192.0,-0.003308611223474145
end
