version,3.0
numOfCh,1
type,point
parent_name,484af_0dot069-0dot01
ch_type,1_1
kcount,1
numberNandB,1
brightnessNandB,1
carpet pos,0
pc,0
Time (ms),CH1 Auto-Correlation
1.0,0.03303968161344528
2.0,0.03282531723380089
3.0,0.032616253942251205
4.0,0.03240777179598808
5.0,0.03219902515411377
6.0,0.03199552744626999
7.0,0.03179323300719261
8.0,0.031589873135089874
9.0,0.03138279169797897
10.0,0.031180717051029205
11.0,0.030980003997683525
12.0,0.030783120542764664
13.0,0.030587520450353622
14.0,0.030386826023459435
15.0,0.030184529721736908
16.0,0.029983146116137505
18.0,0.029584182426333427
20.0,0.02920442447066307
22.0,0.028837110847234726
24.0,0.028462151065468788
26.0,0.028087759390473366
28.0,0.027725445106625557
30.0,0.02738153003156185
32.0,0.02703119069337845
36.0,0.026325853541493416
40.0,0.025628328323364258
44.0,0.024976519867777824
48.0,0.02436264045536518
52.0,0.023777395486831665
56.0,0.02321137860417366
60.0,0.02264171652495861
64.0,0.02210208587348461
72.0,0.021136386319994926
80.0,0.020304450765252113
88.0,0.019598504528403282
96.0,0.018901141360402107
104.0,0.01815376617014408
112.0,0.017526134848594666
120.0,0.01692422665655613
128.0,0.016392195597290993
144.0,0.01553735975176096
160.0,0.014846320264041424
176.0,0.014219271019101143
192.0,0.013592186383903027
208.0,0.013011421076953411
224.0,0.012204634957015514
240.0,0.01143021509051323
256.0,0.0110234459862113
288.0,0.010059932246804237
320.0,0.008835344575345516
352.0,0.007955041714012623
384.0,0.007846059277653694
416.0,0.007980568334460258
448.0,0.007192951161414385
480.0,0.006608656141906977
512.0,0.006063423119485378
576.0,0.004709909204393625
640.0,0.00420683529227972
704.0,0.004515929613262415
768.0,0.004298501648008823
832.0,0.004450194071978331
896.0,0.004368331748992205
960.0,0.004362037405371666
1024.0,0.0033799526281654835
1152.0,0.0027158488519489765
1280.0,0.0036030220799148083
1408.0,0.00309742521494627
1536.0,0.0020493087358772755
1664.0,0.002914014970883727
1792.0,0.005521020386368036
1920.0,0.005791087169200182
2048.0,0.004687235224992037
2304.0,-0.0003963391936849803
2560.0,0.0015540439635515213
2816.0,0.0007927842088975012
3072.0,0.001733703538775444
3328.0,0.0010212201159447432
3584.0,-0.003125856164842844
3840.0,-0.005919548682868481
4096.0,-0.009218432940542698
4608.0,-0.006476790644228458
5120.0,-0.0014349326957017183
5632.0,-0.00042472794302739203
6144.0,-0.0013896898599341512
6656.0,-0.0017996244132518768
7168.0,-0.004513573832809925
7680.0,-0.004333184100687504
8192.0,0.004723722580820322
end
