version,3.0
numOfCh,1
type,point
parent_name,484af_0dot069-0dot01
ch_type,1_1
kcount,1
numberNandB,1
brightnessNandB,1
carpet pos,0
pc,0
Time (ms),CH1 Auto-Correlation
1.0,0.06791933625936508
2.0,0.06695202738046646
3.0,0.06601041555404663
4.0,0.06511080265045166
5.0,0.06423501670360565
6.0,0.06342421472072601
7.0,0.06265374273061752
8.0,0.062003910541534424
9.0,0.06139665096998215
10.0,0.06080895662307739
11.0,0.060233619064092636
12.0,0.059723347425460815
13.0,0.05923294648528099
14.0,0.05872142314910889
15.0,0.05816223844885826
16.0,0.057599492371082306
18.0,0.05587434023618698
20.0,0.054711729288101196
22.0,0.05351467803120613
24.0,0.0525638721883297
26.0,0.05164090171456337
28.0,0.05067571997642517
30.0,0.050007812678813934
32.0,0.049250777810811996
36.0,0.047465384006500244
40.0,0.045263539999723434
44.0,0.042996589094400406
48.0,0.04099627584218979
52.0,0.03874339908361435
56.0,0.03594044968485832
60.0,0.03326818719506264
64.0,0.03251824155449867
72.0,0.031240930780768394
80.0,0.030349189415574074
88.0,0.029001610353589058
96.0,0.02722986787557602
104.0,0.025699052959680557
112.0,0.024330971762537956
120.0,0.023134801536798477
128.0,0.021834509447216988
144.0,0.01897779293358326
160.0,0.01696952059864998
176.0,0.01563882641494274
192.0,0.013977640308439732
208.0,0.012437146157026291
224.0,0.011977162212133408
240.0,0.01181973796337843
256.0,0.012142571620643139
288.0,0.012509041465818882
320.0,0.011452988721430302
352.0,0.010327555239200592
384.0,0.00971909612417221
416.0,0.010041357949376106
448.0,0.009219873696565628
480.0,0.007682730909436941
512.0,0.006175586022436619
576.0,0.005439643748104572
640.0,0.004788953345268965
704.0,0.006860281806439161
768.0,0.007865555584430695
832.0,0.0018897620029747486
896.0,-0.002442218130454421
960.0,-0.008517751470208168
1024.0,-0.013721616938710213
1152.0,-0.017386596649885178
1280.0,-0.016064602881669998
1408.0,-0.016465557739138603
1536.0,-0.010966586880385876
1664.0,-0.0194537453353405
1792.0,-0.017831847071647644
1920.0,-0.023108093068003654
2048.0,-0.013112257234752178
end
