version,3.0
numOfCh,1
type,point
parent_name,484af_0dot069-0dot01
ch_type,1_1
kcount,1
numberNandB,1
brightnessNandB,1
carpet pos,0
pc,0
Time (ms),CH1 Auto-Correlation
1.0,0.07137670367956161
2.0,0.07043413817882538
3.0,0.06950484961271286
4.0,0.06861680001020432
5.0,0.06778338551521301
6.0,0.06693369895219803
7.0,0.06606794893741608
8.0,0.06519118696451187
9.0,0.06435845047235489
10.0,0.06357666850090027
11.0,0.06276082247495651
12.0,0.06195574998855591
13.0,0.06109821796417236
14.0,0.06028679013252258
15.0,0.059433743357658386
16.0,0.05857166647911072
18.0,0.056941818445920944
20.0,0.055490944534540176
22.0,0.0539558082818985
24.0,0.05246651917695999
26.0,0.05109938606619835
28.0,0.049625977873802185
30.0,0.04820990934967995
32.0,0.04679425433278084
36.0,0.04413318261504173
40.0,0.04139307141304016
44.0,0.03878429904580116
48.0,0.036153413355350494
52.0,0.0335325188934803
56.0,0.03076225146651268
60.0,0.02811453863978386
64.0,0.02532031387090683
72.0,0.022735506296157837
80.0,0.022215627133846283
88.0,0.021586626768112183
96.0,0.020791446790099144
104.0,0.020087778568267822
112.0,0.01965966261923313
120.0,0.01917281001806259
128.0,0.018949514254927635
144.0,0.017873670905828476
160.0,0.01659415103495121
176.0,0.014215744100511074
192.0,0.011171809397637844
208.0,0.008277080953121185
224.0,0.0073726363480091095
240.0,0.007335060276091099
256.0,0.007459379266947508
288.0,0.007381409406661987
320.0,0.007435884326696396
352.0,0.006557562854140997
384.0,0.005338574294000864
416.0,0.005765638314187527
448.0,0.0059679364785552025
480.0,0.004923901055008173
512.0,0.004039112478494644
576.0,0.0037501640617847443
640.0,2.032095471804496e-05
704.0,-0.0008985486347228289
768.0,-0.004067113623023033
832.0,-0.005492220167070627
896.0,-0.005681782960891724
960.0,-0.004097171127796173
1024.0,-0.003773143282160163
1152.0,-0.0055824085138738155
1280.0,-0.007901436649262905
1408.0,-0.008236818946897984
1536.0,-0.008623706176877022
1664.0,-0.0083549115806818
1792.0,-0.007541690021753311
1920.0,-0.008412628434598446
2048.0,-0.006095534656196833
2304.0,5.493009666679427e-05
2560.0,0.0001787211949704215
2816.0,0.004677991848438978
3072.0,0.00249927188269794
3328.0,0.009006202220916748
3584.0,0.0056988149881362915
3840.0,0.005488953553140163
4096.0,-0.004417204763740301
4608.0,-0.002454376081004739
5120.0,-0.0014654988190159202
5632.0,-0.004701943136751652
6144.0,-0.0017073032213374972
6656.0,0.005461811553686857
7168.0,0.010224566794931889
7680.0,0.00438727205619216
8192.0,-0.0032887079287320375
end
