version,3.0
numOfCh,1
type,point
parent_name,484af_0dot069-0dot01
ch_type,1_1
kcount,1
numberNandB,1
brightnessNandB,1
carpet pos,0
pc,0
Time (ms),CH1 Auto-Correlation
1.0,0.08681359887123108
2.0,0.08587169647216797
3.0,0.08496895432472229
4.0,0.08410821855068207
5.0,0.08330168575048447
6.0,0.08250021189451218
7.0,0.08175553381443024
8.0,0.08105649054050446
9.0,0.08032727241516113
10.0,0.07967189699411392
11.0,0.07906457036733627
12.0,0.07841695100069046
13.0,0.07767284661531448
14.0,0.07688120752573013
15.0,0.07608705013990402
16.0,0.07528036087751389
18.0,0.07347090542316437
20.0,0.07212444394826889
22.0,0.07067728042602539
24.0,0.06914862990379333
26.0,0.06741036474704742
28.0,0.06568622589111328
30.0,0.06389804184436798
32.0,0.0623120442032814
36.0,0.0592484176158905
40.0,0.05611182749271393
44.0,0.05307191610336304
48.0,0.05007243528962135
52.0,0.04723690077662468
56.0,0.044646624475717545
60.0,0.04184374958276749
64.0,0.03929315134882927
72.0,0.033778946846723557
80.0,0.028824565932154655
88.0,0.024302184581756592
96.0,0.020482078194618225
104.0,0.018016990274190903
112.0,0.016423404216766357
120.0,0.015818335115909576
128.0,0.016314752399921417
144.0,0.01729309931397438
160.0,0.016589809209108353
176.0,0.014658406376838684
192.0,0.012231836095452309
208.0,0.00952156726270914
224.0,0.005887825042009354
240.0,0.0011294815922155976
256.0,-0.002630217932164669
288.0,-0.006623691413551569
320.0,-0.007986613549292088
352.0,-0.008235281333327293
384.0,-0.009901669807732105
416.0,-0.011978127993643284
448.0,-0.01527313981205225
480.0,-0.018349602818489075
512.0,-0.0197945237159729
576.0,-0.01218556147068739
640.0,-0.007720570545643568
704.0,-0.0013325546169653535
768.0,0.002416402567178011
832.0,0.008915835060179234
896.0,0.00851473119109869
960.0,0.009178134612739086
1024.0,0.010362552478909492
1152.0,0.010502871125936508
1280.0,-0.00891968049108982
1408.0,-0.04052414745092392
1536.0,-0.056263379752635956
1664.0,-0.04226518049836159
1792.0,-0.04273590072989464
1920.0,-0.0023268521763384342
2048.0,0.050934284925460815
end
