version,3.0
numOfCh,1
type,point
parent_name,484af_0dot069-0dot01
ch_type,1_1
kcount,1
numberNandB,1
brightnessNandB,1
carpet pos,0
pc,0
Time (ms),CH1 Auto-Correlation
1.0,0.030620338395237923
2.0,0.030439922586083412
3.0,0.030260788276791573
4.0,0.030087007209658623
5.0,0.029915446415543556
6.0,0.029747284948825836
7.0,0.02958153933286667
8.0,0.029417647048830986
9.0,0.02925535850226879
10.0,0.02909916080534458
11.0,0.028944652527570724
12.0,0.028794126585125923
13.0,0.028649652376770973
14.0,0.02850610390305519
15.0,0.028367334976792336
16.0,0.028232546523213387
18.0,0.027968663722276688
20.0,0.027717867866158485
22.0,0.027461806312203407
24.0,0.027212603017687798
26.0,0.02696377970278263
28.0,0.026701534166932106
30.0,0.026439450681209564
32.0,0.026190094649791718
36.0,0.025695832446217537
40.0,0.02522018551826477
44.0,0.024778271093964577
48.0,0.024358456954360008
52.0,0.023948203772306442
56.0,0.02352864108979702
60.0,0.023126954212784767
64.0,0.022736145183444023
72.0,0.02201070263981819
80.0,0.021337436512112617
88.0,0.0207145307213068
96.0,0.0201247725635767
104.0,0.01958557404577732
112.0,0.019089393317699432
120.0,0.01860020123422146
128.0,0.01811133697628975
144.0,0.017284389585256577
160.0,0.016654174774885178
176.0,0.016081765294075012
192.0,0.015549534000456333
208.0,0.014953282661736012
224.0,0.01426275260746479
240.0,0.013343549333512783
256.0,0.012445705011487007
288.0,0.010778210125863552
320.0,0.009207759983837605
352.0,0.007849197834730148
384.0,0.006831132806837559
416.0,0.006346437148749828
448.0,0.00534475315362215
480.0,0.0045217666774988174
512.0,0.0042990585789084435
576.0,0.004669921472668648
640.0,0.004837069660425186
704.0,0.005163661669939756
768.0,0.006183642894029617
832.0,0.005316194146871567
896.0,0.003953908570110798
960.0,0.0029513114131987095
1024.0,0.001858711475506425
1152.0,-1.3127726560924202e-05
1280.0,-0.002314362907782197
1408.0,-0.0021618634928017855
1536.0,-0.0007765875197947025
1664.0,-0.00033492734655737877
1792.0,0.0012685514520853758
1920.0,0.0007160229724831879
2048.0,-0.001207180437631905
2304.0,-0.0012992691481485963
2560.0,-0.0002027443260885775
2816.0,-0.000925844709854573
3072.0,-0.0008467246079817414
3328.0,-0.001061326009221375
3584.0,-0.00481698103249073
3840.0,-0.00549562182277441
4096.0,-0.0031186493579298258
4608.0,-0.0040855552069842815
5120.0,-0.0002976966497953981
5632.0,-0.002234957180917263
6144.0,-0.0020169566851109266
6656.0,0.007687553763389587
7168.0,0.002407497726380825
7680.0,0.0007430019904859364
8192.0,-0.004987680818885565
end
