version,3.0
numOfCh,1
type,point
parent_name,484af_0dot069-0dot01
ch_type,1_1
kcount,1
numberNandB,1
brightnessNandB,1
carpet pos,0
pc,0
Time (ms),CH1 Auto-Correlation
1.0,0.01833779737353325
2.0,0.01811286434531212
3.0,0.017880264669656754
4.0,0.01765729859471321
5.0,0.017436599358916283
6.0,0.01722053252160549
7.0,0.017009571194648743
8.0,0.016816426068544388
9.0,0.016617529094219208
10.0,0.01643112674355507
11.0,0.016246944665908813
12.0,0.01607084460556507
13.0,0.015900565311312675
14.0,0.01573234796524048
15.0,0.015576289035379887
16.0,0.01541916187852621
18.0,0.015115680173039436
20.0,0.014799868687987328
22.0,0.01448424905538559
24.0,0.014158222824335098
26.0,0.013835035264492035
28.0,0.013529932126402855
30.0,0.013238688930869102
32.0,0.012935037724673748
36.0,0.012361637316644192
40.0,0.011862867511808872
44.0,0.011401246301829815
48.0,0.010976716876029968
52.0,0.010577269829809666
56.0,0.010257817804813385
60.0,0.010019110515713692
64.0,0.00975222047418356
72.0,0.008999647572636604
80.0,0.008184261620044708
88.0,0.007420893758535385
96.0,0.006861768662929535
104.0,0.0062768729403615
112.0,0.0056566642597317696
120.0,0.005070383194833994
128.0,0.004515170585364103
144.0,0.0037081679329276085
160.0,0.0031363300513476133
176.0,0.0028996386099606752
192.0,0.002731483895331621
208.0,0.0026664624456316233
224.0,0.0026102587580680847
240.0,0.0025580793153494596
256.0,0.002261610236018896
288.0,0.0012284844415262341
320.0,0.0003018132410943508
352.0,-0.0005113681545481086
384.0,-7.524918328272179e-05
416.0,0.00014905876014381647
448.0,0.00024383368145208806
480.0,0.0005748408730141819
512.0,-9.797429811442271e-05
576.0,-0.0025423134211450815
640.0,-0.004028815310448408
704.0,-0.0028342241421341896
768.0,-0.0018851840868592262
832.0,-0.001405684044584632
896.0,-0.0018592962296679616
960.0,-0.002528493758291006
1024.0,-0.003659146837890148
1152.0,-0.002926749410107732
1280.0,-0.0022060396149754524
1408.0,-0.0023642403539270163
1536.0,-0.0023360762279480696
1664.0,0.0009465288021601737
1792.0,-7.808544614817947e-05
1920.0,-7.681443094043061e-05
2048.0,0.0031788484193384647
2304.0,0.003834394970908761
2560.0,-0.000752227904740721
2816.0,-0.003162014065310359
3072.0,-0.0005857555661350489
3328.0,0.0012784725986421108
3584.0,4.1077753849094734e-05
3840.0,-0.0007569732260890305
4096.0,-0.0006886851624585688
end
