version,3.0
numOfCh,1
type,point
parent_name,484af_0dot069-0dot01
ch_type,1_1
kcount,1
numberNandB,1
brightnessNandB,1
carpet pos,0
pc,0
Time (ms),CH1 Auto-Correlation
1.0,0.019226476550102234
2.0,0.01900308206677437
3.0,0.018793318420648575
4.0,0.018582992255687714
5.0,0.018369900062680244
6.0,0.018162140622735023
7.0,0.017958780750632286
8.0,0.017761265859007835
9.0,0.017569327726960182
10.0,0.01737537980079651
11.0,0.017184343189001083
12.0,0.016998112201690674
13.0,0.016819817945361137
14.0,0.01665056310594082
15.0,0.01648019626736641
16.0,0.016306929290294647
18.0,0.015974681824445724
20.0,0.01567106507718563
22.0,0.015380989760160446
24.0,0.015092691406607628
26.0,0.014795679599046707
28.0,0.014501997269690037
30.0,0.014220586977899075
32.0,0.013947783038020134
36.0,0.013450557366013527
40.0,0.013024143874645233
44.0,0.012637225911021233
48.0,0.01224626787006855
52.0,0.011846842244267464
56.0,0.011403192766010761
60.0,0.010958205908536911
64.0,0.010538158938288689
72.0,0.00977677945047617
80.0,0.009163611568510532
88.0,0.008733387105166912
96.0,0.008426301181316376
104.0,0.008035944774746895
112.0,0.007718362845480442
120.0,0.007496370002627373
128.0,0.007226097863167524
144.0,0.006904440000653267
160.0,0.0067518544383347034
176.0,0.006764402147382498
192.0,0.006839665584266186
208.0,0.0070876311510801315
224.0,0.007371628191322088
240.0,0.007495210040360689
256.0,0.007269934751093388
288.0,0.006505685392767191
320.0,0.005693626124411821
352.0,0.005265702959150076
384.0,0.005095497239381075
416.0,0.004568057134747505
448.0,0.0040571060962975025
480.0,0.0035518507938832045
512.0,0.0031334308441728354
576.0,0.0030938340350985527
640.0,0.0037233068142086267
704.0,0.0033215535804629326
768.0,0.0020620301365852356
832.0,0.0013178808148950338
896.0,0.00045363049139268696
960.0,-0.0009292677859775722
1024.0,-0.0012471999507397413
1152.0,-0.002008001785725355
1280.0,-0.001568141975440085
1408.0,-0.0014034713385626674
1536.0,-0.0017708945088088512
1664.0,-0.001583582372404635
1792.0,-0.002899870276451111
1920.0,-0.002300007501617074
2048.0,-0.0011575565440580249
2304.0,-0.000354652147507295
2560.0,-9.71260669757612e-06
2816.0,0.0013519820058718324
3072.0,-0.0015295535558834672
3328.0,-0.004180881194770336
3584.0,-0.005088035017251968
3840.0,-0.006527704186737537
4096.0,-0.005787912290543318
4608.0,-0.0020128153264522552
5120.0,-5.252588744042441e-05
5632.0,0.001962135313078761
6144.0,-9.760501416167244e-05
6656.0,-0.0009495005360804498
7168.0,0.004495271015912294
7680.0,0.006633690092712641
8192.0,-0.003420485882088542
end
