version,3.0
numOfCh,1
type,point
parent_name,484af_0dot069-0dot01
ch_type,1_1
kcount,1
numberNandB,1
brightnessNandB,1
carpet pos,0
pc,0
Time (ms),CH1 Auto-Correlation
1.0,0.02945849858224392
2.0,0.02926841378211975
3.0,0.029076185077428818
4.0,0.028887148946523666
5.0,0.02870132587850094
6.0,0.028520720079541206
7.0,0.0283369068056345
8.0,0.028160972520709038
9.0,0.027989381924271584
10.0,0.027814794331789017
11.0,0.027639584615826607
12.0,0.027466360479593277
13.0,0.02729673497378826
14.0,0.027131838724017143
15.0,0.026964344084262848
16.0,0.026798779144883156
18.0,0.026473289355635643
20.0,0.026159778237342834
22.0,0.02585662342607975
24.0,0.0255550816655159
26.0,0.025260744616389275
28.0,0.024964356794953346
30.0,0.024670463055372238
32.0,0.02438616380095482
36.0,0.023841526359319687
40.0,0.023351306095719337
44.0,0.022855903953313828
48.0,0.02236304245889187
52.0,0.021900735795497894
56.0,0.02145097404718399
60.0,0.02101828157901764
64.0,0.02057713083922863
72.0,0.019641926512122154
80.0,0.018778778612613678
88.0,0.017999380826950073
96.0,0.017225172370672226
104.0,0.016470644623041153
112.0,0.015781046822667122
120.0,0.015137108974158764
128.0,0.014467762783169746
144.0,0.01321998331695795
160.0,0.012008652091026306
176.0,0.010991482064127922
192.0,0.010001610964536667
208.0,0.009164038114249706
224.0,0.0083552785217762
240.0,0.0074660456739366055
256.0,0.006686762440949678
288.0,0.005576961673796177
320.0,0.0045647090300917625
352.0,0.0042635914869606495
384.0,0.004007389303296804
416.0,0.003878137329593301
448.0,0.003754969220608473
480.0,0.0033259792253375053
512.0,0.0023462045937776566
576.0,0.0011996279936283827
640.0,0.0014484848361462355
704.0,0.0010694479569792747
768.0,-2.5860768801067024e-05
832.0,8.65488764247857e-05
896.0,0.0009223877568729222
960.0,0.0010438674362376332
1024.0,0.0015556553844362497
1152.0,-0.0006716615171171725
1280.0,-0.0021893351804465055
1408.0,-0.0024073596578091383
1536.0,-0.0008801310905255377
1664.0,-0.0002694298163987696
1792.0,-0.0002532550133764744
1920.0,0.0015535065904259682
2048.0,0.0038412553258240223
2304.0,0.0001073455496225506
2560.0,-0.003882839111611247
2816.0,-0.0030132289975881577
3072.0,-0.0006284251576289535
3328.0,0.003143800189718604
3584.0,0.0017333412542939186
3840.0,0.0012024675961583853
4096.0,0.00012725534907076508
4608.0,-0.00026805378729477525
5120.0,0.003940145019441843
5632.0,0.0030211620032787323
6144.0,-0.0012727398425340652
6656.0,0.0005249519599601626
7168.0,0.0029615149833261967
7680.0,-0.0031039395835250616
8192.0,-0.006823358591645956
end
