version,3.0
numOfCh,1
type,point
parent_name,484af_0dot069-0dot01
ch_type,1_1
kcount,1
numberNandB,1
brightnessNandB,1
carpet pos,0
pc,0
Time (ms),CH1 Auto-Correlation
1.0,0.030746115371584892
2.0,0.0305161252617836
3.0,0.0302838534116745
4.0,0.030056621879339218
5.0,0.029843492433428764
6.0,0.029633622616529465
7.0,0.0294280257076025
8.0,0.029224451631307602
9.0,0.029024405404925346
10.0,0.028819866478443146
11.0,0.02863028645515442
12.0,0.0284450463950634
13.0,0.02826296165585518
14.0,0.02807217463850975
15.0,0.027884164825081825
16.0,0.027698475867509842
18.0,0.027337273582816124
20.0,0.026982031762599945
22.0,0.026630574837327003
24.0,0.026282954961061478
26.0,0.025940759107470512
28.0,0.025602012872695923
30.0,0.025258591398596764
32.0,0.024926941841840744
36.0,0.024326078593730927
40.0,0.02375900372862816
44.0,0.02319212071597576
48.0,0.022671449929475784
52.0,0.022227708250284195
56.0,0.021818093955516815
60.0,0.021435663104057312
64.0,0.021050266921520233
72.0,0.020373590290546417
80.0,0.019757386296987534
88.0,0.0192160215228796
96.0,0.018739482387900352
104.0,0.018287139013409615
112.0,0.017876215279102325
120.0,0.01749846339225769
128.0,0.017192158848047256
144.0,0.016724107787013054
160.0,0.016167879104614258
176.0,0.015712283551692963
192.0,0.015004565007984638
208.0,0.014447965659201145
224.0,0.013890699483454227
240.0,0.013470911420881748
256.0,0.013188361190259457
288.0,0.012638571672141552
320.0,0.011970143765211105
352.0,0.010549320839345455
384.0,0.00943426601588726
416.0,0.008593524806201458
448.0,0.007851063273847103
480.0,0.007097923196852207
512.0,0.006203938275575638
576.0,0.0047762044705450535
640.0,0.0043724095448851585
704.0,0.003999385051429272
768.0,0.003209388116374612
832.0,0.002941700629889965
896.0,0.003078350331634283
960.0,0.0025578297208994627
1024.0,0.0024420670233666897
1152.0,0.004221085924655199
1280.0,0.003915478475391865
1408.0,0.0036633547861129045
1536.0,0.00251485756598413
1664.0,0.001781861181370914
1792.0,0.001905401237308979
1920.0,0.0018265427788719535
2048.0,0.003475964069366455
2304.0,0.0024898648262023926
2560.0,0.004712418653070927
2816.0,0.0025929745752364397
3072.0,0.0017124112928286195
3328.0,0.00042356993071734905
3584.0,-0.00182669039350003
3840.0,-0.0025460622273385525
4096.0,-0.001948474789969623
4608.0,-0.0037070640828460455
5120.0,-0.007572265341877937
5632.0,-0.006733724847435951
6144.0,-0.004784898366779089
6656.0,-0.0039030550979077816
7168.0,-0.0077856192365288734
7680.0,-0.009687274694442749
8192.0,-0.0030788651201874018
end
