version,3.0
numOfCh,1
type,point
parent_name,484af_0dot069-0dot01
ch_type,1_1
kcount,1
numberNandB,1
brightnessNandB,1
carpet pos,0
pc,0
Time (ms),CH1 Auto-Correlation
1.0,0.02760361135005951
2.0,0.027379177510738373
3.0,0.02716054581105709
4.0,0.026944126933813095
5.0,0.02672523818910122
6.0,0.026511460542678833
7.0,0.026294955983757973
8.0,0.026079555973410606
9.0,0.02586580440402031
10.0,0.02565036155283451
11.0,0.02543908916413784
12.0,0.025232626125216484
13.0,0.02503349259495735
14.0,0.024834435433149338
15.0,0.024640163406729698
16.0,0.024447785690426826
18.0,0.024079926311969757
20.0,0.0237111896276474
22.0,0.023343784734606743
24.0,0.023005759343504906
26.0,0.0226907841861248
28.0,0.02239423431456089
30.0,0.02210160717368126
32.0,0.021805068477988243
36.0,0.021220235154032707
40.0,0.02064201422035694
44.0,0.020098425447940826
48.0,0.01956283487379551
52.0,0.019001098349690437
56.0,0.018442081287503242
60.0,0.017894107848405838
64.0,0.017365654930472374
72.0,0.016354050487279892
80.0,0.015494028106331825
88.0,0.014792146161198616
96.0,0.01427480485290289
104.0,0.01380799151957035
112.0,0.01315875630825758
120.0,0.012513059191405773
128.0,0.01204012893140316
144.0,0.011269818991422653
160.0,0.010685061104595661
176.0,0.010055719874799252
192.0,0.009677141904830933
208.0,0.0094605702906847
224.0,0.00923426914960146
240.0,0.008952771313488483
256.0,0.008622640743851662
288.0,0.007285064551979303
320.0,0.005869254469871521
352.0,0.005208662711083889
384.0,0.005526477936655283
416.0,0.005663448944687843
448.0,0.005518693942576647
480.0,0.004956951830536127
512.0,0.003972839564085007
576.0,0.0021791348699480295
640.0,0.0011548399925231934
704.0,0.001877696719020605
768.0,0.002974104369059205
832.0,0.002815217711031437
896.0,0.001602646429091692
960.0,0.00040664110565558076
1024.0,-0.0005850826273672283
1152.0,6.127876986283809e-05
1280.0,0.0006340951658785343
1408.0,-0.002431505359709263
1536.0,-0.001987528521567583
1664.0,-0.0015512496465817094
1792.0,-0.001062423805706203
1920.0,-0.00204647914506495
2048.0,-0.0001647026656428352
2304.0,0.00011969274783041328
2560.0,0.0006086172652430832
2816.0,-0.0014709006063640118
3072.0,-0.0028926534578204155
3328.0,-0.005466182716190815
3584.0,-0.0065176282078027725
3840.0,-0.0012549214297905564
4096.0,-0.0006996401934884489
4608.0,-0.0019502845825627446
5120.0,-0.00048460578545928
5632.0,-0.002994109643623233
6144.0,-0.0021606336813420057
6656.0,-0.0014368612319231033
7168.0,-0.0016347469063475728
7680.0,-0.0020153201185166836
8192.0,1.8744247427093796e-05
end
