version,3.0
numOfCh,1
type,point
parent_name,484af_0dot069-0dot01
ch_type,1_1
kcount,1
numberNandB,1
brightnessNandB,1
carpet pos,0
pc,0
Time (ms),CH1 Auto-Correlation
1.0,0.03171039745211601
2.0,0.03148350864648819
3.0,0.03125786781311035
4.0,0.03102731518447399
5.0,0.030798807740211487
6.0,0.030576452612876892
7.0,0.03035171702504158
8.0,0.030128205195069313
9.0,0.02990538813173771
10.0,0.029685327783226967
11.0,0.029466701671481133
12.0,0.02925477735698223
13.0,0.029050879180431366
14.0,0.02884962223470211
15.0,0.02865249291062355
16.0,0.02846313640475273
18.0,0.0280411709100008
20.0,0.027674410492181778
22.0,0.02732270024716854
24.0,0.026978887617588043
26.0,0.026647264137864113
28.0,0.026321206241846085
30.0,0.026020044460892677
32.0,0.025729568675160408
36.0,0.025118572637438774
40.0,0.02458343282341957
44.0,0.024008534848690033
48.0,0.023422282189130783
52.0,0.022840872406959534
56.0,0.022309817373752594
60.0,0.02182520180940628
64.0,0.021359510719776154
72.0,0.020401328802108765
80.0,0.01949213072657585
88.0,0.01863338239490986
96.0,0.01788659766316414
104.0,0.01727973110973835
112.0,0.016721611842513084
120.0,0.016197580844163895
128.0,0.015623848885297775
144.0,0.014534023590385914
160.0,0.0134713901206851
176.0,0.012270974926650524
192.0,0.011151505634188652
208.0,0.010023369453847408
224.0,0.009047240950167179
240.0,0.008026054129004478
256.0,0.006878843996673822
288.0,0.004868059419095516
320.0,0.0029757621232420206
352.0,0.0016958463238552213
384.0,0.0005104545853100717
416.0,-0.000662977050524205
448.0,-0.0013636513613164425
480.0,-0.0017583403969183564
512.0,-0.001653550541959703
576.0,-0.0005627767532132566
640.0,0.00035683991154655814
704.0,0.0015814502257853746
768.0,0.0025379883591085672
832.0,0.003039120463654399
896.0,0.0035698364954441786
960.0,0.004159435164183378
1024.0,0.004738429561257362
1152.0,0.002108182292431593
1280.0,0.00039791976450942457
1408.0,-0.0006235882756300271
1536.0,-0.0007748602074570954
1664.0,-0.0006819683476351202
1792.0,-0.002015674952417612
1920.0,-0.002597367623820901
2048.0,-0.002395056188106537
2304.0,-0.002411208814010024
2560.0,-0.001733026118017733
2816.0,0.00040969328256323934
3072.0,0.0011700951727107167
3328.0,-0.003809025278314948
3584.0,-0.006334824021905661
3840.0,-0.001183600747026503
4096.0,0.0022992296144366264
4608.0,0.001744482317008078
5120.0,0.0015691969310864806
5632.0,0.002781817689538002
6144.0,0.001766270026564598
6656.0,-0.003700930392369628
7168.0,-0.002358425408601761
7680.0,-0.0021478470880538225
8192.0,-0.0017116350354626775
end
