version,3.0
numOfCh,1
type,point
parent_name,484af_0dot069-0dot01
ch_type,1_1
kcount,1
numberNandB,1
brightnessNandB,1
carpet pos,0
pc,0
Time (ms),CH1 Auto-Correlation
1.0,0.03071080707013607
2.0,0.030503522604703903
3.0,0.030301179736852646
4.0,0.030100524425506592
5.0,0.029900817200541496
6.0,0.02970745787024498
7.0,0.029517674818634987
8.0,0.02932407520711422
9.0,0.029132934287190437
10.0,0.028947584331035614
11.0,0.028768526390194893
12.0,0.028600219637155533
13.0,0.028434960171580315
14.0,0.02827378548681736
15.0,0.02811720222234726
16.0,0.02796587347984314
18.0,0.02768595889210701
20.0,0.02742333523929119
22.0,0.027168449014425278
24.0,0.026912465691566467
26.0,0.02665392868220806
28.0,0.026389194652438164
30.0,0.026118788868188858
32.0,0.025854501873254776
36.0,0.025336386635899544
40.0,0.024829914793372154
44.0,0.024328574538230896
48.0,0.023836947977542877
52.0,0.023337043821811676
56.0,0.02284589409828186
60.0,0.022349374368786812
64.0,0.02187499776482582
72.0,0.021024443209171295
80.0,0.020200658589601517
88.0,0.0193441491574049
96.0,0.018475638702511787
104.0,0.017689930275082588
112.0,0.016952896490693092
120.0,0.016269715502858162
128.0,0.015603112988173962
144.0,0.014275097288191319
160.0,0.013103270903229713
176.0,0.011976884678006172
192.0,0.011074657551944256
208.0,0.010309368371963501
224.0,0.009798206388950348
240.0,0.009458550252020359
256.0,0.009262511506676674
288.0,0.00887734442949295
320.0,0.008480259217321873
352.0,0.008092177100479603
384.0,0.007781588938087225
416.0,0.007161115296185017
448.0,0.0062223500572144985
480.0,0.005416584201157093
512.0,0.004491135943681002
576.0,0.0018168024253100157
640.0,0.00014519177784677595
704.0,-0.0014079116517677903
768.0,-0.0028001097962260246
832.0,-0.00179762183688581
896.0,-0.000772673636674881
960.0,0.0005147965275682509
1024.0,0.0012681278167292476
1152.0,0.00569838797673583
1280.0,0.007735399529337883
1408.0,0.007092592306435108
1536.0,0.004845334216952324
1664.0,0.004063268657773733
1792.0,0.0021170792169868946
1920.0,-0.0010924788657575846
2048.0,-0.0031072967685759068
2304.0,0.0014361853245645761
2560.0,-0.00010027389362221584
2816.0,-2.286294875375461e-05
3072.0,-0.003936764318495989
3328.0,-0.002589913085103035
3584.0,-0.0018747872672975063
3840.0,-0.0015391712076961994
4096.0,-0.0033046638127416372
4608.0,-0.0017382451333105564
5120.0,-0.005283427890390158
5632.0,-0.008204563520848751
6144.0,-0.00018083828035742044
6656.0,-0.00901035312563181
7168.0,-0.0017416024347767234
7680.0,-0.0005709599936380982
8192.0,-0.007823482155799866
end
