version,3.0
numOfCh,1
type,point
parent_name,484af_0dot069-0dot01
ch_type,1_1
kcount,1
numberNandB,1
brightnessNandB,1
carpet pos,0
pc,0
Time (ms),CH1 Auto-Correlation
1.0,0.02990209497511387
2.0,0.02970036119222641
3.0,0.029500706121325493
4.0,0.02930387109518051
5.0,0.029107514768838882
6.0,0.028913071379065514
7.0,0.02872353047132492
8.0,0.028537077829241753
9.0,0.02835799753665924
10.0,0.028180111199617386
11.0,0.028005676344037056
12.0,0.02783057652413845
13.0,0.027656588703393936
14.0,0.027493201196193695
15.0,0.027334872633218765
16.0,0.02717919461429119
18.0,0.0268624909222126
20.0,0.026558784767985344
22.0,0.026254020631313324
24.0,0.0259466003626585
26.0,0.02564065530896187
28.0,0.025334669277071953
30.0,0.02503681555390358
32.0,0.024738626554608345
36.0,0.024173220619559288
40.0,0.023658549413084984
44.0,0.023175988346338272
48.0,0.022706182673573494
52.0,0.022237876430153847
56.0,0.02179683744907379
60.0,0.02138323150575161
64.0,0.020990708842873573
72.0,0.020242517814040184
80.0,0.019511327147483826
88.0,0.018805846571922302
96.0,0.018060412257909775
104.0,0.017322314903140068
112.0,0.01664893701672554
120.0,0.016067640855908394
128.0,0.015498563647270203
144.0,0.014396226964890957
160.0,0.01340415421873331
176.0,0.012425953522324562
192.0,0.011569218710064888
208.0,0.010913312435150146
224.0,0.010455820709466934
240.0,0.010159588418900967
256.0,0.009786752983927727
288.0,0.008566385135054588
320.0,0.007266538683325052
352.0,0.0063626510091125965
384.0,0.005955350585281849
416.0,0.005833769217133522
448.0,0.0056580970995128155
480.0,0.005443829111754894
512.0,0.00472876476123929
576.0,0.0024878347758203745
640.0,0.000990965636447072
704.0,0.00033934347447939217
768.0,2.0124831280554645e-05
832.0,-0.0007489423151127994
896.0,-0.0018603057833388448
960.0,-0.002520523499697447
1024.0,-0.002375367796048522
1152.0,-0.001146379392594099
1280.0,-0.00014466518769040704
1408.0,-0.00045061035780236125
1536.0,-0.0010076777543872595
1664.0,0.000419117248384282
1792.0,0.0002221952599938959
1920.0,0.0004706714244093746
2048.0,-0.0009520486928522587
2304.0,0.000607348745688796
2560.0,0.004020931199193001
2816.0,0.0038347202353179455
3072.0,0.00207555596716702
3328.0,0.001273052766919136
3584.0,-0.006143334321677685
3840.0,-0.008175112307071686
4096.0,-0.006288608070462942
4608.0,0.0003839217242784798
5120.0,-0.002982514910399914
5632.0,-0.004933268763124943
6144.0,-0.0024460332933813334
6656.0,-0.008482569828629494
7168.0,-0.004428688902407885
7680.0,0.0025045708753168583
8192.0,0.002501151990145445
end
