version,3.0
numOfCh,1
type,point
parent_name,484af_0dot069-0dot01
ch_type,1_1
kcount,1
numberNandB,1
brightnessNandB,1
carpet pos,0
pc,0
Time (ms),CH1 Auto-Correlation
1.0,0.04154201224446297
2.0,0.04131944477558136
3.0,0.0410989411175251
4.0,0.040890779346227646
5.0,0.04068498685956001
6.0,0.040486034005880356
7.0,0.04028329998254776
8.0,0.040083982050418854
9.0,0.039893995970487595
10.0,0.039706166833639145
11.0,0.03951558098196983
12.0,0.03932778909802437
13.0,0.03913955017924309
14.0,0.038949619978666306
15.0,0.038758471608161926
16.0,0.03856833279132843
18.0,0.038160793483257294
20.0,0.03779930993914604
22.0,0.03746167570352554
24.0,0.037162985652685165
26.0,0.03688638657331467
28.0,0.03659956157207489
30.0,0.03631630539894104
32.0,0.036034006625413895
36.0,0.03548276424407959
40.0,0.03494860231876373
44.0,0.03438013792037964
48.0,0.0338454395532608
52.0,0.033344268798828125
56.0,0.032878756523132324
60.0,0.03245243430137634
64.0,0.03205053135752678
72.0,0.031232496723532677
80.0,0.0304481890052557
88.0,0.029668273404240608
96.0,0.02890474908053875
104.0,0.028224559500813484
112.0,0.027590280398726463
120.0,0.02693072520196438
128.0,0.02616201341152191
144.0,0.02493457682430744
160.0,0.02429678849875927
176.0,0.024120653048157692
192.0,0.0237222108989954
208.0,0.023410100489854813
224.0,0.02294526807963848
240.0,0.022810639813542366
256.0,0.022734470665454865
288.0,0.021845467388629913
320.0,0.0209011472761631
352.0,0.020600540563464165
384.0,0.020413829013705254
416.0,0.020305823534727097
448.0,0.01948145590722561
480.0,0.01849159598350525
512.0,0.017432793974876404
576.0,0.01679215207695961
640.0,0.01682460680603981
704.0,0.014638781547546387
768.0,0.012334288097918034
832.0,0.011355704627931118
896.0,0.011007105000317097
960.0,0.010356794111430645
1024.0,0.010685366578400135
1152.0,0.009505857713520527
1280.0,0.010003507137298584
1408.0,0.008265543729066849
1536.0,0.006334603298455477
1664.0,0.0035407119430601597
1792.0,0.00010442054190207273
1920.0,0.0030135526321828365
2048.0,0.003608390223234892
2304.0,0.0020986630115658045
2560.0,-0.0012159614125266671
2816.0,-0.006180684547871351
3072.0,-0.013231025077402592
3328.0,-0.016215696930885315
3584.0,-0.016737086698412895
3840.0,-0.020021099597215652
4096.0,-0.019724441692233086
4608.0,-0.01768285408616066
5120.0,-0.015638776123523712
5632.0,-0.013680233620107174
6144.0,-0.009744968265295029
6656.0,-0.007422549184411764
7168.0,0.00304798292927444
end
