version,3.0
numOfCh,1
type,point
parent_name,484af_0dot069-0dot01
ch_type,1_1
kcount,1
numberNandB,1
brightnessNandB,1
carpet pos,0
pc,0
Time (ms),CH1 Auto-Correlation
1.0,0.03137895092368126
2.0,0.031153114512562752
3.0,0.030933616682887077
4.0,0.030712831765413284
5.0,0.03049248270690441
6.0,0.030276192352175713
7.0,0.030053164809942245
8.0,0.029833536595106125
9.0,0.029621373862028122
10.0,0.029415493831038475
11.0,0.02921350859105587
12.0,0.02901032567024231
13.0,0.028817193582654
14.0,0.028627028688788414
15.0,0.02843538299202919
16.0,0.028245212510228157
18.0,0.027869723737239838
20.0,0.02751254290342331
22.0,0.0271652452647686
24.0,0.02681971900165081
26.0,0.026486875489354134
28.0,0.026178255677223206
30.0,0.025874219834804535
32.0,0.025582294911146164
36.0,0.025052420794963837
40.0,0.02457529306411743
44.0,0.02413116954267025
48.0,0.023688647896051407
52.0,0.02326001226902008
56.0,0.022806284949183464
60.0,0.022346366196870804
64.0,0.02195674553513527
72.0,0.02123594470322132
80.0,0.020526310428977013
88.0,0.01993047073483467
96.0,0.019412877038121223
104.0,0.018831782042980194
112.0,0.01826554164290428
120.0,0.01768282987177372
128.0,0.017168832942843437
144.0,0.016456833109259605
160.0,0.015588570386171341
176.0,0.014703145250678062
192.0,0.013712559826672077
208.0,0.012764730490744114
224.0,0.011740448884665966
240.0,0.0105455182492733
256.0,0.009511435404419899
288.0,0.008187019266188145
320.0,0.007493739482015371
352.0,0.00700626615434885
384.0,0.006025590002536774
416.0,0.0052548483945429325
448.0,0.004587719216942787
480.0,0.004489006940275431
512.0,0.004674376919865608
576.0,0.005437721032649279
640.0,0.005499442107975483
704.0,0.006104407832026482
768.0,0.0061123850755393505
832.0,0.005780823063105345
896.0,0.005356213543564081
960.0,0.004688906483352184
1024.0,0.004459691233932972
1152.0,0.0042317574843764305
1280.0,0.0038914945907890797
1408.0,0.0042358627542853355
1536.0,0.0053021470084786415
1664.0,0.003550030756741762
1792.0,0.0022469395771622658
1920.0,0.0009148864774033427
2048.0,0.0005531339556910098
2304.0,-0.0018167333910241723
2560.0,-0.0045137847773730755
2816.0,-0.006510329432785511
3072.0,-0.0028308937326073647
3328.0,-0.004184621851891279
3584.0,-0.0007652802160009742
3840.0,0.0018381441477686167
4096.0,-0.00028643818222917616
4608.0,0.0014486955478787422
5120.0,-0.0032591286581009626
5632.0,-0.0017940489342436194
6144.0,-0.0067989216186106205
6656.0,-0.01327697467058897
7168.0,-0.010985469445586205
7680.0,-0.00918399915099144
8192.0,-0.007394319400191307
end
