version,3.0
numOfCh,1
type,point
parent_name,484af_0dot069-0dot01
ch_type,1_1
kcount,1
numberNandB,1
brightnessNandB,1
carpet pos,0
pc,0
Time (ms),CH1 Auto-Correlation
1.0,0.04213660955429077
2.0,0.041756171733140945
3.0,0.04137219861149788
4.0,0.04099339246749878
5.0,0.04061812162399292
6.0,0.04025597125291824
7.0,0.03990995138883591
8.0,0.03954004868865013
9.0,0.03917764127254486
10.0,0.038829222321510315
11.0,0.03847268223762512
12.0,0.03811049461364746
13.0,0.03777291998267174
14.0,0.03742527589201927
15.0,0.037072066217660904
16.0,0.036706745624542236
18.0,0.03597612306475639
20.0,0.03526968136429787
22.0,0.03460169956088066
24.0,0.03392978757619858
26.0,0.033315736800432205
28.0,0.03274744376540184
30.0,0.03222260996699333
32.0,0.03171907365322113
36.0,0.030747855082154274
40.0,0.029738720506429672
44.0,0.028814326971769333
48.0,0.02787976898252964
52.0,0.02694714441895485
56.0,0.02612173557281494
60.0,0.0252476017922163
64.0,0.024314695969223976
72.0,0.021768977865576744
80.0,0.019983775913715363
88.0,0.01837107725441456
96.0,0.017109351232647896
104.0,0.015937037765979767
112.0,0.01452015619724989
120.0,0.012932945974171162
128.0,0.01173543930053711
144.0,0.01109484676271677
160.0,0.010573791339993477
176.0,0.010045869275927544
192.0,0.009504541754722595
208.0,0.009048882871866226
224.0,0.008838944137096405
240.0,0.00869408156722784
256.0,0.008648592978715897
288.0,0.008076326921582222
320.0,0.00747416727244854
352.0,0.006645604502409697
384.0,0.00658093998208642
416.0,0.006629787385463715
448.0,0.0059859915636479855
480.0,0.005673568695783615
512.0,0.005721263121813536
576.0,0.0060869078151881695
640.0,0.006254612468183041
704.0,0.005546296015381813
768.0,0.0038095677737146616
832.0,0.0033305089455097914
896.0,0.003433029167354107
960.0,0.003563402686268091
1024.0,0.004199582152068615
1152.0,0.006196155678480864
1280.0,0.003114560153335333
1408.0,0.002762472489848733
1536.0,0.0029901666566729546
1664.0,0.0032741038594394922
1792.0,0.003452027915045619
1920.0,0.0022591936867684126
2048.0,0.0024657384492456913
2304.0,0.0012450228678062558
2560.0,-0.00206589512526989
2816.0,-0.0019637676887214184
3072.0,-0.0026673898100852966
3328.0,-0.002848359290510416
3584.0,-0.002077381359413266
3840.0,-0.0007839731988497078
4096.0,-0.0011149520287290215
4608.0,-0.006050223484635353
5120.0,-0.004960168153047562
5632.0,-0.006181666161864996
6144.0,-0.005157861392945051
6656.0,-0.009447040036320686
7168.0,-0.010000599548220634
7680.0,-0.005760685075074434
8192.0,-0.0013424954377114773
end
