version,3.0
numOfCh,1
type,point
parent_name,484af_0dot069-0dot01
ch_type,1_1
kcount,1
numberNandB,1
brightnessNandB,1
carpet pos,0
pc,0
Time (ms),CH1 Auto-Correlation
1.0,0.034577224403619766
2.0,0.03436708450317383
3.0,0.034160297363996506
4.0,0.033963024616241455
5.0,0.03376927971839905
6.0,0.033579371869564056
7.0,0.03339416906237602
8.0,0.0332091860473156
9.0,0.03302499279379845
10.0,0.03284098953008652
11.0,0.03266008943319321
12.0,0.03247992694377899
13.0,0.03229961171746254
14.0,0.03212793543934822
15.0,0.03195623308420181
16.0,0.0317927822470665
18.0,0.03148021548986435
20.0,0.03116590902209282
22.0,0.030858661979436874
24.0,0.03055398352444172
26.0,0.030262943357229233
28.0,0.029982062056660652
30.0,0.029706213623285294
32.0,0.02942785434424877
36.0,0.028900569304823875
40.0,0.028426894918084145
44.0,0.027958787977695465
48.0,0.027481254190206528
52.0,0.027019213885068893
56.0,0.026596954092383385
60.0,0.026235926896333694
64.0,0.02592366375029087
72.0,0.025315018370747566
80.0,0.02470129355788231
88.0,0.02409474365413189
96.0,0.023552242666482925
104.0,0.023031573742628098
112.0,0.02251683734357357
120.0,0.022054968401789665
128.0,0.0216483436524868
144.0,0.020827656611800194
160.0,0.019984129816293716
176.0,0.01908472180366516
192.0,0.0179414302110672
208.0,0.016718152910470963
224.0,0.015458155423402786
240.0,0.014112995937466621
256.0,0.012978952378034592
288.0,0.011564248241484165
320.0,0.010584563948214054
352.0,0.0096465814858675
384.0,0.0084671750664711
416.0,0.007254000287503004
448.0,0.00616906164214015
480.0,0.005285725463181734
512.0,0.0041361041367053986
576.0,0.002385934814810753
640.0,-8.258056186605245e-05
704.0,-0.002208905993029475
768.0,-0.003603924997150898
832.0,-0.004775522742420435
896.0,-0.005130772013217211
960.0,-0.004551846534013748
1024.0,-0.0035999356769025326
1152.0,-0.003764956258237362
1280.0,-0.005024875979870558
1408.0,-0.004534726496785879
1536.0,-0.0036100123543292284
1664.0,-0.004660010803490877
1792.0,-0.006731868721544743
1920.0,-0.008728650398552418
2048.0,-0.00827647466212511
2304.0,-0.0014563888544216752
2560.0,0.005391713231801987
2816.0,0.006583191454410553
3072.0,0.005646843463182449
3328.0,0.0032229546923190355
3584.0,0.0006699713412672281
3840.0,-0.0021905628964304924
4096.0,-0.0015710947336629033
4608.0,-0.00380876031704247
5120.0,5.304366277414374e-05
5632.0,-0.0021491076331585646
6144.0,-0.0034869443625211716
6656.0,0.004687072243541479
7168.0,-0.001791765564121306
7680.0,-0.002108190907165408
8192.0,-0.00392328342422843
end
