version,3.0
numOfCh,1
type,point
parent_name,484af_0dot069-0dot01
ch_type,1_1
kcount,1
numberNandB,1
brightnessNandB,1
carpet pos,0
pc,0
Time (ms),CH1 Auto-Correlation
1.0,0.022507360205054283
2.0,0.02227163501083851
3.0,0.022041015326976776
4.0,0.021814897656440735
5.0,0.021600859239697456
6.0,0.021382946521043777
7.0,0.0211701188236475
8.0,0.020954512059688568
9.0,0.020738035440444946
10.0,0.020522519946098328
11.0,0.020312083885073662
12.0,0.020104603841900826
13.0,0.019897200167179108
14.0,0.019700197502970695
15.0,0.019515523687005043
16.0,0.019337834790349007
18.0,0.018992306664586067
20.0,0.018654150888323784
22.0,0.018321247771382332
24.0,0.01797698810696602
26.0,0.017654238268733025
28.0,0.017359517514705658
30.0,0.017085114493966103
32.0,0.016820495948195457
36.0,0.01627000980079174
40.0,0.015721160918474197
44.0,0.015185601077973843
48.0,0.0146405678242445
52.0,0.014128550887107849
56.0,0.013590516522526741
60.0,0.01303632277995348
64.0,0.012479159981012344
72.0,0.011480804532766342
80.0,0.010728619061410427
88.0,0.0100743742659688
96.0,0.009565118700265884
104.0,0.008978278376162052
112.0,0.008508450351655483
120.0,0.00806448981165886
128.0,0.007711964659392834
144.0,0.006918881554156542
160.0,0.006151086650788784
176.0,0.005687059834599495
192.0,0.005069636274129152
208.0,0.004434154834598303
224.0,0.00392229575663805
240.0,0.0034462404437363148
256.0,0.003267117775976658
288.0,0.0031729531474411488
320.0,0.0029216832481324673
352.0,0.0031010215170681477
384.0,0.0035758065059781075
416.0,0.003991634584963322
448.0,0.00446321489289403
480.0,0.004940791986882687
512.0,0.005048776511102915
576.0,0.0032228955533355474
640.0,0.0012147375382483006
704.0,-0.0002417806099401787
768.0,-0.0010456994641572237
832.0,0.00014162407023832202
896.0,0.002726911334320903
960.0,0.0036453723441809416
1024.0,0.003153447527438402
1152.0,0.0021798675879836082
1280.0,0.000983856851235032
1408.0,0.002550213597714901
1536.0,-0.0006131803384050727
1664.0,-0.002684579463675618
1792.0,-0.0024290988221764565
1920.0,0.0013525433605536819
2048.0,0.00012718992365989834
2304.0,-0.0034592188894748688
2560.0,-0.0030614216811954975
2816.0,-0.005789903923869133
3072.0,-0.0033017455134540796
3328.0,-0.002268650569021702
3584.0,-0.0042532323859632015
3840.0,-0.0037176120094954967
4096.0,-0.005392936989665031
4608.0,0.001052213367074728
5120.0,-0.005224884487688541
5632.0,0.001256947056390345
6144.0,-0.0011916051153093576
6656.0,0.009229314513504505
7168.0,0.002796919085085392
end
