version,3.0
numOfCh,1
type,point
parent_name,484af_0dot069-0dot01
ch_type,1_1
kcount,1
numberNandB,1
brightnessNandB,1
carpet pos,0
pc,0
Time (ms),CH1 Auto-Correlation
1.0,0.03521164506673813
2.0,0.03493385761976242
3.0,0.03465760871767998
4.0,0.034384459257125854
5.0,0.034108083695173264
6.0,0.03384045884013176
7.0,0.033589400351047516
8.0,0.0333423838019371
9.0,0.0331079363822937
10.0,0.03287775069475174
11.0,0.03264274820685387
12.0,0.032410360872745514
13.0,0.03217558562755585
14.0,0.03195715323090553
15.0,0.03173261880874634
16.0,0.031513918191194534
18.0,0.031070522964000702
20.0,0.03063358925282955
22.0,0.03021160513162613
24.0,0.029802100732922554
26.0,0.029388438910245895
28.0,0.028996631503105164
30.0,0.02860160358250141
32.0,0.02820126712322235
36.0,0.027440067380666733
40.0,0.026709716767072678
44.0,0.025998560711741447
48.0,0.025342173874378204
52.0,0.024742383509874344
56.0,0.02415541559457779
60.0,0.02359113097190857
64.0,0.02303488925099373
72.0,0.02213459089398384
80.0,0.021272186189889908
88.0,0.020272614434361458
96.0,0.01923719048500061
104.0,0.018218042328953743
112.0,0.017255811020731926
120.0,0.016378706321120262
128.0,0.015700478106737137
144.0,0.01469462364912033
160.0,0.013913681730628014
176.0,0.013086787424981594
192.0,0.012486160732805729
208.0,0.011942794546484947
224.0,0.011097357608377934
240.0,0.010097507387399673
256.0,0.009236610494554043
288.0,0.008354252204298973
320.0,0.007471784017980099
352.0,0.006641626823693514
384.0,0.005638208705931902
416.0,0.004504286218434572
448.0,0.004292338155210018
480.0,0.003869971726089716
512.0,0.0025103804655373096
576.0,-0.0011942250421270728
640.0,-0.003706198651343584
704.0,-0.004117725417017937
768.0,-0.0022548900451511145
832.0,-0.0002931152412202209
896.0,-0.0004804932395927608
960.0,-0.0023708168882876635
1024.0,-0.004259922541677952
1152.0,-0.004447761457413435
1280.0,-0.002791841747239232
1408.0,-0.0005143990274518728
1536.0,0.0010561143280938268
1664.0,0.0023812041617929935
1792.0,0.005087347235530615
1920.0,0.0036344914697110653
2048.0,0.0009954549605026841
2304.0,-0.002966772299259901
2560.0,-0.005536750890314579
2816.0,-0.0024570010136812925
3072.0,0.0009022831218317151
3328.0,0.0011565645691007376
3584.0,-0.0002222828334197402
3840.0,-0.005646423436701298
4096.0,-0.00874353852123022
4608.0,-0.007461898028850555
5120.0,-0.0012702266685664654
5632.0,0.0006373735959641635
6144.0,-0.0009257294004783034
6656.0,0.007369840983301401
7168.0,0.0010786945931613445
7680.0,-0.0061502340249717236
8192.0,0.004299558699131012
end
