version,3.0
numOfCh,1
type,point
parent_name,484af_0dot069-0dot01
ch_type,1_1
kcount,1
numberNandB,1
brightnessNandB,1
carpet pos,0
pc,0
Time (ms),CH1 Auto-Correlation
1.0,0.03916865214705467
2.0,0.03893912583589554
3.0,0.038716670125722885
4.0,0.0384959802031517
5.0,0.03827321156859398
6.0,0.03805990517139435
7.0,0.03784589096903801
8.0,0.03763362392783165
9.0,0.03742872178554535
10.0,0.03721519559621811
11.0,0.0370081327855587
12.0,0.0368046872317791
13.0,0.036603495478630066
14.0,0.036403410136699677
15.0,0.03620559722185135
16.0,0.03600888326764107
18.0,0.0356057807803154
20.0,0.03521234542131424
22.0,0.03483134135603905
24.0,0.03447098284959793
26.0,0.03413078561425209
28.0,0.033805668354034424
30.0,0.033489298075437546
32.0,0.033169426023960114
36.0,0.03253382816910744
40.0,0.031931377947330475
44.0,0.031347211450338364
48.0,0.03077743574976921
52.0,0.030250687152147293
56.0,0.02977740578353405
60.0,0.02932455949485302
64.0,0.02885175123810768
72.0,0.027967488393187523
80.0,0.027086948975920677
88.0,0.026208318769931793
96.0,0.025414979085326195
104.0,0.024749483913183212
112.0,0.024322979152202606
120.0,0.023944951593875885
128.0,0.023451607674360275
144.0,0.022480478510260582
160.0,0.021572209894657135
176.0,0.020862795412540436
192.0,0.02044251747429371
208.0,0.020058127120137215
224.0,0.019978834316134453
240.0,0.020058101043105125
256.0,0.020287111401557922
288.0,0.019717620685696602
320.0,0.018375618383288383
352.0,0.016657445579767227
384.0,0.015487666241824627
416.0,0.014559374190866947
448.0,0.013652865774929523
480.0,0.012479123659431934
512.0,0.011873262003064156
576.0,0.010137775912880898
640.0,0.008847489953041077
704.0,0.00797664187848568
768.0,0.0069548520259559155
832.0,0.006060379091650248
896.0,0.006198777351528406
960.0,0.007110713515430689
1024.0,0.005986958742141724
1152.0,0.0018981903558596969
1280.0,0.0006059063016436994
1408.0,-0.001121124834753573
1536.0,-0.0028823052998632193
1664.0,-0.0066949110478162766
1792.0,-0.0069851321168243885
1920.0,-0.009949398227036
2048.0,-0.014256800524890423
2304.0,-0.013687513768672943
2560.0,-0.012607133947312832
2816.0,-0.00852681789547205
3072.0,-0.007544088177382946
3328.0,-0.005250353831797838
3584.0,-0.0012587042292580009
3840.0,0.003279738826677203
4096.0,0.005988580174744129
4608.0,0.0065459380857646465
5120.0,0.0026925145648419857
5632.0,-0.0008176190312951803
6144.0,-0.010715281590819359
6656.0,-0.014367549680173397
7168.0,-0.010958842001855373
7680.0,-0.00501350499689579
8192.0,0.0026289080269634724
end
