version,3.0
numOfCh,1
type,point
parent_name,484af_0dot069-0dot01
ch_type,1_1
kcount,1
numberNandB,1
brightnessNandB,1
carpet pos,0
pc,0
Time (ms),CH1 Auto-Correlation
1.0,0.02358132228255272
2.0,0.02337128296494484
3.0,0.02317153476178646
4.0,0.02297261729836464
5.0,0.022778183221817017
6.0,0.022578826174139977
7.0,0.02238817699253559
8.0,0.022196194157004356
9.0,0.022004438564181328
10.0,0.021821923553943634
11.0,0.02163683995604515
12.0,0.02145261876285076
13.0,0.021273208782076836
14.0,0.02109355852007866
15.0,0.020912429317831993
16.0,0.020738065242767334
18.0,0.020392395555973053
20.0,0.020060637965798378
22.0,0.019737862050533295
24.0,0.01943027600646019
26.0,0.01912872865796089
28.0,0.018831787630915642
30.0,0.01853921264410019
32.0,0.018245581537485123
36.0,0.017688145861029625
40.0,0.01716035045683384
44.0,0.016682688146829605
48.0,0.016214800998568535
52.0,0.015757251530885696
56.0,0.01529902033507824
60.0,0.014832225628197193
64.0,0.014365759678184986
72.0,0.013535297475755215
80.0,0.012827769853174686
88.0,0.012155797332525253
96.0,0.01155426912009716
104.0,0.010979348793625832
112.0,0.01040433719754219
120.0,0.009780834428966045
128.0,0.0091175502166152
144.0,0.007747996132820845
160.0,0.0063874609768390656
176.0,0.005523571744561195
192.0,0.0051482804119586945
208.0,0.0047775269486010075
224.0,0.004144926089793444
240.0,0.0036742324009537697
256.0,0.0031888019293546677
288.0,0.001962276641279459
320.0,0.0013703376753255725
352.0,0.0015704876277595758
384.0,0.0020973493810743093
416.0,0.0029963895212858915
448.0,0.0037650596350431442
480.0,0.004363220185041428
512.0,0.004388141445815563
576.0,0.004284251481294632
640.0,0.0029970870818942785
704.0,0.0022717700339853764
768.0,0.0017000605585053563
832.0,0.0009767865994945168
896.0,0.0008517445530742407
960.0,0.0023866265546530485
1024.0,0.003699640743434429
1152.0,0.0013465194497257471
1280.0,-0.00041537598008289933
1408.0,-0.00042952148942276835
1536.0,0.0007212929776869714
1664.0,0.0007759546861052513
1792.0,0.001686671283096075
1920.0,0.0017562097636982799
2048.0,0.003109481418505311
2304.0,0.00010410830145701766
2560.0,0.0005839384393766522
2816.0,0.0016467305831611156
3072.0,-0.002338096033781767
3328.0,-0.0028694921638816595
3584.0,-0.0029571664053946733
3840.0,-0.002686922438442707
4096.0,-0.002777384826913476
4608.0,-0.0024431433994323015
5120.0,-0.0030028612818568945
5632.0,-0.0034759636037051678
6144.0,-0.0022421113681048155
6656.0,-0.0016030422411859035
7168.0,-0.0010183523409068584
7680.0,-0.0008200635784305632
8192.0,0.0017239199951291084
end
