version,3.0
numOfCh,1
type,point
parent_name,484af_0dot069-0dot01
ch_type,1_1
kcount,1
numberNandB,1
brightnessNandB,1
carpet pos,0
pc,0
Time (ms),CH1 Auto-Correlation
1.0,0.026773130521178246
2.0,0.02658369205892086
3.0,0.026397978886961937
4.0,0.026219330728054047
5.0,0.026043608784675598
6.0,0.02587197721004486
7.0,0.025695951655507088
8.0,0.02552236057817936
9.0,0.025346705690026283
10.0,0.025173509493470192
11.0,0.02499864064157009
12.0,0.024820862337946892
13.0,0.024649132043123245
14.0,0.024473493918776512
15.0,0.024299761280417442
16.0,0.02413085661828518
18.0,0.0238008052110672
20.0,0.0234808512032032
22.0,0.023166853934526443
24.0,0.022867916151881218
26.0,0.022577831521630287
28.0,0.02229374088346958
30.0,0.02201971970498562
32.0,0.021745670586824417
36.0,0.0212438702583313
40.0,0.020751697942614555
44.0,0.020270584151148796
48.0,0.019789746031165123
52.0,0.01930077001452446
56.0,0.01883661188185215
60.0,0.018400637432932854
64.0,0.017993588000535965
72.0,0.017206255346536636
80.0,0.016348350793123245
88.0,0.015502365306019783
96.0,0.014713755808770657
104.0,0.013964664191007614
112.0,0.013287216424942017
120.0,0.012732814066112041
128.0,0.012175911106169224
144.0,0.011120106093585491
160.0,0.009991561993956566
176.0,0.008885178714990616
192.0,0.007855082862079144
208.0,0.006888193544000387
224.0,0.0060977027751505375
240.0,0.005379416048526764
256.0,0.004680585581809282
288.0,0.00391412153840065
320.0,0.0031454034615308046
352.0,0.0025275449734181166
384.0,0.0021331796888262033
416.0,0.0020859737414866686
448.0,0.001430760370567441
480.0,0.0006422165315598249
512.0,0.00038937365752644837
576.0,0.0008767771651037037
640.0,0.0015624936204403639
704.0,0.0018425347516313195
768.0,0.002609453396871686
832.0,0.0027147955261170864
896.0,0.0018434383673593402
960.0,0.0011338063050061464
1024.0,0.001024835859425366
1152.0,-0.0015154473949223757
1280.0,-0.0022843980696052313
1408.0,-0.0004964451072737575
1536.0,0.0008625147165730596
1664.0,0.0019189150771126151
1792.0,0.0016577685019001365
1920.0,0.0014298566384240985
2048.0,0.0013368244981393218
2304.0,0.007031246554106474
2560.0,0.002349711721763015
2816.0,0.002336675301194191
3072.0,0.0031238130759447813
3328.0,-0.001403244910761714
3584.0,-0.0018277401104569435
3840.0,0.0016637161606922746
4096.0,0.0006651542498730123
4608.0,0.0004138123185839504
5120.0,-0.0002915447112172842
5632.0,-0.006545931100845337
6144.0,-0.0065271323546767235
6656.0,-0.0003765782166738063
7168.0,-0.001966514391824603
7680.0,-0.0036363208200782537
8192.0,-0.007226733956485987
end
