version,3.0
numOfCh,1
type,point
parent_name,484af_0dot069-0dot01
ch_type,1_1
kcount,1
numberNandB,1
brightnessNandB,1
carpet pos,0
pc,0
Time (ms),CH1 Auto-Correlation
1.0,0.01897941716015339
2.0,0.018779467791318893
3.0,0.01858438551425934
4.0,0.01839037798345089
5.0,0.0182032510638237
6.0,0.018008260056376457
7.0,0.0178146380931139
8.0,0.01762261800467968
9.0,0.017435654997825623
10.0,0.017260106280446053
11.0,0.017084578052163124
12.0,0.016911236569285393
13.0,0.01673833280801773
14.0,0.016561396420001984
15.0,0.016392605379223824
16.0,0.016225889325141907
18.0,0.015902023762464523
20.0,0.01559242233633995
22.0,0.015291144140064716
24.0,0.015007666312158108
26.0,0.014735688455402851
28.0,0.014482454396784306
30.0,0.014245981350541115
32.0,0.014008884318172932
36.0,0.013554689474403858
40.0,0.01314463559538126
44.0,0.0127495676279068
48.0,0.012374580837786198
52.0,0.012031665071845055
56.0,0.01172950305044651
60.0,0.011455679312348366
64.0,0.011221052147448063
72.0,0.01079352293163538
80.0,0.010370669886469841
88.0,0.009964529424905777
96.0,0.009625575505197048
104.0,0.009206818416714668
112.0,0.008662132546305656
120.0,0.00808679684996605
128.0,0.007569206412881613
144.0,0.0066504399292171
160.0,0.005947325844317675
176.0,0.0054270424880087376
192.0,0.004967596847563982
208.0,0.004563088063150644
224.0,0.004122328013181686
240.0,0.003751932643353939
256.0,0.0035634974483400583
288.0,0.004174381494522095
320.0,0.003935467451810837
352.0,0.002963570412248373
384.0,0.0025938530452549458
416.0,0.0028931305278092623
448.0,0.003032397711649537
480.0,0.0029558746609836817
512.0,0.0026959462556988
576.0,0.0028158642817288637
640.0,0.002952271606773138
704.0,0.0027713533490896225
768.0,0.0025576017796993256
832.0,0.0023964529391378164
896.0,0.002622556174173951
960.0,0.002997486386448145
1024.0,0.002510611666366458
1152.0,0.0013387257931753993
1280.0,0.0018012378131970763
1408.0,0.003265054663643241
1536.0,0.0021750330924987793
1664.0,-0.0005931349005550146
1792.0,-0.0007870499393902719
1920.0,-0.000436989328591153
2048.0,0.0004162448167335242
2304.0,-0.0015214190352708101
2560.0,-0.002525282558053732
2816.0,-0.0015405332669615746
3072.0,-0.0035191650968044996
3328.0,-0.004254449624568224
3584.0,-0.004994876217097044
3840.0,-0.006499316543340683
4096.0,-0.005426186602562666
4608.0,-0.004477903712540865
5120.0,-0.003512177849188447
5632.0,-0.001467650174163282
6144.0,-0.0004826586227864027
6656.0,0.003650111611932516
7168.0,0.007605124730616808
7680.0,0.004041122272610664
8192.0,0.00867333821952343
end
