version,3.0
numOfCh,1
type,point
parent_name,34766_0dot069-0dot1
ch_type,1_1
kcount,1
numberNandB,1
brightnessNandB,1
carpet pos,0
pc,0
Time (ms),CH1 Auto-Correlation
1.0,0.046802788972854614
2.0,0.046194907277822495
3.0,0.045626383274793625
4.0,0.04506639391183853
5.0,0.04452857747673988
6.0,0.04400607571005821
7.0,0.043508678674697876
8.0,0.0430031381547451
9.0,0.042509812861680984
10.0,0.04203095659613609
11.0,0.041569292545318604
12.0,0.04110785201191902
13.0,0.040679316967725754
14.0,0.04027159884572029
15.0,0.0398545004427433
16.0,0.03945682942867279
18.0,0.038730643689632416
20.0,0.03807355836033821
22.0,0.037429820746183395
24.0,0.03678540512919426
26.0,0.0361790806055069
28.0,0.03561965376138687
30.0,0.03504503145813942
32.0,0.03446569666266441
36.0,0.033285897225141525
40.0,0.03220830485224724
44.0,0.03123702108860016
48.0,0.03026033379137516
52.0,0.029343197122216225
56.0,0.028585724532604218
60.0,0.02786082774400711
64.0,0.02710731141269207
72.0,0.02564070373773575
80.0,0.024235911667346954
88.0,0.023241553455591202
96.0,0.022383566945791245
104.0,0.021733637899160385
112.0,0.021242380142211914
120.0,0.020741289481520653
128.0,0.020054124295711517
144.0,0.018536200746893883
160.0,0.017039064317941666
176.0,0.015768693760037422
192.0,0.015210505574941635
208.0,0.01433273870497942
224.0,0.013869382441043854
240.0,0.013508439995348454
256.0,0.013312426395714283
288.0,0.012138428166508675
320.0,0.010572320781648159
352.0,0.008133470080792904
384.0,0.0057227956131100655
416.0,0.004722642712295055
448.0,0.0050687347538769245
480.0,0.00445481576025486
512.0,0.004748420789837837
576.0,0.006978640332818031
640.0,0.006147987674921751
704.0,0.0049614086747169495
768.0,0.0033413118217140436
832.0,0.0021721639204770327
896.0,0.0035904948599636555
960.0,0.0018908221973106265
1024.0,-0.0008198209688998759
1152.0,-0.003179647494107485
1280.0,-0.00701110577210784
1408.0,-0.007177409250289202
1536.0,-0.005726885981857777
1664.0,-0.005493626464158297
1792.0,-0.00572994165122509
1920.0,-0.006960003171116114
2048.0,-0.007990173064172268
2304.0,-0.006370411720126867
2560.0,-0.0008448661537840962
2816.0,-0.005528212059289217
3072.0,-0.0024302173405885696
3328.0,-1.3532667253457475e-05
3584.0,0.0007614493952132761
3840.0,0.005828503053635359
4096.0,0.006528108846396208
4608.0,0.004587342496961355
5120.0,-7.946811706460721e-07
5632.0,-0.006986281368881464
6144.0,-0.014925454743206501
6656.0,-0.014043809846043587
7168.0,-0.0020410334691405296
7680.0,0.0055546024814248085
8192.0,0.011087248101830482
end
