version,3.0
numOfCh,1
type,point
parent_name,34766_0dot069-0dot1
ch_type,1_1
kcount,1
numberNandB,1
brightnessNandB,1
carpet pos,0
pc,0
Time (ms),CH1 Auto-Correlation
1.0,0.07327719777822495
2.0,0.0717817023396492
3.0,0.07040590047836304
4.0,0.06896526366472244
5.0,0.06768378615379333
6.0,0.0670398473739624
7.0,0.06635760515928268
8.0,0.06571616232395172
9.0,0.06506696343421936
10.0,0.06450272351503372
11.0,0.06381399184465408
12.0,0.06321501731872559
13.0,0.06269046664237976
14.0,0.0621529184281826
15.0,0.061647575348615646
16.0,0.0612025111913681
18.0,0.05969136580824852
20.0,0.05860018730163574
22.0,0.05742268264293671
24.0,0.05603250488638878
26.0,0.054594673216342926
28.0,0.05350739136338234
30.0,0.052846357226371765
32.0,0.052111171185970306
36.0,0.050834815949201584
40.0,0.049576301127672195
44.0,0.04834571108222008
48.0,0.047327350825071335
52.0,0.04622387886047363
56.0,0.04546128585934639
60.0,0.04467116668820381
64.0,0.043913889676332474
72.0,0.04238627105951309
80.0,0.04105273261666298
88.0,0.039980653673410416
96.0,0.03906779736280441
104.0,0.038251910358667374
112.0,0.03748847171664238
120.0,0.03698335215449333
128.0,0.036440860480070114
144.0,0.03525998070836067
160.0,0.034734632819890976
176.0,0.034174129366874695
192.0,0.03309531509876251
208.0,0.031785666942596436
224.0,0.029891982674598694
240.0,0.02816111221909523
256.0,0.026250170543789864
288.0,0.022737829014658928
320.0,0.022235054522752762
352.0,0.021229950711131096
384.0,0.019706502556800842
416.0,0.01781356707215309
448.0,0.015946829691529274
480.0,0.015269536525011063
512.0,0.015206928364932537
576.0,0.015036211349070072
640.0,0.012218959629535675
704.0,0.010849528945982456
768.0,0.00762891722843051
832.0,0.006253197323530912
896.0,0.004029231611639261
960.0,0.00032031460432335734
1024.0,-0.0024241807404905558
1152.0,-0.0015769436722621322
1280.0,-0.0031901567708700895
1408.0,-0.0016485085943713784
1536.0,-0.004413533490151167
1664.0,-0.0045793261379003525
1792.0,-0.0015118344454094768
1920.0,-8.436672214884311e-05
2048.0,0.0030631048139184713
2304.0,0.009277659468352795
2560.0,0.013048030436038971
2816.0,0.012818144634366035
3072.0,0.011926988139748573
3328.0,0.006339736748486757
3584.0,0.0021291342563927174
3840.0,-0.003816271433606744
4096.0,-0.011022658087313175
4608.0,-0.0064798262901604176
5120.0,-0.0025936008896678686
5632.0,-0.0030206411611288786
6144.0,-0.01149442233145237
6656.0,-0.020391175523400307
7168.0,-0.01993650756776333
7680.0,-0.03004349023103714
8192.0,-0.004257726948708296
end
