version,3.0
numOfCh,1
type,point
parent_name,34766_0dot069-0dot1
ch_type,1_1
kcount,1
numberNandB,1
brightnessNandB,1
carpet pos,0
pc,0
Time (ms),CH1 Auto-Correlation
1.0,0.07028713822364807
2.0,0.0696839988231659
3.0,0.06908468157052994
4.0,0.06846429407596588
5.0,0.06790497153997421
6.0,0.06740956753492355
7.0,0.0669543445110321
8.0,0.06654733419418335
9.0,0.06619488447904587
10.0,0.0657995268702507
11.0,0.06536655873060226
12.0,0.06494514644145966
13.0,0.06449104100465775
14.0,0.0640096440911293
15.0,0.0635620504617691
16.0,0.0631387010216713
18.0,0.06237836927175522
20.0,0.06167728081345558
22.0,0.060927681624889374
24.0,0.06011699140071869
26.0,0.05926736444234848
28.0,0.058429691940546036
30.0,0.057626452296972275
32.0,0.05686027184128761
36.0,0.05548083037137985
40.0,0.05420801788568497
44.0,0.05292239412665367
48.0,0.05172600969672203
52.0,0.05062485113739967
56.0,0.04947735369205475
60.0,0.048382099717855453
64.0,0.047389935702085495
72.0,0.0458243191242218
80.0,0.04447558522224426
88.0,0.04346982017159462
96.0,0.042416054755449295
104.0,0.041405122727155685
112.0,0.040513575077056885
120.0,0.03942352160811424
128.0,0.038232866674661636
144.0,0.03543751314282417
160.0,0.032621413469314575
176.0,0.030122675001621246
192.0,0.027413811534643173
208.0,0.025139639154076576
224.0,0.023255668580532074
240.0,0.02165098488330841
256.0,0.020246651023626328
288.0,0.018272435292601585
320.0,0.017212703824043274
352.0,0.015990063548088074
384.0,0.015323151834309101
416.0,0.014823723584413528
448.0,0.014225746504962444
480.0,0.014724078588187695
512.0,0.014654930680990219
576.0,0.013079443946480751
640.0,0.013180742040276527
704.0,0.014489345252513885
768.0,0.01588861458003521
832.0,0.01508154347538948
896.0,0.0142186488956213
960.0,0.014739176258444786
1024.0,0.01377602107822895
1152.0,0.012305411510169506
1280.0,0.01146159041672945
1408.0,0.00986475683748722
1536.0,0.004945929627865553
1664.0,0.0022249831818044186
1792.0,0.0004093557072337717
1920.0,-0.006044968031346798
2048.0,-0.00873266626149416
2304.0,-0.002255914034321904
2560.0,0.002359515056014061
2816.0,-0.005369839258491993
3072.0,-0.010745823383331299
3328.0,-0.006126865278929472
3584.0,-0.003420521505177021
3840.0,0.004908910021185875
4096.0,0.005412788596004248
4608.0,0.00273916800506413
5120.0,-0.001529425266198814
5632.0,-0.009571069851517677
6144.0,-0.015938563272356987
6656.0,-0.014771736226975918
7168.0,-0.018500519916415215
7680.0,-0.02051524445414543
8192.0,-0.0045063490979373455
end
