version,3.0
numOfCh,1
type,point
parent_name,34766_0dot069-0dot1
ch_type,1_1
kcount,1
numberNandB,1
brightnessNandB,1
carpet pos,0
pc,0
Time (ms),CH1 Auto-Correlation
1.0,0.07158668339252472
2.0,0.0710299015045166
3.0,0.07048599421977997
4.0,0.06995269656181335
5.0,0.06942880898714066
6.0,0.06892840564250946
7.0,0.06845084577798843
8.0,0.06799197942018509
9.0,0.06753189116716385
10.0,0.06708723306655884
11.0,0.06667099893093109
12.0,0.06624539941549301
13.0,0.06583807617425919
14.0,0.0654352530837059
15.0,0.06502735614776611
16.0,0.06463927030563354
18.0,0.06387560069561005
20.0,0.0631500855088234
22.0,0.062444861978292465
24.0,0.06175925210118294
26.0,0.06109841912984848
28.0,0.06046704947948456
30.0,0.05985962599515915
32.0,0.05926969274878502
36.0,0.05802622437477112
40.0,0.056763824075460434
44.0,0.055547479540109634
48.0,0.054358113557100296
52.0,0.0531306117773056
56.0,0.05194798484444618
60.0,0.050802066922187805
64.0,0.04971276968717575
72.0,0.047805577516555786
80.0,0.04607464373111725
88.0,0.044404711574316025
96.0,0.04277472570538521
104.0,0.04140724986791611
112.0,0.0404072143137455
120.0,0.03961200267076492
128.0,0.03891335055232048
144.0,0.03767487034201622
160.0,0.03636704757809639
176.0,0.03468149155378342
192.0,0.03285222873091698
208.0,0.03119443729519844
224.0,0.029313949868083
240.0,0.027456941083073616
256.0,0.026055732741951942
288.0,0.025059811770915985
320.0,0.025411009788513184
352.0,0.025759384036064148
384.0,0.024468744173645973
416.0,0.02229616791009903
448.0,0.020256776362657547
480.0,0.018778501078486443
512.0,0.018560118973255157
576.0,0.017316389828920364
640.0,0.015228734351694584
704.0,0.01604275219142437
768.0,0.016619667410850525
832.0,0.016823457553982735
896.0,0.018485816195607185
960.0,0.01771734282374382
1024.0,0.01822551339864731
1152.0,0.01756342314183712
1280.0,0.019749408587813377
1408.0,0.022389139980077744
1536.0,0.018678180873394012
1664.0,0.014699015766382217
1792.0,0.009929856285452843
1920.0,0.005713470745831728
2048.0,0.0054813530296087265
2304.0,-0.003199888626113534
2560.0,-0.0015194776933640242
2816.0,-0.001554635469801724
3072.0,-0.004322654567658901
3328.0,-0.007341692689806223
3584.0,-0.015401547774672508
3840.0,-0.018925098702311516
4096.0,-0.020696308463811874
4608.0,-0.017284566536545753
5120.0,-0.018968097865581512
5632.0,-0.023868488147854805
6144.0,-0.018205558881163597
6656.0,-0.013741801492869854
7168.0,-0.020840583369135857
7680.0,-0.013665790669620037
8192.0,0.0004447397368494421
end
