version,3.0
numOfCh,1
type,point
parent_name,34766_0dot069-0dot1
ch_type,1_1
kcount,1
numberNandB,1
brightnessNandB,1
carpet pos,0
pc,0
Time (ms),CH1 Auto-Correlation
1.0,0.042389094829559326
2.0,0.04180431365966797
3.0,0.04124588519334793
4.0,0.04069940373301506
5.0,0.04017958790063858
6.0,0.03969394788146019
7.0,0.03922146186232567
8.0,0.038768745958805084
9.0,0.038310401141643524
10.0,0.03785218298435211
11.0,0.0373988002538681
12.0,0.036962319165468216
13.0,0.036544810980558395
14.0,0.036132920533418655
15.0,0.03570772334933281
16.0,0.03528045117855072
18.0,0.03445754945278168
20.0,0.03363380208611488
22.0,0.032833125442266464
24.0,0.03205777704715729
26.0,0.03131590038537979
28.0,0.030628135427832603
30.0,0.02998458407819271
32.0,0.02940741740167141
36.0,0.028314698487520218
40.0,0.0272213201969862
44.0,0.02626555599272251
48.0,0.025432521477341652
52.0,0.024611009284853935
56.0,0.02386367879807949
60.0,0.02317640371620655
64.0,0.02256276272237301
72.0,0.02121630497276783
80.0,0.02005569078028202
88.0,0.018789637833833694
96.0,0.017723217606544495
104.0,0.016832277178764343
112.0,0.016128407791256905
120.0,0.015589170157909393
128.0,0.014939887449145317
144.0,0.013559961691498756
160.0,0.012049267999827862
176.0,0.010809156112372875
192.0,0.010153239592909813
208.0,0.009402471594512463
224.0,0.008511129766702652
240.0,0.007675407454371452
256.0,0.006904082838445902
288.0,0.0039742980152368546
320.0,0.0016361110610887408
352.0,0.0003466205089353025
384.0,-0.0005479321116581559
416.0,-0.001009118976071477
448.0,-0.000528362113982439
480.0,-0.00036270709824748337
512.0,-0.0013884815853089094
576.0,-0.00446050800383091
640.0,-0.00413975166156888
704.0,-0.0011996476678177714
768.0,-0.00032609811751171947
832.0,0.0005007917643524706
896.0,0.003393401624634862
960.0,0.005116031970828772
1024.0,0.0034863806795328856
1152.0,0.002817612374201417
1280.0,0.0003036576381418854
1408.0,-0.0004919404746033251
1536.0,0.003578465199097991
1664.0,0.010324709117412567
1792.0,0.009758458472788334
1920.0,0.0030701865907758474
2048.0,-0.0005613003741018474
2304.0,-0.0039927177131175995
2560.0,-5.794311164208921e-06
2816.0,-0.0006447358755394816
3072.0,-0.0034286961890757084
3328.0,0.003463662462309003
3584.0,-0.0009632752626203001
3840.0,-0.0037138881161808968
4096.0,-0.00021023179579060525
4608.0,1.6947155017987825e-05
5120.0,0.0011460547102615237
5632.0,-0.0002272713027196005
6144.0,-0.005224648397415876
6656.0,0.0030413547065109015
7168.0,-0.00363571522757411
7680.0,-0.007110557984560728
8192.0,-0.003150253789499402
end
