version,3.0
numOfCh,1
type,point
parent_name,34766_0dot069-0dot1
ch_type,1_1
kcount,1
numberNandB,1
brightnessNandB,1
carpet pos,0
pc,0
Time (ms),CH1 Auto-Correlation
1.0,0.057684656232595444
2.0,0.057241540402173996
3.0,0.05682250112295151
4.0,0.05641784146428108
5.0,0.05603030323982239
6.0,0.055636271834373474
7.0,0.0552484355866909
8.0,0.05487207695841789
9.0,0.05449184402823448
10.0,0.05409814417362213
11.0,0.0537295825779438
12.0,0.05335575342178345
13.0,0.052999235689640045
14.0,0.0526554249227047
15.0,0.05230897665023804
16.0,0.05197792872786522
18.0,0.05133150890469551
20.0,0.050713371485471725
22.0,0.050114624202251434
24.0,0.049522433429956436
26.0,0.04892437905073166
28.0,0.0483376644551754
30.0,0.047740139067173004
32.0,0.04716649278998375
36.0,0.046065378934144974
40.0,0.045035287737846375
44.0,0.04414817690849304
48.0,0.04327242076396942
52.0,0.04244304075837135
56.0,0.04165399447083473
60.0,0.04093824326992035
64.0,0.04023710638284683
72.0,0.039125021547079086
80.0,0.038114894181489944
88.0,0.03715978190302849
96.0,0.036317016929388046
104.0,0.03551863506436348
112.0,0.034682150930166245
120.0,0.03393762931227684
128.0,0.03328470140695572
144.0,0.03170294314622879
160.0,0.030300598591566086
176.0,0.02864997088909149
192.0,0.027204332873225212
208.0,0.02607988752424717
224.0,0.02492251619696617
240.0,0.023153753951191902
256.0,0.02152138017117977
288.0,0.020163409411907196
320.0,0.020036401227116585
352.0,0.020408937707543373
384.0,0.020960235968232155
416.0,0.02150452695786953
448.0,0.02172568440437317
480.0,0.021302776411175728
512.0,0.020750951021909714
576.0,0.019239012151956558
640.0,0.017850356176495552
704.0,0.017787128686904907
768.0,0.016532188281416893
832.0,0.01671147346496582
896.0,0.01587882824242115
960.0,0.014457936398684978
1024.0,0.011981464922428131
1152.0,0.010349327698349953
1280.0,0.010138698853552341
1408.0,0.00815315917134285
1536.0,0.0016867481172084808
1664.0,-0.0029870595317333937
1792.0,-0.0038391645066440105
1920.0,-0.0004189416067674756
2048.0,-0.0006279123481363058
2304.0,-0.00680498406291008
2560.0,-0.008789843879640102
2816.0,-0.007151419762521982
3072.0,-0.011845341883599758
3328.0,-0.005919718183577061
3584.0,-0.0031494097784161568
3840.0,-0.0033871373161673546
4096.0,-0.0009552758419886231
4608.0,0.002063691383227706
5120.0,0.007197200320661068
5632.0,0.004690153989940882
6144.0,-0.0033634479623287916
6656.0,-0.011480031535029411
7168.0,-0.006127837114036083
7680.0,-0.009275092743337154
8192.0,-0.014864617958664894
end
