version,3.0
numOfCh,1
type,point
parent_name,34766_0dot069-0dot1
ch_type,1_1
kcount,1
numberNandB,1
brightnessNandB,1
carpet pos,0
pc,0
Time (ms),CH1 Auto-Correlation
1.0,0.10222858190536499
2.0,0.09957639127969742
3.0,0.09672706574201584
4.0,0.09585025161504745
5.0,0.09502854943275452
6.0,0.0943034365773201
7.0,0.09361429512500763
8.0,0.0928771048784256
9.0,0.0920281708240509
10.0,0.09124346077442169
11.0,0.09061133861541748
12.0,0.08982783555984497
13.0,0.08904185146093369
14.0,0.0881817564368248
15.0,0.08747219294309616
16.0,0.08694598078727722
18.0,0.08596363663673401
20.0,0.0852883905172348
22.0,0.08464895188808441
24.0,0.08420546352863312
26.0,0.08388110250234604
28.0,0.08377916365861893
30.0,0.08345495909452438
32.0,0.08306173980236053
36.0,0.08006259053945541
40.0,0.07857739925384521
44.0,0.0774017721414566
48.0,0.07630705833435059
52.0,0.07527802884578705
56.0,0.07431711256504059
60.0,0.07349126040935516
64.0,0.0727013573050499
72.0,0.0710190013051033
80.0,0.06970122456550598
88.0,0.0685650035738945
96.0,0.06764581799507141
104.0,0.06685175001621246
112.0,0.06619592756032944
120.0,0.06582161784172058
128.0,0.06537191569805145
144.0,0.06439473479986191
160.0,0.0626508817076683
176.0,0.060149919241666794
192.0,0.058687981218099594
208.0,0.05769125372171402
224.0,0.05711197853088379
240.0,0.05617768317461014
256.0,0.05543055385351181
288.0,0.0533379465341568
320.0,0.05150900036096573
352.0,0.049958545714616776
384.0,0.04760066792368889
416.0,0.04625779762864113
448.0,0.045104704797267914
480.0,0.043250471353530884
512.0,0.042002156376838684
576.0,0.04148312658071518
640.0,0.041426267474889755
704.0,0.04006464034318924
768.0,0.03873014077544212
832.0,0.03630659729242325
896.0,0.032381877303123474
960.0,0.029289228841662407
1024.0,0.025276444852352142
1152.0,0.02288907766342163
1280.0,0.021210886538028717
1408.0,0.018992548808455467
1536.0,0.018538106232881546
1664.0,0.016819804906845093
1792.0,0.016802316531538963
1920.0,0.020688343793153763
2048.0,0.021212458610534668
2304.0,0.017451496794819832
2560.0,0.01895027793943882
2816.0,0.017968950793147087
3072.0,0.013639171607792377
3328.0,0.0071610137820243835
3584.0,0.0084324786439538
3840.0,0.007382482290267944
4096.0,-0.0011927456362172961
4608.0,-0.007134334649890661
5120.0,-0.018870780244469643
5632.0,-0.0321369469165802
6144.0,-0.04027826339006424
6656.0,-0.04572103172540665
7168.0,-0.04682466760277748
7680.0,-0.03633467108011246
8192.0,-0.021302225068211555
end
