version,3.0
numOfCh,1
type,point
parent_name,34766_0dot069-0dot1
ch_type,1_1
kcount,1
numberNandB,1
brightnessNandB,1
carpet pos,0
pc,0
Time (ms),CH1 Auto-Correlation
1.0,0.0855468362569809
2.0,0.08471691608428955
3.0,0.08390474319458008
4.0,0.08310295641422272
5.0,0.08236637711524963
6.0,0.08159536868333817
7.0,0.08085345476865768
8.0,0.08013173937797546
9.0,0.07945643365383148
10.0,0.0787569209933281
11.0,0.07808742672204971
12.0,0.07742292433977127
13.0,0.07676377147436142
14.0,0.07617750018835068
15.0,0.07562462240457535
16.0,0.07509825378656387
18.0,0.07402677834033966
20.0,0.07302548736333847
22.0,0.07199224829673767
24.0,0.07098333537578583
26.0,0.07000714540481567
28.0,0.06904744356870651
30.0,0.06812173128128052
32.0,0.06720749288797379
36.0,0.06541977822780609
40.0,0.06381607055664062
44.0,0.06218259781599045
48.0,0.06075352057814598
52.0,0.05954936519265175
56.0,0.05834024026989937
60.0,0.057048507034778595
64.0,0.05584792420268059
72.0,0.05366820842027664
80.0,0.05150729417800903
88.0,0.04950764402747154
96.0,0.04783450439572334
104.0,0.04615742713212967
112.0,0.04445207491517067
120.0,0.042632829397916794
128.0,0.04075003042817116
144.0,0.03681392967700958
160.0,0.03313206136226654
176.0,0.02955157868564129
192.0,0.02645706571638584
208.0,0.023960016667842865
224.0,0.021411826834082603
240.0,0.018942512571811676
256.0,0.015673767775297165
288.0,0.008412214927375317
320.0,0.0037237373180687428
352.0,0.0020970238838344812
384.0,0.0012485015904530883
416.0,0.0020372893195599318
448.0,0.0042467485181987286
480.0,0.005698848981410265
512.0,0.0071792141534388065
576.0,0.008267352357506752
640.0,0.007389552425593138
704.0,0.003574844915419817
768.0,0.0005904354620724916
832.0,-0.003917216323316097
896.0,-0.006247091572731733
960.0,-0.00801732949912548
1024.0,-0.00839744508266449
1152.0,-0.012815353460609913
1280.0,-0.019640227779746056
1408.0,-0.017767557874321938
1536.0,-0.014463820494711399
1664.0,-0.014265483245253563
1792.0,-0.016942694783210754
1920.0,-0.018017947673797607
2048.0,-0.014822323806583881
2304.0,-0.005070899147540331
2560.0,0.007001555059105158
2816.0,-0.00012704504479188472
3072.0,0.007989004254341125
3328.0,0.014065440744161606
3584.0,0.005232033785432577
3840.0,0.013468210585415363
4096.0,-0.0007347203209064901
4608.0,-0.012389733456075191
5120.0,-0.002036379650235176
5632.0,0.00958098191767931
6144.0,0.01478753425180912
6656.0,0.007072113920003176
7168.0,0.000689671142026782
7680.0,-0.04143863171339035
8192.0,-0.03738456219434738
end
