version,3.0
numOfCh,1
type,point
parent_name,34766_0dot069-0dot1
ch_type,1_1
kcount,1
numberNandB,1
brightnessNandB,1
carpet pos,0
pc,0
Time (ms),CH1 Auto-Correlation
1.0,0.05043946951627731
2.0,0.04997954145073891
3.0,0.04952320456504822
4.0,0.049060411751270294
5.0,0.048633426427841187
6.0,0.048220086842775345
7.0,0.04782938212156296
8.0,0.04746421054005623
9.0,0.0470796674489975
10.0,0.04670318216085434
11.0,0.04634248465299606
12.0,0.045973554253578186
13.0,0.04560282826423645
14.0,0.04522561654448509
15.0,0.04485630244016647
16.0,0.04448860138654709
18.0,0.04380076751112938
20.0,0.043140996247529984
22.0,0.04247554391622543
24.0,0.0418350026011467
26.0,0.04121601581573486
28.0,0.04060768336057663
30.0,0.039980702102184296
32.0,0.03935037553310394
36.0,0.0382138267159462
40.0,0.03711684048175812
44.0,0.03607521206140518
48.0,0.03512971103191376
52.0,0.03421954810619354
56.0,0.03337773308157921
60.0,0.03258012235164642
64.0,0.0318182073533535
72.0,0.030415832996368408
80.0,0.029153522104024887
88.0,0.02791018597781658
96.0,0.026705367490649223
104.0,0.02555820159614086
112.0,0.024534473195672035
120.0,0.02351752668619156
128.0,0.022527320310473442
144.0,0.020794523879885674
160.0,0.01940964348614216
176.0,0.018035028129816055
192.0,0.016413643956184387
208.0,0.014823053032159805
224.0,0.013725709170103073
240.0,0.013330278918147087
256.0,0.013322821818292141
288.0,0.012116757221519947
320.0,0.009458313696086407
352.0,0.007119292393326759
384.0,0.005880185402929783
416.0,0.006037733517587185
448.0,0.006170216947793961
480.0,0.004981338977813721
512.0,0.0036780284717679024
576.0,0.004248485434800386
640.0,0.00351920654065907
704.0,0.0025315680541098118
768.0,0.003181127831339836
832.0,0.00314682861790061
896.0,-0.00010540084622334689
960.0,-0.0035349198151379824
1024.0,-0.0042901369743049145
1152.0,-0.00380173628218472
1280.0,-0.004246912430971861
1408.0,-0.003904246725142002
1536.0,-0.00218260963447392
1664.0,-0.004004534799605608
1792.0,-0.005143881309777498
1920.0,-0.004500347189605236
2048.0,-0.0006711070891469717
2304.0,-0.0040879459120333195
2560.0,-0.0037052249535918236
2816.0,0.007850811816751957
3072.0,0.0038422802463173866
3328.0,0.0035642869770526886
3584.0,0.011126994155347347
3840.0,0.004877238534390926
4096.0,-0.0035948490258306265
4608.0,-0.011984624899923801
5120.0,-0.013852070085704327
5632.0,-0.01475546695291996
6144.0,6.090668830438517e-05
6656.0,0.008523651398718357
7168.0,-0.0006933353142812848
7680.0,-0.0034186923876404762
8192.0,0.0004819021269213408
end
