version,3.0
numOfCh,1
type,point
parent_name,34766_0dot069-0dot1
ch_type,1_1
kcount,1
numberNandB,1
brightnessNandB,1
carpet pos,0
pc,0
Time (ms),CH1 Auto-Correlation
1.0,0.10337021201848984
2.0,0.10190501809120178
3.0,0.10058178752660751
4.0,0.09936296194791794
5.0,0.09809312224388123
6.0,0.09687789529561996
7.0,0.09563092142343521
8.0,0.09437893331050873
9.0,0.09316609799861908
10.0,0.09199696779251099
11.0,0.0908588096499443
12.0,0.08977078646421432
13.0,0.08879172056913376
14.0,0.0878693014383316
15.0,0.08693420141935349
16.0,0.08609623461961746
18.0,0.08466598391532898
20.0,0.08339031040668488
22.0,0.08230120688676834
24.0,0.08133986592292786
26.0,0.08037517964839935
28.0,0.07940039038658142
30.0,0.07864359021186829
32.0,0.07796217501163483
36.0,0.07618588954210281
40.0,0.07356376200914383
44.0,0.07088509947061539
48.0,0.06884834170341492
52.0,0.06723815202713013
56.0,0.06553461402654648
60.0,0.0635264441370964
64.0,0.06113409250974655
72.0,0.056710511445999146
80.0,0.052070606499910355
88.0,0.0487542599439621
96.0,0.04607304558157921
104.0,0.043338265269994736
112.0,0.04150127246975899
120.0,0.03947514668107033
128.0,0.03739902004599571
144.0,0.033996716141700745
160.0,0.03174339607357979
176.0,0.03001091070473194
192.0,0.028632009401917458
208.0,0.028000282123684883
224.0,0.0266009122133255
240.0,0.025671375915408134
256.0,0.025642680004239082
288.0,0.02586137130856514
320.0,0.022684959694743156
352.0,0.019897129386663437
384.0,0.018833575770258904
416.0,0.017242541536688805
448.0,0.017320649698376656
480.0,0.01644883304834366
512.0,0.015911873430013657
576.0,0.014921595342457294
640.0,0.015015236102044582
704.0,0.014195498079061508
768.0,0.01075888890773058
832.0,0.005624989978969097
896.0,-0.0009686693665571511
960.0,-0.006517062429338694
1024.0,-0.0062732091173529625
1152.0,-0.007100959308445454
1280.0,-0.007144642528146505
1408.0,-0.002006740542128682
1536.0,-0.004863743204623461
1664.0,-0.005721481051295996
1792.0,0.0032590811606496572
1920.0,0.00876875314861536
2048.0,0.014114695601165295
2304.0,0.014692953787744045
2560.0,0.009514756500720978
2816.0,0.005867509171366692
3072.0,-0.00555588910356164
3328.0,-0.007083319127559662
3584.0,-0.025021927431225777
3840.0,-0.024094104766845703
4096.0,-0.024965105578303337
4608.0,-0.01597917452454567
5120.0,-0.0052984319627285
5632.0,-0.001484278473071754
6144.0,-0.01450714934617281
6656.0,-0.019192896783351898
7168.0,0.0023806386161595583
7680.0,0.009473660960793495
8192.0,-0.0015649298438802361
end
