version,3.0
numOfCh,1
type,point
parent_name,34766_0dot069-0dot1
ch_type,1_1
kcount,1
numberNandB,1
brightnessNandB,1
carpet pos,0
pc,0
Time (ms),CH1 Auto-Correlation
1.0,0.059893421828746796
2.0,0.059061430394649506
3.0,0.058206599205732346
4.0,0.057288896292448044
5.0,0.056679464876651764
6.0,0.056073691695928574
7.0,0.055537689477205276
8.0,0.05506451055407524
9.0,0.05457116290926933
10.0,0.054083745926618576
11.0,0.05359531566500664
12.0,0.05310487747192383
13.0,0.05258926749229431
14.0,0.052143897861242294
15.0,0.05168414115905762
16.0,0.05121805891394615
18.0,0.05038750171661377
20.0,0.04955345764756203
22.0,0.04876848682761192
24.0,0.048017147928476334
26.0,0.04731307551264763
28.0,0.046657923609018326
30.0,0.04595634713768959
32.0,0.04518699645996094
36.0,0.043488092720508575
40.0,0.041788097470998764
44.0,0.04021160677075386
48.0,0.03885211423039436
52.0,0.03761045262217522
56.0,0.036195654422044754
60.0,0.0348479188978672
64.0,0.03365963697433472
72.0,0.031419627368450165
80.0,0.029537683352828026
88.0,0.027921758592128754
96.0,0.0263933464884758
104.0,0.025016285479068756
112.0,0.024088479578495026
120.0,0.023259101435542107
128.0,0.02254009060561657
144.0,0.02144235372543335
160.0,0.020088667050004005
176.0,0.018726767972111702
192.0,0.017709223553538322
208.0,0.016885090619325638
224.0,0.01615239307284355
240.0,0.015657611191272736
256.0,0.01486125122755766
288.0,0.01279620174318552
320.0,0.009536304511129856
352.0,0.005657766479998827
384.0,0.0028397697024047375
416.0,0.002029471332207322
448.0,0.0007616074290126562
480.0,-0.0007781637832522392
512.0,-0.002941473852843046
576.0,-0.005690068006515503
640.0,-0.007618370465934277
704.0,-0.009849563241004944
768.0,-0.00859742984175682
832.0,-0.010448559187352657
896.0,-0.012352557852864265
960.0,-0.011847944930195808
1024.0,-0.008899210020899773
1152.0,-0.005355969071388245
1280.0,-0.00514988275244832
1408.0,-0.010367539711296558
1536.0,-0.005671689286828041
1664.0,-0.005214232951402664
1792.0,-0.005994100589305162
1920.0,-0.005175446625798941
2048.0,-0.002831640187650919
2304.0,0.0015196215827018023
2560.0,0.004707211162894964
2816.0,0.005362992640584707
3072.0,0.0038105815183371305
3328.0,0.0032395673915743828
3584.0,-0.0036719385534524918
3840.0,-0.006174895912408829
4096.0,-0.004835843108594418
4608.0,-0.0001643108407733962
5120.0,0.00648189801722765
5632.0,0.001351972809061408
6144.0,0.002130236243829131
6656.0,-0.0061890301294624805
7168.0,-0.006501603405922651
7680.0,-0.0008315337472595274
8192.0,0.01403261348605156
end
