version,3.0
numOfCh,1
type,point
parent_name,34766_0dot069-0dot1
ch_type,1_1
kcount,1
numberNandB,1
brightnessNandB,1
carpet pos,0
pc,0
Time (ms),CH1 Auto-Correlation
1.0,0.06609257310628891
2.0,0.06542085856199265
3.0,0.06480063498020172
4.0,0.06421291828155518
5.0,0.06364912539720535
6.0,0.0630955770611763
7.0,0.06255187839269638
8.0,0.062040429562330246
9.0,0.061570167541503906
10.0,0.061089012771844864
11.0,0.06061609834432602
12.0,0.060147128999233246
13.0,0.05971498787403107
14.0,0.059266816824674606
15.0,0.05883915722370148
16.0,0.05841284245252609
18.0,0.0576242171227932
20.0,0.056854210793972015
22.0,0.056079063564538956
24.0,0.05533008649945259
26.0,0.054565638303756714
28.0,0.05381283536553383
30.0,0.05309955030679703
32.0,0.0524454340338707
36.0,0.05132056400179863
40.0,0.05031082034111023
44.0,0.04928063973784447
48.0,0.04829654097557068
52.0,0.0473502017557621
56.0,0.04645846411585808
60.0,0.04566521942615509
64.0,0.04483206942677498
72.0,0.043149299919605255
80.0,0.04162931069731712
88.0,0.04028179496526718
96.0,0.0388249047100544
104.0,0.03721878305077553
112.0,0.036034394055604935
120.0,0.03502687066793442
128.0,0.034003015607595444
144.0,0.03233606740832329
160.0,0.0306756142526865
176.0,0.028275925666093826
192.0,0.0259341262280941
208.0,0.024191688746213913
224.0,0.02264549396932125
240.0,0.021248137578368187
256.0,0.020009059458971024
288.0,0.017923295497894287
320.0,0.015285540372133255
352.0,0.012283475138247013
384.0,0.009754639118909836
416.0,0.00751060014590621
448.0,0.006158520933240652
480.0,0.005764089059084654
512.0,0.006738491356372833
576.0,0.006320966873317957
640.0,0.005748255178332329
704.0,0.00512475473806262
768.0,0.00740219047293067
832.0,0.0072728232480585575
896.0,0.006597341503947973
960.0,0.007310015149414539
1024.0,0.007264783140271902
1152.0,0.007153253071010113
1280.0,0.007619993295520544
1408.0,0.004995335359126329
1536.0,0.001846296596340835
1664.0,0.00024198097526095808
1792.0,0.0034063977655023336
1920.0,0.008318059146404266
2048.0,0.00911154504865408
2304.0,-0.005376855842769146
2560.0,-0.012666922062635422
2816.0,-0.008022823370993137
3072.0,-0.0011747039388865232
3328.0,-0.003590324893593788
3584.0,-0.008484002202749252
3840.0,-0.0047259218990802765
4096.0,-0.0004949974245391786
4608.0,-0.008534695953130722
5120.0,0.004610056523233652
5632.0,-0.012024974450469017
6144.0,-0.01729442924261093
6656.0,-0.013081192970275879
7168.0,-0.0002685879881028086
7680.0,-0.014506025239825249
8192.0,-0.008811190724372864
end
