version,3.0
numOfCh,1
type,point
parent_name,34766_0dot069-0dot1
ch_type,1_1
kcount,1
numberNandB,1
brightnessNandB,1
carpet pos,0
pc,0
Time (ms),CH1 Auto-Correlation
1.0,0.05091390013694763
2.0,0.050474103540182114
3.0,0.05004168674349785
4.0,0.049629926681518555
5.0,0.049216169863939285
6.0,0.048808783292770386
7.0,0.04840551316738129
8.0,0.04800006374716759
9.0,0.047593433409929276
10.0,0.04718037694692612
11.0,0.046757668256759644
12.0,0.046349551528692245
13.0,0.04594673216342926
14.0,0.045558180660009384
15.0,0.04518862068653107
16.0,0.044820427894592285
18.0,0.044114816933870316
20.0,0.04339960962533951
22.0,0.0426788404583931
24.0,0.04198988899588585
26.0,0.041312169283628464
28.0,0.04066702723503113
30.0,0.04004581645131111
32.0,0.0394182950258255
36.0,0.03830130770802498
40.0,0.03720519691705704
44.0,0.03616061434149742
48.0,0.035153090953826904
52.0,0.034138381481170654
56.0,0.03321376442909241
60.0,0.03238367661833763
64.0,0.031578179448843
72.0,0.029982801526784897
80.0,0.028515847399830818
88.0,0.02730964496731758
96.0,0.02642659842967987
104.0,0.025598976761102676
112.0,0.024752222001552582
120.0,0.023898884654045105
128.0,0.022946199402213097
144.0,0.020964356139302254
160.0,0.019201820716261864
176.0,0.018118491396307945
192.0,0.017856093123555183
208.0,0.017933527007699013
224.0,0.017780480906367302
240.0,0.01761094108223915
256.0,0.017283970490098
288.0,0.01656092330813408
320.0,0.016099805012345314
352.0,0.01621580310165882
384.0,0.01619923673570156
416.0,0.015670781955122948
448.0,0.014562034979462624
480.0,0.012202459387481213
512.0,0.009120997041463852
576.0,0.003389466553926468
640.0,0.0006357765523716807
704.0,-4.266087216819869e-06
768.0,-0.00026778579922392964
832.0,0.0007888606050983071
896.0,0.0005640267627313733
960.0,-0.0018642093054950237
1024.0,-0.0017986168386414647
1152.0,-0.001636297325603664
1280.0,0.0007349287043325603
1408.0,0.004914444405585527
1536.0,0.006937948055565357
1664.0,0.004184443037956953
1792.0,0.01057812012732029
1920.0,0.010863141156733036
2048.0,0.008700218982994556
2304.0,0.004920316394418478
2560.0,0.0014810358406975865
2816.0,0.0008883622940629721
3072.0,0.004010340198874474
3328.0,0.00790458545088768
3584.0,0.004183576907962561
3840.0,-0.004323133267462254
4096.0,-0.008612427860498428
4608.0,-0.002078736200928688
5120.0,0.000579360406845808
5632.0,-0.001304325764067471
6144.0,-0.004951958544552326
6656.0,0.00045552157098427415
7168.0,-0.01354894693940878
7680.0,-0.013303713873028755
8192.0,-0.0037117854226380587
end
