version,3.0
numOfCh,1
type,point
parent_name,34766_0dot069-0dot1
ch_type,1_1
kcount,1
numberNandB,1
brightnessNandB,1
carpet pos,0
pc,0
Time (ms),CH1 Auto-Correlation
1.0,0.07052277028560638
2.0,0.06969231367111206
3.0,0.06891831755638123
4.0,0.06815961003303528
5.0,0.06742654740810394
6.0,0.06673124432563782
7.0,0.0660344809293747
8.0,0.06541544198989868
9.0,0.06476043909788132
10.0,0.06415756046772003
11.0,0.0635741651058197
12.0,0.06300423294305801
13.0,0.06249188259243965
14.0,0.06199974939227104
15.0,0.0615093857049942
16.0,0.06104201450943947
18.0,0.060130953788757324
20.0,0.05924580246210098
22.0,0.058365434408187866
24.0,0.05742979422211647
26.0,0.056533459573984146
28.0,0.055749811232089996
30.0,0.0548880398273468
32.0,0.054093845188617706
36.0,0.052595581859350204
40.0,0.051334723830223083
44.0,0.05011406168341637
48.0,0.04887711629271507
52.0,0.04776601493358612
56.0,0.04673363268375397
60.0,0.04587063193321228
64.0,0.04492708295583725
72.0,0.042943451553583145
80.0,0.0414135716855526
88.0,0.03989265114068985
96.0,0.03832755237817764
104.0,0.03694580867886543
112.0,0.035506974905729294
120.0,0.03376782685518265
128.0,0.032243531197309494
144.0,0.02963131293654442
160.0,0.02683945558965206
176.0,0.023642046377062798
192.0,0.020676802843809128
208.0,0.019157977774739265
224.0,0.017544686794281006
240.0,0.015574648976325989
256.0,0.012966586276888847
288.0,0.009274732321500778
320.0,0.0060355099849402905
352.0,0.001575360307469964
384.0,-0.0007409718818962574
416.0,-0.00058299012016505
448.0,-0.00020648108329623938
480.0,-0.0010490656131878495
512.0,2.6763502319226973e-05
576.0,0.005346955265849829
640.0,0.009637542068958282
704.0,0.011790577322244644
768.0,0.012846211902797222
832.0,0.01125685777515173
896.0,0.007386329118162394
960.0,0.0020318401511758566
1024.0,-0.0032870618160814047
1152.0,-0.0070113930851221085
1280.0,-0.0037584458477795124
1408.0,-0.0002892370102927089
1536.0,7.489336712751538e-05
1664.0,0.0010195740032941103
1792.0,-0.003997690975666046
1920.0,-0.007431467995047569
2048.0,-0.003994871396571398
2304.0,-0.007593458518385887
2560.0,-0.009857703000307083
2816.0,-0.004491722676903009
3072.0,-0.00017159506387542933
3328.0,-0.0056407819502055645
3584.0,-0.0031776283867657185
3840.0,-0.003543693106621504
4096.0,-0.011722087860107422
4608.0,0.0036789660807698965
5120.0,0.02002098597586155
5632.0,0.00949761364609003
6144.0,0.001165752881206572
6656.0,-0.005675613880157471
7168.0,-0.0006630388088524342
7680.0,-0.015138121321797371
8192.0,-0.008011543191969395
end
