version,3.0
numOfCh,1
type,point
parent_name,34766_0dot069-0dot1
ch_type,1_1
kcount,1
numberNandB,1
brightnessNandB,1
carpet pos,0
pc,0
Time (ms),CH1 Auto-Correlation
1.0,0.05594123527407646
2.0,0.05538357049226761
3.0,0.0548289529979229
4.0,0.054274797439575195
5.0,0.053731128573417664
6.0,0.05321669951081276
7.0,0.05271574482321739
8.0,0.052253976464271545
9.0,0.051783546805381775
10.0,0.05131606012582779
11.0,0.05088239163160324
12.0,0.050435662269592285
13.0,0.05000251531600952
14.0,0.04957164451479912
15.0,0.04914466291666031
16.0,0.048717986792325974
18.0,0.04785918816924095
20.0,0.047017693519592285
22.0,0.04620081186294556
24.0,0.04537524655461311
26.0,0.0445721410214901
28.0,0.04380092769861221
30.0,0.04310671612620354
32.0,0.04247090592980385
36.0,0.04128893092274666
40.0,0.04007091373205185
44.0,0.038824573159217834
48.0,0.03764733672142029
52.0,0.03653622418642044
56.0,0.035395316779613495
60.0,0.034263718873262405
64.0,0.03313690423965454
72.0,0.03106914833188057
80.0,0.02920038066804409
88.0,0.02765394002199173
96.0,0.026238691061735153
104.0,0.024739835411310196
112.0,0.02314688079059124
120.0,0.021701090037822723
128.0,0.020418699830770493
144.0,0.017835738137364388
160.0,0.015236149542033672
176.0,0.013242136687040329
192.0,0.01152075920253992
208.0,0.010000195354223251
224.0,0.008568872697651386
240.0,0.007602223660796881
256.0,0.007174297235906124
288.0,0.008116098120808601
320.0,0.009034407325088978
352.0,0.008413027971982956
384.0,0.007489796727895737
416.0,0.006573430262506008
448.0,0.005365205463021994
480.0,0.005300563294440508
512.0,0.005290592554956675
576.0,0.0048547848127782345
640.0,0.005093926098197699
704.0,0.0032674968242645264
768.0,0.0005805253749713302
832.0,-0.0010086949914693832
896.0,-0.00103555538225919
960.0,-0.000272934150416404
1024.0,-0.0022724722512066364
1152.0,-0.004507062025368214
1280.0,-0.0019787843339145184
1408.0,0.0002755100722424686
1536.0,-0.0018940912559628487
1664.0,-0.003953686915338039
1792.0,-0.006531043443828821
1920.0,-0.004947970621287823
2048.0,-0.006354628596454859
2304.0,-0.006958463229238987
2560.0,-0.0041627464815974236
2816.0,-0.0008909081807360053
3072.0,-0.0029051064047962427
3328.0,-0.0017036969074979424
3584.0,-0.003045391058549285
3840.0,0.003442535176873207
4096.0,0.005971276666969061
4608.0,0.005871645640581846
5120.0,-0.0013107933336868882
5632.0,0.0032948902808129787
6144.0,0.0012364097638055682
6656.0,-0.006203788332641125
7168.0,-0.0038966271094977856
7680.0,-0.004343266598880291
8192.0,-0.0005129026249051094
end
