version,3.0
numOfCh,1
type,point
parent_name,34766_0dot069-0dot1
ch_type,1_1
kcount,1
numberNandB,1
brightnessNandB,1
carpet pos,0
pc,0
Time (ms),CH1 Auto-Correlation
1.0,0.04840729758143425
2.0,0.047938913106918335
3.0,0.04748501628637314
4.0,0.04703063890337944
5.0,0.04658747836947441
6.0,0.04616301506757736
7.0,0.04577137902379036
8.0,0.04538652300834656
9.0,0.04500269889831543
10.0,0.044643864035606384
11.0,0.044273778796195984
12.0,0.04392508789896965
13.0,0.04356207326054573
14.0,0.04320524260401726
15.0,0.04286457970738411
16.0,0.042524512857198715
18.0,0.04188913106918335
20.0,0.0412524975836277
22.0,0.04064180701971054
24.0,0.0400378592312336
26.0,0.03949347883462906
28.0,0.03894313424825668
30.0,0.03844043239951134
32.0,0.037967897951602936
36.0,0.03707027807831764
40.0,0.03614019602537155
44.0,0.03527681156992912
48.0,0.03441252186894417
52.0,0.03353817015886307
56.0,0.03273152932524681
60.0,0.032012682408094406
64.0,0.0312894731760025
72.0,0.02988608181476593
80.0,0.02861960232257843
88.0,0.027580855414271355
96.0,0.02677897922694683
104.0,0.026033762842416763
112.0,0.02523723430931568
120.0,0.02442670799791813
128.0,0.023731330409646034
144.0,0.022276928648352623
160.0,0.020611591637134552
176.0,0.018973901867866516
192.0,0.01742028258740902
208.0,0.016141120344400406
224.0,0.014731556177139282
240.0,0.013325609266757965
256.0,0.012357925996184349
288.0,0.010411920957267284
320.0,0.007836801931262016
352.0,0.006576133891940117
384.0,0.0060852570459246635
416.0,0.005869525484740734
448.0,0.004995927680283785
480.0,0.004564447328448296
512.0,0.00394646218046546
576.0,0.004247961565852165
640.0,0.007684146519750357
704.0,0.012397521175444126
768.0,0.013368571177124977
832.0,0.012327893637120724
896.0,0.011192841455340385
960.0,0.00955178402364254
1024.0,0.007838676683604717
1152.0,0.004976951517164707
1280.0,-0.0006350117037072778
1408.0,-0.00040386596811003983
1536.0,0.003736716229468584
1664.0,0.0034874402917921543
1792.0,0.002154341898858547
1920.0,0.0015069307992234826
2048.0,0.00031402232707478106
2304.0,-0.004078993108123541
2560.0,-0.007844021543860435
2816.0,-0.008687824942171574
3072.0,-0.005573138128966093
3328.0,-0.006937945727258921
3584.0,-0.013160651549696922
3840.0,-0.007454589009284973
4096.0,-0.005062033887952566
4608.0,0.0030864784494042397
5120.0,-0.0026502327527850866
5632.0,-0.0025849908124655485
6144.0,-0.0021782403346151114
6656.0,-0.0038691156078130007
7168.0,-0.00019134925969410688
7680.0,0.007478410378098488
8192.0,0.009762641973793507
end
