version,3.0
numOfCh,1
type,point
parent_name,34766_0dot069-0dot1
ch_type,1_1
kcount,1
numberNandB,1
brightnessNandB,1
carpet pos,0
pc,0
Time (ms),CH1 Auto-Correlation
1.0,0.07389294356107712
2.0,0.07302948087453842
3.0,0.07221373170614243
4.0,0.071488156914711
5.0,0.07073754817247391
6.0,0.07008734345436096
7.0,0.06948843598365784
8.0,0.06891489028930664
9.0,0.06832786649465561
10.0,0.06781189143657684
11.0,0.06730761379003525
12.0,0.06683481484651566
13.0,0.066354900598526
14.0,0.06590335816144943
15.0,0.06546180695295334
16.0,0.06507213413715363
18.0,0.06433136761188507
20.0,0.06354926526546478
22.0,0.06272947788238525
24.0,0.06190836429595947
26.0,0.061105065047740936
28.0,0.06034833565354347
30.0,0.05966651067137718
32.0,0.058945346623659134
36.0,0.05769188329577446
40.0,0.05658005550503731
44.0,0.0553278848528862
48.0,0.05404013395309448
52.0,0.052760303020477295
56.0,0.05165797844529152
60.0,0.05062858387827873
64.0,0.04974480718374252
72.0,0.04824914410710335
80.0,0.04701490327715874
88.0,0.04562263935804367
96.0,0.04416707158088684
104.0,0.04275679215788841
112.0,0.041295818984508514
120.0,0.03984551131725311
128.0,0.038666900247335434
144.0,0.03631509095430374
160.0,0.03404479846358299
176.0,0.03181988745927811
192.0,0.029195137321949005
208.0,0.02611602656543255
224.0,0.022663159295916557
240.0,0.019402578473091125
256.0,0.016516417264938354
288.0,0.012421011924743652
320.0,0.009966665878891945
352.0,0.008620506152510643
384.0,0.006691284943372011
416.0,0.004876039456576109
448.0,0.0035709827207028866
480.0,0.002344355685636401
512.0,0.001898758695460856
576.0,-0.00023265417257789522
640.0,-0.005003299564123154
704.0,-0.009086129255592823
768.0,-0.012388856150209904
832.0,-0.012647935189306736
896.0,-0.010570316575467587
960.0,-0.007104531861841679
1024.0,-0.003482723841443658
1152.0,0.003339330432936549
1280.0,0.0037902765907347202
1408.0,-0.004936538636684418
1536.0,-0.013764596544206142
1664.0,-0.01946532540023327
1792.0,-0.02232925035059452
1920.0,-0.02133871428668499
2048.0,-0.016416454687714577
2304.0,0.004095347132533789
2560.0,0.008497312664985657
2816.0,0.013779239729046822
3072.0,0.006582250352948904
3328.0,0.011012756265699863
3584.0,-0.0010973456082865596
3840.0,-0.002907045418396592
4096.0,-0.004226188641041517
4608.0,-0.006606660317629576
5120.0,-0.0045722597278654575
5632.0,0.00586292427033186
6144.0,-0.005670516286045313
6656.0,-0.0044553764164447784
7168.0,-0.009083866141736507
7680.0,-0.003968596458435059
8192.0,0.009679955430328846
end
