version,3.0
numOfCh,1
type,point
parent_name,34766_0dot069-0dot1
ch_type,1_1
kcount,1
numberNandB,1
brightnessNandB,1
carpet pos,0
pc,0
Time (ms),CH1 Auto-Correlation
1.0,0.05866182968020439
2.0,0.0581744983792305
3.0,0.05770892649888992
4.0,0.05725690722465515
5.0,0.05681387335062027
6.0,0.05637945234775543
7.0,0.055961478501558304
8.0,0.055550433695316315
9.0,0.05514907464385033
10.0,0.05474322661757469
11.0,0.05433880537748337
12.0,0.053944505751132965
13.0,0.053552232682704926
14.0,0.053166113793849945
15.0,0.052781201899051666
16.0,0.052406471222639084
18.0,0.05167876183986664
20.0,0.050969939678907394
22.0,0.050278712064027786
24.0,0.049631427973508835
26.0,0.049018681049346924
28.0,0.04840267822146416
30.0,0.04779236391186714
32.0,0.047142647206783295
36.0,0.04591187834739685
40.0,0.044815242290496826
44.0,0.04374084994196892
48.0,0.04271440953016281
52.0,0.041790805757045746
56.0,0.04091155156493187
60.0,0.040059175342321396
64.0,0.03922083228826523
72.0,0.037706613540649414
80.0,0.036501072347164154
88.0,0.03551960736513138
96.0,0.034586045891046524
104.0,0.03371551260352135
112.0,0.03299308568239212
120.0,0.032222215086221695
128.0,0.03137584030628204
144.0,0.030099622905254364
160.0,0.028696557506918907
176.0,0.027174746617674828
192.0,0.02566293068230152
208.0,0.024617478251457214
224.0,0.023015810176730156
240.0,0.022202441468834877
256.0,0.02194366045296192
288.0,0.02071741595864296
320.0,0.019562050700187683
352.0,0.01837434247136116
384.0,0.016738934442400932
416.0,0.014777204021811485
448.0,0.013112791813910007
480.0,0.012207374908030033
512.0,0.011476426385343075
576.0,0.010167359374463558
640.0,0.010120408609509468
704.0,0.010458029806613922
768.0,0.01277071237564087
832.0,0.009746789932250977
896.0,0.0074776033870875835
960.0,0.008473537862300873
1024.0,0.009508016519248486
1152.0,0.009148672223091125
1280.0,0.007707867305725813
1408.0,0.005973989609628916
1536.0,0.006994511466473341
1664.0,0.0028947547543793917
1792.0,-0.0015305283013731241
1920.0,-0.005134414415806532
2048.0,-0.00668529374524951
2304.0,-0.009410103783011436
2560.0,-0.010701310820877552
2816.0,-0.009349927306175232
3072.0,-0.014012492261826992
3328.0,-0.015230669640004635
3584.0,-0.015012787654995918
3840.0,-0.012049900367856026
4096.0,-0.005161529406905174
4608.0,-0.0007614608039148152
5120.0,0.010445958003401756
5632.0,0.01175632979720831
6144.0,0.012260056100785732
6656.0,0.010439080186188221
7168.0,0.0063267857767641544
7680.0,-0.0025243847630918026
8192.0,-0.010183154605329037
end
