version,3.0
numOfCh,1
type,point
parent_name,34766_0dot069-0dot1
ch_type,1_1
kcount,1
numberNandB,1
brightnessNandB,1
carpet pos,0
pc,0
Time (ms),CH1 Auto-Correlation
1.0,0.06460291147232056
2.0,0.06317873299121857
3.0,0.06182979419827461
4.0,0.06043063476681709
5.0,0.05909523740410805
6.0,0.05793625861406326
7.0,0.05674145743250847
8.0,0.0556921660900116
9.0,0.05474488437175751
10.0,0.053843770176172256
11.0,0.05296195298433304
12.0,0.05217001959681511
13.0,0.05130947381258011
14.0,0.050533417612314224
15.0,0.04976969212293625
16.0,0.04898643493652344
18.0,0.047638069838285446
20.0,0.04655757546424866
22.0,0.04555527865886688
24.0,0.04451187327504158
26.0,0.04349898919463158
28.0,0.04239528253674507
30.0,0.04130179062485695
32.0,0.040299080312252045
36.0,0.0385328009724617
40.0,0.03705698624253273
44.0,0.03605811670422554
48.0,0.03519616276025772
52.0,0.034000542014837265
56.0,0.032964035868644714
60.0,0.031977325677871704
64.0,0.031188203021883965
72.0,0.029190607368946075
80.0,0.02796478383243084
88.0,0.02655467391014099
96.0,0.02525274269282818
104.0,0.02399333566427231
112.0,0.0231680478900671
120.0,0.02194877900183201
128.0,0.021056685596704483
144.0,0.020481841638684273
160.0,0.02049502357840538
176.0,0.020223727449774742
192.0,0.019335778430104256
208.0,0.01729046180844307
224.0,0.015275245532393456
240.0,0.014687048271298409
256.0,0.014928655698895454
288.0,0.013517340645194054
320.0,0.011340102180838585
352.0,0.009342220611870289
384.0,0.005074776709079742
416.0,0.0033150333911180496
448.0,0.002685338957235217
480.0,0.0028429303783923388
512.0,0.0028696209192276
576.0,0.0030046182218939066
640.0,0.006021137349307537
704.0,0.011022191494703293
768.0,0.012223807163536549
832.0,0.011329862289130688
896.0,0.014455563388764858
960.0,0.015311920084059238
1024.0,0.015522929839789867
1152.0,0.008051367476582527
1280.0,-0.002653603907674551
1408.0,-0.011028217151761055
1536.0,-0.01077858917415142
1664.0,-0.006686839275062084
1792.0,-0.0022928642574697733
1920.0,-0.002315910765901208
2048.0,-0.002878146478906274
2304.0,-0.01328610721975565
2560.0,-0.014142269268631935
2816.0,-0.009520359337329865
3072.0,-0.012033895589411259
3328.0,-0.01072489283978939
3584.0,-0.00501389941200614
3840.0,-0.004654182121157646
4096.0,-0.004825811833143234
4608.0,0.004577494226396084
5120.0,0.011465402320027351
5632.0,0.007235202006995678
6144.0,0.002406763844192028
6656.0,-0.006870107725262642
7168.0,0.0032628406770527363
7680.0,-0.006623764988034964
8192.0,0.008351818658411503
end
