version,3.0
numOfCh,1
type,point
parent_name,34766_0dot069-0dot1
ch_type,1_1
kcount,1
numberNandB,1
brightnessNandB,1
carpet pos,0
pc,0
Time (ms),CH1 Auto-Correlation
1.0,0.05420386418700218
2.0,0.053709499537944794
3.0,0.053222689777612686
4.0,0.052736274898052216
5.0,0.052241504192352295
6.0,0.05176790431141853
7.0,0.05130286514759064
8.0,0.05085160210728645
9.0,0.05042291805148125
10.0,0.04999731481075287
11.0,0.04957772046327591
12.0,0.04915650933980942
13.0,0.04876068979501724
14.0,0.048352599143981934
15.0,0.0479511097073555
16.0,0.04754988104104996
18.0,0.04675636813044548
20.0,0.04596661776304245
22.0,0.04517699033021927
24.0,0.04438359662890434
26.0,0.04357362538576126
28.0,0.042766273021698
30.0,0.0419633723795414
32.0,0.04117631912231445
36.0,0.03976745158433914
40.0,0.03843668848276138
44.0,0.03717707470059395
48.0,0.036000508815050125
52.0,0.03489997982978821
56.0,0.03379335254430771
60.0,0.0327187106013298
64.0,0.03171415254473686
72.0,0.02981758490204811
80.0,0.028096919879317284
88.0,0.026455609127879143
96.0,0.02495664916932583
104.0,0.02370234951376915
112.0,0.022634590044617653
120.0,0.021837424486875534
128.0,0.021353548392653465
144.0,0.02043844573199749
160.0,0.01973165012896061
176.0,0.019128719344735146
192.0,0.018533283844590187
208.0,0.018392277881503105
224.0,0.01789134554564953
240.0,0.017171280458569527
256.0,0.01665317825973034
288.0,0.015949755907058716
320.0,0.014949223026633263
352.0,0.01344153843820095
384.0,0.01131665613502264
416.0,0.009234989061951637
448.0,0.008472157642245293
480.0,0.00785076804459095
512.0,0.00686610396951437
576.0,0.002884839428588748
640.0,0.0005112658254802227
704.0,-0.0011066199513152242
768.0,-0.0006025158800184727
832.0,0.0013798618456348777
896.0,0.002374288160353899
960.0,0.002469268161803484
1024.0,0.0013853126438334584
1152.0,0.00039106563781388104
1280.0,0.0020496149081736803
1408.0,0.0034248766023665667
1536.0,0.005097218323498964
1664.0,0.005552337504923344
1792.0,0.003325436031445861
1920.0,0.004172875080257654
2048.0,0.004905532114207745
2304.0,0.0008007767028175294
2560.0,-0.0024780507665127516
2816.0,0.0007793460972607136
3072.0,0.005945297423750162
3328.0,0.0023345339577645063
3584.0,-0.0028130689170211554
3840.0,-0.008878927677869797
4096.0,-0.005489393137395382
4608.0,-0.00752397533506155
5120.0,-0.004124981351196766
5632.0,-0.007299470249563456
6144.0,-0.012163788080215454
6656.0,-0.007934289053082466
7168.0,-0.0032527525909245014
7680.0,-0.0019647148437798023
8192.0,-0.006880787666887045
end
