version,3.0
numOfCh,1
type,point
parent_name,34766_0dot069-0dot1
ch_type,1_1
kcount,1
numberNandB,1
brightnessNandB,1
carpet pos,0
pc,0
Time (ms),CH1 Auto-Correlation
1.0,0.06910908967256546
2.0,0.06848686188459396
3.0,0.06786791980266571
4.0,0.06727277487516403
5.0,0.06668011099100113
6.0,0.06611413508653641
7.0,0.06555584073066711
8.0,0.06502256542444229
9.0,0.06451226025819778
10.0,0.06399775296449661
11.0,0.06351566314697266
12.0,0.06304559111595154
13.0,0.06257792562246323
14.0,0.062143485993146896
15.0,0.06170351058244705
16.0,0.061268024146556854
18.0,0.060392946004867554
20.0,0.05951407551765442
22.0,0.058654360473155975
24.0,0.057822663336992264
26.0,0.05701727792620659
28.0,0.05623391643166542
30.0,0.05551432445645332
32.0,0.054824963212013245
36.0,0.05336424708366394
40.0,0.05188918486237526
44.0,0.05052567645907402
48.0,0.0492386631667614
52.0,0.047924257814884186
56.0,0.046584971249103546
60.0,0.04527678340673447
64.0,0.0439688079059124
72.0,0.04179517924785614
80.0,0.039875078946352005
88.0,0.038107674568891525
96.0,0.03633500263094902
104.0,0.034629520028829575
112.0,0.03324589505791664
120.0,0.031893059611320496
128.0,0.030686471611261368
144.0,0.028469929471611977
160.0,0.02652590163052082
176.0,0.024449046701192856
192.0,0.022841807454824448
208.0,0.021591760218143463
224.0,0.020737625658512115
240.0,0.01943165622651577
256.0,0.018205495551228523
288.0,0.016875628381967545
320.0,0.015474420972168446
352.0,0.013521624729037285
384.0,0.011048171669244766
416.0,0.00913170725107193
448.0,0.008290196768939495
480.0,0.008978012949228287
512.0,0.011157658882439137
576.0,0.010651717893779278
640.0,0.006289254408329725
704.0,0.004509338177740574
768.0,0.004843469709157944
832.0,0.00629173219203949
896.0,0.006963194347918034
960.0,0.006827873177826405
1024.0,0.0072714886628091335
1152.0,0.0024882645811885595
1280.0,-0.003200193867087364
1408.0,-0.005763573572039604
1536.0,-0.010088250041007996
1664.0,-0.009456969797611237
1792.0,-0.013146908022463322
1920.0,-0.012530016712844372
2048.0,-0.009590348228812218
2304.0,-0.016589829698204994
2560.0,-0.014424599707126617
2816.0,-0.009574473835527897
3072.0,-0.007005252875387669
3328.0,-0.009732970036566257
3584.0,-0.011697581969201565
3840.0,-0.011081093922257423
4096.0,0.002561379224061966
4608.0,0.007507020607590675
5120.0,0.00653137406334281
5632.0,0.015219039283692837
6144.0,0.005985438358038664
6656.0,-0.005858149845153093
7168.0,-0.012629781849682331
7680.0,-0.0104299895465374
8192.0,-0.0009441865258850157
end
