version,3.0
numOfCh,1
type,point
parent_name,34766_0dot069-0dot1
ch_type,1_1
kcount,1
numberNandB,1
brightnessNandB,1
carpet pos,0
pc,0
Time (ms),CH1 Auto-Correlation
1.0,0.06754676252603531
2.0,0.06700516492128372
3.0,0.06645330786705017
4.0,0.0659169852733612
5.0,0.06541232019662857
6.0,0.06490161269903183
7.0,0.06436409801244736
8.0,0.06383046507835388
9.0,0.06330866366624832
10.0,0.06277646124362946
11.0,0.062271229922771454
12.0,0.061780937016010284
13.0,0.06129159778356552
14.0,0.060804374516010284
15.0,0.06032172590494156
16.0,0.059843357652425766
18.0,0.05898270010948181
20.0,0.05816902592778206
22.0,0.057389844208955765
24.0,0.05665188282728195
26.0,0.05593496561050415
28.0,0.05524866282939911
30.0,0.05460180342197418
32.0,0.053938351571559906
36.0,0.052692100405693054
40.0,0.05151698738336563
44.0,0.05046724155545235
48.0,0.04946373775601387
52.0,0.0485285259783268
56.0,0.04762265086174011
60.0,0.04674909636378288
64.0,0.04599752649664879
72.0,0.044589873403310776
80.0,0.043333444744348526
88.0,0.04204040393233299
96.0,0.04101647064089775
104.0,0.04021056741476059
112.0,0.03933616355061531
120.0,0.038591887801885605
128.0,0.03798142448067665
144.0,0.035772498697042465
160.0,0.03372274339199066
176.0,0.03259364143013954
192.0,0.031266484409570694
208.0,0.02942093275487423
224.0,0.027781911194324493
240.0,0.02670952118933201
256.0,0.026042694225907326
288.0,0.02464744821190834
320.0,0.023562785238027573
352.0,0.022176938131451607
384.0,0.02083575911819935
416.0,0.019753344357013702
448.0,0.018044259399175644
480.0,0.016214214265346527
512.0,0.013958532363176346
576.0,0.009716501459479332
640.0,0.0062634567730128765
704.0,0.003230444388464093
768.0,0.00027180358301848173
832.0,-0.0018043291056528687
896.0,-0.0022493668366223574
960.0,-0.003233925439417362
1024.0,-0.004406262189149857
1152.0,-0.004708385560661554
1280.0,-0.0028801443986594677
1408.0,-0.005752197466790676
1536.0,-0.007123319897800684
1664.0,-0.007985979318618774
1792.0,-0.01254414301365614
1920.0,-0.016103222966194153
2048.0,-0.018275544047355652
2304.0,-0.01959832012653351
2560.0,-0.012325845658779144
2816.0,-0.014173652976751328
3072.0,-0.01029074564576149
3328.0,-0.0070445481687784195
3584.0,0.0023711586836725473
3840.0,0.013866438530385494
4096.0,0.019725840538740158
4608.0,0.016165804117918015
5120.0,0.00452661095187068
5632.0,-0.0017594513483345509
6144.0,-0.00573307741433382
6656.0,-0.0032246271148324013
7168.0,-0.011786633171141148
7680.0,-0.008757988922297955
8192.0,0.0027287888806313276
end
