version,3.0
numOfCh,1
type,point
parent_name,34766_0dot069-0dot1
ch_type,1_1
kcount,1
numberNandB,1
brightnessNandB,1
carpet pos,0
pc,0
Time (ms),CH1 Auto-Correlation
1.0,0.06044017896056175
2.0,0.05992988869547844
3.0,0.05944191664457321
4.0,0.05897779390215874
5.0,0.05851839855313301
6.0,0.05808508023619652
7.0,0.05766656994819641
8.0,0.05725563317537308
9.0,0.05687218904495239
10.0,0.05648990347981453
11.0,0.05611345171928406
12.0,0.05574875324964523
13.0,0.05538462474942207
14.0,0.05503469705581665
15.0,0.0546780563890934
16.0,0.05431966483592987
18.0,0.05364447832107544
20.0,0.05299779772758484
22.0,0.05239137262105942
24.0,0.05176685005426407
26.0,0.05113203078508377
28.0,0.050507716834545135
30.0,0.049883585423231125
32.0,0.0492650531232357
36.0,0.04805654659867287
40.0,0.04685528576374054
44.0,0.04563013091683388
48.0,0.04436837136745453
52.0,0.04319881647825241
56.0,0.042134907096624374
60.0,0.04118688777089119
64.0,0.04030914604663849
72.0,0.03869613632559776
80.0,0.03716209903359413
88.0,0.035758256912231445
96.0,0.03449197858572006
104.0,0.033266332000494
112.0,0.0321243554353714
120.0,0.031088057905435562
128.0,0.02998558059334755
144.0,0.02805853635072708
160.0,0.02625356800854206
176.0,0.025040077045559883
192.0,0.02421652525663376
208.0,0.023447426036000252
224.0,0.02297939918935299
240.0,0.022247733548283577
256.0,0.02121748775243759
288.0,0.019517142325639725
320.0,0.01827210932970047
352.0,0.016381602734327316
384.0,0.013599449768662453
416.0,0.011165322735905647
448.0,0.009286001324653625
480.0,0.008318384177982807
512.0,0.006285331677645445
576.0,0.003229543101042509
640.0,0.0015864234883338213
704.0,0.0013894177973270416
768.0,0.0003753974742721766
832.0,-0.0006510335369966924
896.0,-0.0017625772161409259
960.0,-0.001571015571244061
1024.0,-0.0031566713005304337
1152.0,-0.0056202900595963
1280.0,-0.002714821370318532
1408.0,-0.0006014658720232546
1536.0,0.004372163210064173
1664.0,0.009851318784058094
1792.0,0.012076846323907375
1920.0,0.012336554005742073
2048.0,0.007259453646838665
2304.0,-0.0006089367670938373
2560.0,-0.003512029768899083
2816.0,-0.005765150301158428
3072.0,-0.004545640666037798
3328.0,-0.006841277703642845
3584.0,-0.011225334368646145
3840.0,-0.011511719785630703
4096.0,-0.0029507267754524946
4608.0,0.00405846256762743
5120.0,-0.0029960465617477894
5632.0,-0.012032706290483475
6144.0,-0.0008728077518753707
6656.0,0.0002216523716924712
7168.0,-0.015161674469709396
7680.0,-0.010255864821374416
8192.0,0.0011417247587814927
end
