version,3.0
numOfCh,1
type,point
parent_name,34766_0dot069-0dot1
ch_type,1_1
kcount,1
numberNandB,1
brightnessNandB,1
carpet pos,0
pc,0
Time (ms),CH1 Auto-Correlation
1.0,0.04723731800913811
2.0,0.04674404487013817
3.0,0.04626825079321861
4.0,0.04580795019865036
5.0,0.04534032568335533
6.0,0.04487910121679306
7.0,0.044430818408727646
8.0,0.04397178068757057
9.0,0.04354238510131836
10.0,0.043123479932546616
11.0,0.0427166149020195
12.0,0.04232601076364517
13.0,0.04192481189966202
14.0,0.04152197018265724
15.0,0.041112564504146576
16.0,0.040699493139982224
18.0,0.039895039051771164
20.0,0.039102569222450256
22.0,0.03836650773882866
24.0,0.037677641957998276
26.0,0.03701290488243103
28.0,0.03634339198470116
30.0,0.035695917904376984
32.0,0.03503399342298508
36.0,0.03382279723882675
40.0,0.03270600363612175
44.0,0.03160478174686432
48.0,0.03050009347498417
52.0,0.029438184574246407
56.0,0.028485571965575218
60.0,0.027501147240400314
64.0,0.02651592716574669
72.0,0.024703914299607277
80.0,0.0229334719479084
88.0,0.021211013197898865
96.0,0.019556228071451187
104.0,0.018184928223490715
112.0,0.01704344153404236
120.0,0.016050776466727257
128.0,0.015113369561731815
144.0,0.013616979122161865
160.0,0.012658060528337955
176.0,0.011819716542959213
192.0,0.011201691813766956
208.0,0.010542427189648151
224.0,0.01001880131661892
240.0,0.00914751272648573
256.0,0.008005627430975437
288.0,0.005553402006626129
320.0,0.003115887986496091
352.0,0.0022522341459989548
384.0,0.0018229398410767317
416.0,0.001115230144932866
448.0,0.0014870708109810948
480.0,0.002765816170722246
512.0,0.0050906045362353325
576.0,0.0059626721777021885
640.0,0.003390361089259386
704.0,0.0012394285295158625
768.0,0.0027074452955275774
832.0,0.0022569335997104645
896.0,0.00016129341383930296
960.0,-0.0038266063202172518
1024.0,-0.005723109934478998
1152.0,8.60593281686306e-05
1280.0,0.0015039740828797221
1408.0,0.00046871742233633995
1536.0,-0.002326393499970436
1664.0,0.0014684656634926796
1792.0,-0.00020567110914271325
1920.0,-0.003556326497346163
2048.0,-0.004170253407210112
2304.0,-0.0024357528891414404
2560.0,0.0007918666815385222
2816.0,0.00041537644574418664
3072.0,-0.0036637720186263323
3328.0,-0.006388922221958637
3584.0,-0.0024951130617409945
3840.0,-0.0002519486879464239
4096.0,0.0025354870595037937
4608.0,-0.0050479937344789505
5120.0,-0.006809642538428307
5632.0,-0.002858960535377264
6144.0,-0.007081938441842794
6656.0,-0.006481703836470842
7168.0,0.005444129928946495
7680.0,0.006935767363756895
8192.0,0.00468613812699914
end
