version,3.0
numOfCh,1
type,point
parent_name,34766_0dot069-0dot1
ch_type,1_1
kcount,1
numberNandB,1
brightnessNandB,1
carpet pos,0
pc,0
Time (ms),CH1 Auto-Correlation
1.0,0.08367782086133957
2.0,0.08283298462629318
3.0,0.08203557878732681
4.0,0.08131206035614014
5.0,0.0806121826171875
6.0,0.07998085767030716
7.0,0.0793813169002533
8.0,0.0787980854511261
9.0,0.0782008022069931
10.0,0.07759694755077362
11.0,0.07700721174478531
12.0,0.076432965695858
13.0,0.07587048411369324
14.0,0.07530312240123749
15.0,0.07473861426115036
16.0,0.07416936010122299
18.0,0.07310295850038528
20.0,0.07207761704921722
22.0,0.07104138284921646
24.0,0.06998898088932037
26.0,0.06893794238567352
28.0,0.06794130802154541
30.0,0.0669495016336441
32.0,0.06602495163679123
36.0,0.06425486505031586
40.0,0.06261515617370605
44.0,0.061281900852918625
48.0,0.059953473508358
52.0,0.05870454013347626
56.0,0.0576266311109066
60.0,0.05643480271100998
64.0,0.05513938143849373
72.0,0.05296077951788902
80.0,0.051184721291065216
88.0,0.04955426976084709
96.0,0.047660309821367264
104.0,0.045695941895246506
112.0,0.0439794547855854
120.0,0.04228227958083153
128.0,0.0406821183860302
144.0,0.03848369047045708
160.0,0.0358816534280777
176.0,0.03276091814041138
192.0,0.03061060421168804
208.0,0.028957882896065712
224.0,0.027688749134540558
240.0,0.026017092168331146
256.0,0.02364025078713894
288.0,0.019798731431365013
320.0,0.017633046954870224
352.0,0.01624475233256817
384.0,0.015566912479698658
416.0,0.014311663806438446
448.0,0.013700056821107864
480.0,0.01283259131014347
512.0,0.011816254816949368
576.0,0.008113645017147064
640.0,0.0043645985424518585
704.0,0.0025199628435075283
768.0,0.004892105236649513
832.0,0.004747156053781509
896.0,0.0023268824443221092
960.0,-0.0019942577928304672
1024.0,-0.006106266286224127
1152.0,-0.005204868037253618
1280.0,-0.001737811602652073
1408.0,0.008301826193928719
1536.0,0.011889083310961723
1664.0,0.015060525387525558
1792.0,0.010876226238906384
1920.0,0.004573214799165726
2048.0,0.0025114109739661217
2304.0,0.004730946850031614
2560.0,-0.0033075695391744375
2816.0,-0.01164991781115532
3072.0,-0.0008704822976142168
3328.0,0.006109936162829399
3584.0,-0.002630513394251466
3840.0,0.011843327432870865
4096.0,0.006234267260879278
4608.0,-0.017633769661188126
5120.0,-0.018567170947790146
5632.0,-0.012653623707592487
6144.0,-0.007614457979798317
6656.0,-0.007432224694639444
7168.0,-0.0010804332559928298
7680.0,-0.0065559702925384045
8192.0,-0.008633947931230068
end
