version,3.0
numOfCh,1
type,point
parent_name,34766_0dot069-0dot1
ch_type,1_1
kcount,1
numberNandB,1
brightnessNandB,1
carpet pos,0
pc,0
Time (ms),CH1 Auto-Correlation
1.0,0.05222927778959274
2.0,0.05162249878048897
3.0,0.05105204880237579
4.0,0.05046139657497406
5.0,0.04990547150373459
6.0,0.04937759414315224
7.0,0.048815879970788956
8.0,0.048297278583049774
9.0,0.047819074243307114
10.0,0.04733371362090111
11.0,0.04688040539622307
12.0,0.046471379697322845
13.0,0.04606567323207855
14.0,0.04568285122513771
15.0,0.04528637230396271
16.0,0.04491611570119858
18.0,0.04425912722945213
20.0,0.04361917823553085
22.0,0.04298344999551773
24.0,0.04236123338341713
26.0,0.04176086559891701
28.0,0.04116206616163254
30.0,0.04056328162550926
32.0,0.039961762726306915
36.0,0.03873243182897568
40.0,0.03748607262969017
44.0,0.03632764145731926
48.0,0.035341132432222366
52.0,0.03444460779428482
56.0,0.03356882557272911
60.0,0.03268463537096977
64.0,0.031670331954956055
72.0,0.02962905541062355
80.0,0.02801525592803955
88.0,0.026319561526179314
96.0,0.02473900467157364
104.0,0.023333316668868065
112.0,0.021977541968226433
120.0,0.02038726769387722
128.0,0.01877598650753498
144.0,0.016202010214328766
160.0,0.014381065033376217
176.0,0.01307656615972519
192.0,0.012240183539688587
208.0,0.011313355527818203
224.0,0.01041813287883997
240.0,0.009572751820087433
256.0,0.009256567806005478
288.0,0.009844068437814713
320.0,0.01036196481436491
352.0,0.010632186196744442
384.0,0.010339189320802689
416.0,0.009663581848144531
448.0,0.007750270422548056
480.0,0.005914752837270498
512.0,0.004313528537750244
576.0,0.004809452686458826
640.0,0.006587166804820299
704.0,0.007361299358308315
768.0,0.006011100485920906
832.0,0.006245975382626057
896.0,0.005233239848166704
960.0,0.004783935379236937
1024.0,0.00601830892264843
1152.0,0.00795609038323164
1280.0,0.0061638797633349895
1408.0,0.007643398363143206
1536.0,0.010701273567974567
1664.0,0.006771276239305735
1792.0,0.0037087860982865095
1920.0,0.005999908782541752
2048.0,0.008693343959748745
2304.0,0.01486627385020256
2560.0,0.009697613306343555
2816.0,0.0013058293843641877
3072.0,-0.0010760810691863298
3328.0,0.002821733709424734
3584.0,0.005894398782402277
3840.0,0.001759049599058926
4096.0,0.0018351286416873336
4608.0,0.0019086144166067243
5120.0,-0.005550026427954435
5632.0,-0.005302384961396456
6144.0,-0.006504765246063471
6656.0,-0.010198794305324554
7168.0,-0.006191750057041645
7680.0,-0.011252650059759617
8192.0,-0.0091529730707407
end
