version,3.0
numOfCh,1
type,point
parent_name,34766_0dot069-0dot1
ch_type,1_1
kcount,1
numberNandB,1
brightnessNandB,1
carpet pos,0
pc,0
Time (ms),CH1 Auto-Correlation
1.0,0.061553630977869034
2.0,0.061114463955163956
3.0,0.060684118419885635
4.0,0.060250937938690186
5.0,0.05982593446969986
6.0,0.05940544605255127
7.0,0.05898990109562874
8.0,0.05857417359948158
9.0,0.058161765336990356
10.0,0.057752784341573715
11.0,0.0573432520031929
12.0,0.05692245066165924
13.0,0.05650945007801056
14.0,0.05608576536178589
15.0,0.055666644126176834
16.0,0.05523933842778206
18.0,0.05440447852015495
20.0,0.053589385002851486
22.0,0.0528138093650341
24.0,0.05205351486802101
26.0,0.051307521760463715
28.0,0.05055578052997589
30.0,0.04980092495679855
32.0,0.04906535893678665
36.0,0.047686416655778885
40.0,0.04640371724963188
44.0,0.045169856399297714
48.0,0.0439373217523098
52.0,0.04271840304136276
56.0,0.04152427986264229
60.0,0.040397774428129196
64.0,0.03931182995438576
72.0,0.03729921579360962
80.0,0.035494111478328705
88.0,0.03392820060253143
96.0,0.0326085090637207
104.0,0.031456880271434784
112.0,0.03046201728284359
120.0,0.029595889151096344
128.0,0.028805533424019814
144.0,0.02752918004989624
160.0,0.02661999873816967
176.0,0.025545669719576836
192.0,0.02386745810508728
208.0,0.02147982455790043
224.0,0.019156619906425476
240.0,0.01719832420349121
256.0,0.01571558229625225
288.0,0.014161931350827217
320.0,0.01245200540870428
352.0,0.010358614847064018
384.0,0.008209061808884144
416.0,0.005839121527969837
448.0,0.004191106650978327
480.0,0.0033784282859414816
512.0,0.0026194248348474503
576.0,0.0012628883123397827
640.0,0.0019339390564709902
704.0,0.003328001592308283
768.0,0.0025945839006453753
832.0,0.002050976734608412
896.0,0.003736562328413129
960.0,0.003132468555122614
1024.0,0.0008617854909971356
1152.0,-0.003737319726496935
1280.0,-0.005711687263101339
1408.0,-0.007633996196091175
1536.0,-0.006737982388585806
1664.0,-0.00622962974011898
1792.0,-0.008794889785349369
1920.0,-0.0074082184582948685
2048.0,-0.008890442550182343
2304.0,-0.010214246809482574
2560.0,-0.007762542460113764
2816.0,-0.002862695138901472
3072.0,0.0012516716960817575
3328.0,0.0025698349345475435
3584.0,0.0026445859111845493
3840.0,-0.0006701847305521369
4096.0,0.0011265919310972095
4608.0,0.0016080578789114952
5120.0,0.0002878536470234394
5632.0,-0.0030167996883392334
6144.0,-0.003104747738689184
6656.0,-0.00223125284537673
7168.0,-0.008971944451332092
7680.0,-0.009776613675057888
8192.0,0.002764300676062703
end
