version,3.0
numOfCh,1
type,point
parent_name,10-cuts
ch_type,1_1
kcount,1
numberNandB,1
brightnessNandB,1
carpet pos,0
pc,0
Time (ms),CH1 Auto-Correlation
1.0,0.01675613969564438
2.0,0.01378367468714714
3.0,0.011629089713096619
4.0,0.010156010277569294
5.0,0.008997631259262562
6.0,0.008001231588423252
7.0,0.007198928389698267
8.0,0.006539050489664078
9.0,0.006034275516867638
10.0,0.005755176767706871
11.0,0.005468686111271381
12.0,0.005220458377152681
13.0,0.004866256844252348
14.0,0.00457980390638113
15.0,0.00435184920206666
16.0,0.004000123590230942
18.0,0.00351086538285017
20.0,0.003168349852785468
22.0,0.0028639542870223522
24.0,0.0027265772223472595
26.0,0.0024232196155935526
28.0,0.002137508476153016
30.0,0.0020312340930104256
32.0,0.0020440698135644197
36.0,0.0020677524153143167
40.0,0.0021096852142363787
44.0,0.0021932474337518215
48.0,0.0020532694179564714
52.0,0.0017566855531185865
56.0,0.0016358428401872516
60.0,0.0015234964666888118
64.0,0.0013950024731457233
72.0,0.0009071169188246131
80.0,0.0008771170978434384
88.0,0.0006253773462958634
96.0,0.0005687951925210655
104.0,0.0006407956243492663
112.0,0.00046182904043234885
120.0,0.00033867781166918576
128.0,-7.782810280332342e-05
144.0,-0.0004895951133221388
160.0,-8.077443453657907e-06
176.0,4.460917261894792e-05
192.0,-0.00011446273128967732
208.0,0.0005053309723734856
224.0,0.00038674299139529467
240.0,-0.00017381293582729995
256.0,0.0003769763570744544
288.0,-9.983985364669934e-05
320.0,-0.0006767287268303335
352.0,-0.00048183780745603144
384.0,9.989774298446719e-06
416.0,0.0005665740463882685
448.0,0.00066175009123981
480.0,0.00023428504937328398
512.0,0.0004896284663118422
576.0,-0.00028515959274955094
640.0,-0.00045018663513474166
704.0,-0.0007927331607788801
768.0,-0.0008109692134894431
832.0,-0.00034501272602938116
896.0,-0.00032216613180935383
960.0,-0.0008247324731200933
1024.0,-0.0005468286690302193
1152.0,7.556538184871897e-05
1280.0,-4.073340824106708e-05
1408.0,0.0001640186383156106
1536.0,-6.658530764980242e-05
1664.0,0.00037621910450980067
1792.0,0.0005665415665134788
1920.0,0.0003677292261272669
2048.0,0.00044050702126696706
2304.0,-0.0001675952662480995
2560.0,-0.00017092945927288383
2816.0,-0.0006661864463239908
3072.0,0.00010005148942582309
3328.0,8.072824130067602e-05
3584.0,-1.652476748859044e-05
3840.0,0.00022935544257052243
4096.0,-0.00040353715303353965
4608.0,-5.808690548292361e-05
5120.0,0.00031062253401614726
5632.0,-2.788093661365565e-05
6144.0,-0.0002679847530089319
6656.0,0.0001912550796987489
7168.0,0.00024709399440325797
7680.0,-0.0001654524530749768
8192.0,-0.0002472597698215395
9216.0,-6.76298486723681e-06
10240.0,-0.00011761769565055147
11264.0,-4.9998463509837165e-05
12288.0,3.451740849413909e-05
13312.0,8.186110062524676e-05
14336.0,-8.016427455004305e-05
end
