version,3.0
numOfCh,1
type,point
parent_name,10-cuts
ch_type,1_1
kcount,1
numberNandB,1
brightnessNandB,1
carpet pos,0
pc,0
Time (ms),CH1 Auto-Correlation
1.0,0.016849080100655556
2.0,0.013932178728282452
3.0,0.011793679557740688
4.0,0.010164430364966393
5.0,0.00886964425444603
6.0,0.007783548906445503
7.0,0.006911611650139093
8.0,0.006103984080255032
9.0,0.005523236468434334
10.0,0.005126259755343199
11.0,0.0048043392598629
12.0,0.004468039609491825
13.0,0.004261078778654337
14.0,0.004043252673000097
15.0,0.003740719985216856
16.0,0.003489461960271001
18.0,0.003145557828247547
20.0,0.0029876341577619314
22.0,0.002824055729433894
24.0,0.0028320832643657923
26.0,0.0028533935546875
28.0,0.0027155522257089615
30.0,0.0025173414032906294
32.0,0.0023010289296507835
36.0,0.0019484887598082423
40.0,0.0016661568079143763
44.0,0.0014349526027217507
48.0,0.0014092306373640895
52.0,0.0013702110154554248
56.0,0.0012108396040275693
60.0,0.0012384479632601142
64.0,0.0011287463130429387
72.0,0.0007891009445302188
80.0,0.00046786933671683073
88.0,0.0004343012988101691
96.0,0.0005977817345410585
104.0,0.00035221895086579025
112.0,0.0002154483663616702
120.0,0.00022563069069292396
128.0,-6.827693141531199e-05
144.0,-8.994468771561515e-06
160.0,-0.00013494126324076205
176.0,0.00038989746826700866
192.0,1.816981239244342e-05
208.0,9.929875523084775e-05
224.0,4.698161865235306e-05
240.0,0.0003420504799578339
256.0,0.00033718079794198275
288.0,0.0003234893374610692
320.0,0.00022648912272416055
352.0,-6.399169797077775e-05
384.0,1.8495687982067466e-05
416.0,2.8468786695157178e-05
448.0,-0.00013922073412686586
480.0,0.00016661870176903903
512.0,-9.554184362059459e-05
576.0,-0.0003010256332345307
640.0,-0.0003413603117223829
704.0,-0.00013901176862418652
768.0,-0.0002505251904949546
832.0,0.0006323998095467687
896.0,-0.00011450715101091191
960.0,9.164364018943161e-05
1024.0,-0.0003881019074469805
1152.0,1.9018487364519387e-05
1280.0,-0.00013887265231460333
1408.0,-0.00043929697130806744
1536.0,-0.0003488119982648641
1664.0,-0.00018572148110251874
1792.0,4.999205339117907e-05
1920.0,7.984636613400653e-05
2048.0,-5.190285082790069e-05
2304.0,-0.00014388714043889195
2560.0,-6.506760109914467e-05
2816.0,0.00018424572772346437
3072.0,0.00018973126134369522
3328.0,-0.00021958888100925833
3584.0,-0.0002289445692440495
3840.0,0.00014472207112703472
4096.0,-0.000208310826565139
4608.0,0.0001663156144786626
5120.0,0.00023839061032049358
5632.0,4.4372485717758536e-05
6144.0,-0.00031674597994424403
6656.0,-0.00011165426258230582
7168.0,-5.294746006256901e-05
7680.0,0.0003221654624212533
8192.0,3.22958076139912e-05
9216.0,-0.00023563031572848558
10240.0,-0.00017941769328899682
11264.0,-0.00017298758029937744
12288.0,0.00037074327701702714
13312.0,0.0002798024797812104
14336.0,-0.0006296725478023291
end
