version,3.0
numOfCh,1
type,point
parent_name,10-cuts
ch_type,1_1
kcount,1
numberNandB,1
brightnessNandB,1
carpet pos,0
pc,0
Time (ms),CH1 Auto-Correlation
1.0,0.025726838037371635
2.0,0.020851196721196175
3.0,0.017353644594550133
4.0,0.01484557893127203
5.0,0.01274364534765482
6.0,0.011185255832970142
7.0,0.010002536699175835
8.0,0.008961009792983532
9.0,0.008236749097704887
10.0,0.007547407411038876
11.0,0.00694341491907835
12.0,0.006418731063604355
13.0,0.005886350758373737
14.0,0.00545339984819293
15.0,0.005063538905233145
16.0,0.004610522650182247
18.0,0.0040809279307723045
20.0,0.003590227337554097
22.0,0.0031877162400633097
24.0,0.003105701180174947
26.0,0.003185748355463147
28.0,0.0030555531848222017
30.0,0.002765841782093048
32.0,0.0024825362488627434
36.0,0.0016718045808374882
40.0,0.001136591425165534
44.0,0.0006426357431337237
48.0,0.0006015956751070917
52.0,0.0004829677927773446
56.0,0.00038873343146406114
60.0,0.00011562080180738121
64.0,0.0001674550148891285
72.0,0.0003702263638842851
80.0,0.0002007738221436739
88.0,-1.2460885045584291e-05
96.0,0.00017669533553998917
104.0,0.0006033047684468329
112.0,0.0009627148974686861
120.0,0.001382233458571136
128.0,0.0016565177356824279
144.0,0.0008248778176493943
160.0,0.0005850587040185928
176.0,-0.0004999811062589288
192.0,-0.0005608577630482614
208.0,-0.0007079264614731073
224.0,0.00028612767346203327
240.0,-5.450157186714932e-05
256.0,0.00018124745110981166
288.0,-0.0002648628724273294
320.0,-0.0002028347662417218
352.0,0.00041782783227972686
384.0,0.0007929920102469623
416.0,-0.00011612458183662966
448.0,0.00027773965848609805
480.0,0.0001897019101306796
512.0,-0.00024146529904101044
576.0,-0.0007934724562801421
640.0,0.00031136634061113
704.0,-6.684457184746861e-05
768.0,0.00028122204821556807
832.0,-0.00013587910507339984
896.0,4.706359322881326e-05
960.0,-0.0006346885347738862
1024.0,-0.00012199454795336351
1152.0,-0.00010922549699898809
1280.0,0.00017530989134684205
1408.0,-3.923034455510788e-05
1536.0,-0.00022411993995774537
1664.0,-0.0003396542451810092
1792.0,-0.0007526820409111679
1920.0,-0.00029938286752440035
2048.0,-0.00017527688760310411
2304.0,-9.983698691939935e-05
2560.0,-0.0003025024489033967
2816.0,-0.00010836435831151903
3072.0,-0.00035738336737267673
3328.0,0.00029678840655833483
3584.0,0.00037928513484075665
3840.0,-0.00015617703320458531
4096.0,0.00013606839638669044
4608.0,0.00036629781243391335
5120.0,6.422575825126842e-05
5632.0,-0.00021570338867604733
6144.0,-0.0003425124741625041
6656.0,-0.00024909578496590257
7168.0,-4.2245854274369776e-05
7680.0,0.0005556198884733021
8192.0,0.00019643869018182158
9216.0,2.447059341648128e-05
10240.0,-0.00023158403928391635
11264.0,-3.501735773170367e-05
12288.0,0.00024716052575968206
13312.0,-0.0001637573732296005
14336.0,3.1644394766772166e-05
end
