version,3.0
numOfCh,1
type,point
parent_name,10-cuts
ch_type,1_1
kcount,1
numberNandB,1
brightnessNandB,1
carpet pos,0
pc,0
Time (ms),CH1 Auto-Correlation
1.0,0.015364878810942173
2.0,0.01256467867642641
3.0,0.010554948821663857
4.0,0.009072581306099892
5.0,0.00789659470319748
6.0,0.00702499458566308
7.0,0.006380023434758186
8.0,0.005705245304852724
9.0,0.005220186430960894
10.0,0.004811563063412905
11.0,0.004436674527823925
12.0,0.0040573361329734325
13.0,0.003672171849757433
14.0,0.00329174124635756
15.0,0.002945292741060257
16.0,0.002671295078471303
18.0,0.002537913154810667
20.0,0.0024735184852033854
22.0,0.0022502022329717875
24.0,0.0020518642850220203
26.0,0.002009329153224826
28.0,0.0018579006427899003
30.0,0.001681719208136201
32.0,0.0015822738641873002
36.0,0.0015823899302631617
40.0,0.001498247729614377
44.0,0.0013080602511763573
48.0,0.001142063527368009
52.0,0.0011596301337704062
56.0,0.0009556256118230522
60.0,0.0007582887192256749
64.0,0.0004418881144374609
72.0,0.00039015960646793246
80.0,0.00017962716810870916
88.0,9.283688996220008e-05
96.0,-0.00015261919179465622
104.0,0.00013306151959113777
112.0,0.00017396481416653842
120.0,5.932087151450105e-05
128.0,0.00041431255522184074
144.0,0.00012079648877261207
160.0,-0.00015904918836895376
176.0,-0.0005199945881031454
192.0,-0.0001983390684472397
208.0,-0.00037795258685946465
224.0,-0.0002766104298643768
240.0,-2.5428785193071235e-06
256.0,0.0002989832137245685
288.0,-0.00030512604280374944
320.0,-0.00021500162256415933
352.0,0.00036824538256041706
384.0,0.00038972171023488045
416.0,5.591888475464657e-05
448.0,-0.00037254465860314667
480.0,-9.932670764101204e-06
512.0,-0.00011410799925215542
576.0,-9.22444014577195e-05
640.0,0.00027023552684113383
704.0,-0.0003764646826311946
768.0,-0.00022341044677887112
832.0,-0.0004276427789591253
896.0,-0.00018442842701915652
960.0,-0.0005090863560326397
1024.0,-2.5235127395717427e-05
1152.0,-0.0003185847890563309
1280.0,3.516552169458009e-05
1408.0,-0.00021720329823438078
1536.0,7.005638326518238e-05
1664.0,-8.12324506114237e-05
1792.0,0.00025053881108760834
1920.0,-6.239906360860914e-05
2048.0,0.0002345313405385241
2304.0,0.00034284789580851793
2560.0,0.00026023777900263667
2816.0,-0.0003046934143640101
3072.0,-0.0003802857827395201
3328.0,-0.00023721544130239636
3584.0,-0.00016432668780907989
3840.0,9.970441169571131e-05
4096.0,0.00012477970449253917
4608.0,7.745531911496073e-05
5120.0,-0.0003455734986346215
5632.0,-2.4268168999697082e-05
6144.0,0.0002081989514408633
6656.0,0.0001370360259898007
7168.0,-0.00014456824283115566
7680.0,-6.324191053863615e-05
8192.0,0.00032327158260159194
9216.0,-0.00020569718617480248
10240.0,0.00011908976011909544
11264.0,-0.0002383045357419178
12288.0,-7.212101991171949e-06
13312.0,0.00012316730862949044
14336.0,-6.0687838413286954e-05
end
