version,3.0
numOfCh,1
type,point
parent_name,10-cuts
ch_type,1_1
kcount,1
numberNandB,1
brightnessNandB,1
carpet pos,0
pc,0
Time (ms),CH1 Auto-Correlation
1.0,0.027189165353775024
2.0,0.02241617813706398
3.0,0.019036829471588135
4.0,0.016485553234815598
5.0,0.014513415284454823
6.0,0.012955189682543278
7.0,0.011650360189378262
8.0,0.010566391050815582
9.0,0.009681304916739464
10.0,0.008863592520356178
11.0,0.008204312063753605
12.0,0.007568010129034519
13.0,0.006903729401528835
14.0,0.006372261326760054
15.0,0.005896539893001318
16.0,0.005527580622583628
18.0,0.004917680285871029
20.0,0.004639611579477787
22.0,0.004433801397681236
24.0,0.004067502915859222
26.0,0.003853581380099058
28.0,0.0034375381655991077
30.0,0.0032409599516540766
32.0,0.0031456993892788887
36.0,0.002913686679676175
40.0,0.0026271913666278124
44.0,0.002193700522184372
48.0,0.00191502773668617
52.0,0.0010479969205334783
56.0,0.0007093104068189859
60.0,0.0002886464644689113
64.0,6.676499469904229e-05
72.0,0.00034762886934913695
80.0,-0.0002546244068071246
88.0,9.963142656488344e-05
96.0,-0.00026663445169106126
104.0,0.00019881933985743672
112.0,0.00041330824024043977
120.0,0.00043557732715271413
128.0,0.0008294223225675523
144.0,0.0002602829481475055
160.0,0.0006652314332313836
176.0,0.0004682279541157186
192.0,0.0010592859471216798
208.0,0.0007441574707627296
224.0,0.0005065756849944592
240.0,-3.3468895708210766e-05
256.0,-0.00042502369615249336
288.0,-0.001026004203595221
320.0,-0.0003646980912890285
352.0,-0.0005470084142871201
384.0,-0.0013049914268776774
416.0,-0.0010789044899865985
448.0,-0.0005626774509437382
480.0,0.0002965621533803642
512.0,0.000926643842831254
576.0,7.386822835542262e-05
640.0,0.0012302431277930737
704.0,0.0008332338184118271
768.0,-4.9991271225735545e-05
832.0,0.0006383269210346043
896.0,-0.0003022071614395827
960.0,-0.0004895552410744131
1024.0,0.0005290188710205257
1152.0,-0.0001311706000706181
1280.0,-0.0004609745810739696
1408.0,0.0003225971304345876
1536.0,6.636324542341754e-05
1664.0,-0.00010992149327648804
1792.0,0.00010413347627036273
1920.0,0.0005980981513857841
2048.0,0.0008761980570852757
2304.0,-0.0007266218890435994
2560.0,6.583952199434862e-05
2816.0,0.00014182964514475316
3072.0,-0.00020552714704535902
3328.0,-0.00014562165597453713
3584.0,0.00046510997344739735
3840.0,-0.00041145694558508694
4096.0,-0.000260364031419158
4608.0,-0.0005009250598959625
5120.0,-0.00024504048633389175
5632.0,-0.00019211700418964028
6144.0,-0.0001337862340733409
6656.0,-7.537151759606786e-06
7168.0,0.0003266214916948229
7680.0,0.0003173805307596922
8192.0,0.00015090947272256017
9216.0,0.00020137907995376736
10240.0,0.0005999240675009787
11264.0,-0.0003012202796526253
12288.0,-0.000520013680215925
13312.0,5.591144145000726e-06
14336.0,-0.0016380815068259835
end
