version,3.0
numOfCh,1
type,point
parent_name,10-cuts
ch_type,1_1
kcount,1
numberNandB,1
brightnessNandB,1
carpet pos,0
pc,0
Time (ms),CH1 Auto-Correlation
1.0,0.016196519136428833
2.0,0.013337943702936172
3.0,0.011402184143662453
4.0,0.009981565177440643
5.0,0.008839151822030544
6.0,0.007946384139358997
7.0,0.007178208790719509
8.0,0.006569284945726395
9.0,0.005890560336410999
10.0,0.005408039782196283
11.0,0.00499860942363739
12.0,0.004671153612434864
13.0,0.004333960358053446
14.0,0.00413374463096261
15.0,0.003878076793625951
16.0,0.0035622073337435722
18.0,0.003003474557772279
20.0,0.002648852067068219
22.0,0.0024779008235782385
24.0,0.002289658645167947
26.0,0.002162361517548561
28.0,0.001987461233511567
30.0,0.0019515857566148043
32.0,0.0017787407850846648
36.0,0.0016197628574445844
40.0,0.0014374613529071212
44.0,0.0013252926291897893
48.0,0.001388243050314486
52.0,0.001127460622228682
56.0,0.0012377663515508175
60.0,0.001509785302914679
64.0,0.0015902860322967172
72.0,0.00113545055501163
80.0,0.0005215994315221906
88.0,0.0007481481297872961
96.0,0.0005737225874327123
104.0,0.00049695058260113
112.0,0.00047505664406344295
120.0,0.00042006236617453396
128.0,0.00048502671415917575
144.0,0.0007138492655940354
160.0,0.0007452232530340552
176.0,0.00010162180115003139
192.0,0.000612064206507057
208.0,0.0005516723613254726
224.0,0.00046362311695702374
240.0,0.0006149044493213296
256.0,0.0008367322734557092
288.0,0.00036304231616668403
320.0,0.00045061088167130947
352.0,0.000482040224596858
384.0,-5.785627308796393e-06
416.0,-0.00023340365441981703
448.0,2.3529977625003085e-05
480.0,2.8885029678349383e-05
512.0,0.00025035589351318777
576.0,-9.08041256479919e-05
640.0,-4.968562279827893e-05
704.0,-0.00018897195695899427
768.0,-0.0008416789351031184
832.0,-0.00022624258417636156
896.0,2.2569856810150668e-05
960.0,0.00018101972818840295
1024.0,-0.00034475649590604007
1152.0,-0.00023713296104688197
1280.0,5.430350938695483e-05
1408.0,-0.0004432176356203854
1536.0,-0.00016293267253786325
1664.0,-0.0004194516805000603
1792.0,-0.0003949924430344254
1920.0,0.0002592187956906855
2048.0,-0.000311074050841853
2304.0,0.0002020535757765174
2560.0,0.0002592506934888661
2816.0,0.00019218037778045982
3072.0,-0.00042277632746845484
3328.0,-0.00036115534021519125
3584.0,-0.00019740336574614048
3840.0,-0.00021077114797662944
4096.0,-0.00023403894738294184
4608.0,0.000296520214760676
5120.0,-0.00011750259000109509
5632.0,2.0559436961775646e-05
6144.0,-6.480993033619598e-05
6656.0,0.0004025835660286248
7168.0,0.0006572715356014669
7680.0,-0.0005141823785379529
8192.0,1.529195469629485e-05
9216.0,-0.0003020808508154005
10240.0,9.524485358269885e-05
11264.0,-0.00016452762065455317
12288.0,-9.465476614423096e-05
13312.0,0.0003265526902396232
14336.0,-6.815046799601987e-05
end
