version,3.0
numOfCh,1
type,point
parent_name,10-cuts
ch_type,1_1
kcount,1
numberNandB,1
brightnessNandB,1
carpet pos,0
pc,0
Time (ms),CH1 Auto-Correlation
1.0,0.01585722528398037
2.0,0.012866412289440632
3.0,0.010859784670174122
4.0,0.009387914091348648
5.0,0.008316025137901306
6.0,0.0073807756416499615
7.0,0.006533171981573105
8.0,0.005937922280281782
9.0,0.005462941247969866
10.0,0.004995105322450399
11.0,0.0046116807498037815
12.0,0.004223073832690716
13.0,0.003909659571945667
14.0,0.0036442046985030174
15.0,0.003403739770874381
16.0,0.0031399312429130077
18.0,0.0027732718735933304
20.0,0.0025039585307240486
22.0,0.0022806404158473015
24.0,0.002093350049108267
26.0,0.001812814618460834
28.0,0.0014426923589780927
30.0,0.0013414161512628198
32.0,0.001164864283055067
36.0,0.000965267710853368
40.0,0.0007886702660471201
44.0,0.0006304814014583826
48.0,0.0003635902248788625
52.0,0.00019706976308953017
56.0,0.00023832508304622024
60.0,0.00037118809996172786
64.0,0.0003041000454686582
72.0,6.408629269571975e-05
80.0,-0.00010275657405145466
88.0,-0.00014254459529183805
96.0,-6.858338019810617e-05
104.0,0.00011149940837640315
112.0,0.00018012500368058681
120.0,0.0003016554401256144
128.0,0.00019376454292796552
144.0,0.0002229145757155493
160.0,5.4257554438663647e-05
176.0,0.0002910562907345593
192.0,1.2501809578679968e-05
208.0,-7.002536585787311e-05
224.0,-0.00028380603180266917
240.0,-0.00020649483485613018
256.0,-8.854408952174708e-05
288.0,0.0004000190529040992
320.0,0.00037479406455531716
352.0,-7.092284067766741e-05
384.0,-0.0004851801786571741
416.0,-8.448730659438297e-05
448.0,0.0003831791691482067
480.0,7.22048498573713e-05
512.0,-0.0001910014689201489
576.0,-0.0003550999681465328
640.0,-0.0004556337953545153
704.0,0.00021712826855946332
768.0,9.604512888472527e-05
832.0,0.0005889990134164691
896.0,0.00025271231424994767
960.0,-5.232785042608157e-05
1024.0,-1.5462735973414965e-05
1152.0,-0.00010936768376268446
1280.0,-0.0001656379026826471
1408.0,-0.00012833789514843374
1536.0,0.0001649871119298041
1664.0,0.0003691270248964429
1792.0,0.0003017099224962294
1920.0,-0.00014250782260205597
2048.0,-3.5928580473409966e-05
2304.0,-2.38707652897574e-05
2560.0,6.191839202074334e-05
2816.0,-0.0002533519291318953
3072.0,-0.0001118014843086712
3328.0,0.00010027235839515924
3584.0,7.754396210657433e-05
3840.0,-1.2997566045669373e-05
4096.0,7.237683166749775e-05
4608.0,7.531076698796824e-05
5120.0,7.582180114695802e-05
5632.0,1.7996670067077503e-05
6144.0,-0.0001598826056579128
6656.0,-8.823791404211079e-07
7168.0,3.151502460241318e-05
7680.0,-2.0277970179449767e-05
8192.0,-0.00013531895820051432
9216.0,-3.478020153124817e-05
10240.0,9.2845575636602e-06
11264.0,-0.0003345359582453966
12288.0,-0.00010927257244475186
13312.0,-0.0003772019990719855
14336.0,0.00010127474524779245
end
