version,3.0
numOfCh,1
type,point
parent_name,10-cuts
ch_type,1_1
kcount,1
numberNandB,1
brightnessNandB,1
carpet pos,0
pc,0
Time (ms),CH1 Auto-Correlation
1.0,0.016822449862957
2.0,0.013896503485739231
3.0,0.011774161830544472
4.0,0.010354039259254932
5.0,0.00924371276050806
6.0,0.008276693522930145
7.0,0.00749430013820529
8.0,0.006727734114974737
9.0,0.006211607716977596
10.0,0.005743292160332203
11.0,0.005353284999728203
12.0,0.004962459672242403
13.0,0.004643365740776062
14.0,0.004320720210671425
15.0,0.004126740153878927
16.0,0.003916007000952959
18.0,0.0035854473244398832
20.0,0.0031537364702671766
22.0,0.002778651425614953
24.0,0.0022906570229679346
26.0,0.0021705818362534046
28.0,0.0021090477239340544
30.0,0.00207178364507854
32.0,0.0020096658263355494
36.0,0.00212694494985044
40.0,0.002021024702116847
44.0,0.0018827953608706594
48.0,0.001744322944432497
52.0,0.0017691904213279486
56.0,0.001759375212714076
60.0,0.0014575159875676036
64.0,0.0012155654840171337
72.0,0.0009368839091621339
80.0,0.0008103243890218437
88.0,0.0011394121684134007
96.0,0.0013003754429519176
104.0,0.0007080776267684996
112.0,0.00042328989366069436
120.0,2.070500522677321e-05
128.0,-0.00011069078755099326
144.0,-0.00028286047745496035
160.0,0.0003320018295198679
176.0,-3.731955439434387e-05
192.0,-0.00011849426664412022
208.0,-0.00043241505045443773
224.0,-0.0003826965403277427
240.0,-0.00037772199721075594
256.0,-0.0008607839117757976
288.0,-0.0006731424364261329
320.0,-0.000367494736565277
352.0,-2.74732633442909e-06
384.0,-7.187957817222923e-05
416.0,-0.00026378218899481
448.0,-0.00013692461652681231
480.0,0.0004295026301406324
512.0,0.00042248802492395043
576.0,0.00037149613490328193
640.0,0.0003352152416482568
704.0,-4.650294067687355e-05
768.0,-0.00045635292190127075
832.0,-0.0005342487711459398
896.0,-0.0006465073092840612
960.0,-0.0006621468346565962
1024.0,-0.0005083683063276112
1152.0,2.4643275537528098e-05
1280.0,-0.00022516724129673094
1408.0,-0.0004984730039723217
1536.0,-0.0005738566978834569
1664.0,-0.00017302107880823314
1792.0,0.00023360947670880705
1920.0,1.1709050340868998e-05
2048.0,-6.310080061666667e-05
2304.0,0.00022818180150352418
2560.0,0.0004833113925997168
2816.0,8.149207860697061e-05
3072.0,-0.00030403706477954984
3328.0,5.2155392040731385e-06
3584.0,-0.0006222424563020468
3840.0,0.00011234171688556671
4096.0,-0.00023456334020011127
4608.0,0.0001308957434957847
5120.0,0.00012285192497074604
5632.0,1.4937542800907977e-05
6144.0,-0.00024166701768990606
6656.0,-1.2023736417177133e-05
7168.0,3.622938311309554e-05
7680.0,6.24202803010121e-05
8192.0,2.1283096884872066e-06
9216.0,3.162326538586058e-05
10240.0,0.00012374664947856218
11264.0,-0.0001360581663902849
12288.0,-8.058368985075504e-05
13312.0,-5.351277650333941e-05
14336.0,3.2021980587160215e-05
end
