version,3.0
numOfCh,1
type,point
parent_name,10-cuts
ch_type,1_1
kcount,1
numberNandB,1
brightnessNandB,1
carpet pos,0
pc,0
Time (ms),CH1 Auto-Correlation
1.0,0.01668429933488369
2.0,0.01367200631648302
3.0,0.011605692096054554
4.0,0.010063117370009422
5.0,0.008905831724405289
6.0,0.008067082613706589
7.0,0.007444700691848993
8.0,0.0069106342270970345
9.0,0.006444085855036974
10.0,0.005911956541240215
11.0,0.0054715401493012905
12.0,0.005062873009592295
13.0,0.004699422512203455
14.0,0.0044002956710755825
15.0,0.004090799484401941
16.0,0.0036693469155579805
18.0,0.003339605638757348
20.0,0.0031116146128624678
22.0,0.002783209318295121
24.0,0.0024491457734256983
26.0,0.0021820126567035913
28.0,0.0019958524499088526
30.0,0.0019422343466430902
32.0,0.0017829067073762417
36.0,0.0016736972611397505
40.0,0.0015593285206705332
44.0,0.0013384510530158877
48.0,0.0013839429011568427
52.0,0.0015986243961378932
56.0,0.0016654850915074348
60.0,0.001517414697445929
64.0,0.0014325089287012815
72.0,0.0009791860356926918
80.0,0.0006946495268493891
88.0,0.0005990928621031344
96.0,0.0008133118390105665
104.0,0.0007005536463111639
112.0,0.000337994220899418
120.0,-0.00038282954483292997
128.0,-0.0007184548885561526
144.0,-0.0003937344008591026
160.0,0.00038865063106641173
176.0,0.0006919445586390793
192.0,0.0005137844709679484
208.0,0.0006511547835543752
224.0,5.603264435194433e-05
240.0,-8.28495976747945e-05
256.0,0.00027487045736052096
288.0,0.00028543020016513765
320.0,0.00034605024848133326
352.0,0.0001144241978181526
384.0,0.00019586359849199653
416.0,-0.0001652492501307279
448.0,-0.00032287093927152455
480.0,-0.0003990134282503277
512.0,-0.00011341537901898846
576.0,-0.00025431308313272893
640.0,8.587764023104683e-05
704.0,0.00030834859353490174
768.0,0.0001759962906362489
832.0,9.690983279142529e-05
896.0,-8.862189861247316e-05
960.0,-0.00026213290402665734
1024.0,-0.00012635327584575862
1152.0,0.00037089496618136764
1280.0,8.364998939214274e-05
1408.0,-0.00043076585279777646
1536.0,9.886944462778047e-05
1664.0,-0.0004750793450511992
1792.0,-0.0004665232845582068
1920.0,6.727159779984504e-05
2048.0,-0.00018963725597131997
2304.0,3.7547782994806767e-05
2560.0,-4.2734733142424375e-05
2816.0,-0.00025640014791861176
3072.0,-0.0005384073592722416
3328.0,-0.00028329103952273726
3584.0,-4.9487560318084434e-05
3840.0,0.00014721945626661181
4096.0,-0.0003432676603551954
4608.0,0.00015846492897253484
5120.0,1.545310442452319e-05
5632.0,9.254233009414747e-05
6144.0,-3.039267539861612e-05
6656.0,0.0005972617655061185
7168.0,-0.00010175116767641157
7680.0,-0.00012654812599066645
8192.0,1.7456587784181465e-06
9216.0,-0.00019307757611386478
10240.0,0.00019316867110319436
11264.0,0.0005524951848201454
12288.0,2.7510697691468522e-05
13312.0,-0.0003155418671667576
14336.0,-0.00015903747407719493
end
