version,3.0
numOfCh,1
type,point
parent_name,10-cuts
ch_type,1_1
kcount,1
numberNandB,1
brightnessNandB,1
carpet pos,0
pc,0
Time (ms),CH1 Auto-Correlation
1.0,0.016524065285921097
2.0,0.013484069146215916
3.0,0.011357130482792854
4.0,0.009731435216963291
5.0,0.008471798151731491
6.0,0.007528570014983416
7.0,0.006697900127619505
8.0,0.005946123506873846
9.0,0.005354661028832197
10.0,0.004857287276536226
11.0,0.004472124390304089
12.0,0.004140221979469061
13.0,0.003902845550328493
14.0,0.0037388696800917387
15.0,0.003561781020835042
16.0,0.0035457268822938204
18.0,0.0032451117876917124
20.0,0.0028961508069187403
22.0,0.002718309871852398
24.0,0.0025824368931353092
26.0,0.0022893098648637533
28.0,0.0020409829448908567
30.0,0.002049260074272752
32.0,0.0020714944694191217
36.0,0.0016897941241040826
40.0,0.0014415468322113156
44.0,0.0012454944662749767
48.0,0.0008322534267790616
52.0,0.0006696638301946223
56.0,0.0005188909126445651
60.0,0.000515186635311693
64.0,0.00038370268885046244
72.0,0.00013001532352063805
80.0,-0.0002384893741691485
88.0,-0.000358889636117965
96.0,-0.0002473651838954538
104.0,-0.0002663338673301041
112.0,-0.0003631538711488247
120.0,-3.88888583984226e-05
128.0,0.00013472442515194416
144.0,-0.00011124034062959254
160.0,5.993040031171404e-05
176.0,0.00011699690367095172
192.0,0.0005984154413454235
208.0,0.00019209986203350127
224.0,0.00013746623881161213
240.0,9.017578122438863e-05
256.0,0.0005292189889587462
288.0,0.00025411619571968913
320.0,-0.00014728301903232932
352.0,0.00024019366537686437
384.0,-0.00020391140424180776
416.0,-8.178433199645951e-05
448.0,9.464973118156195e-05
480.0,0.0005144214374013245
512.0,9.067651262739673e-05
576.0,-0.0005717211170122027
640.0,-0.00026770649128593504
704.0,-0.00023269667872227728
768.0,-0.000568571500480175
832.0,-0.0005629233201034367
896.0,0.00023298450105357915
960.0,-0.0004324624314904213
1024.0,-0.0006436086259782314
1152.0,-6.307912553893402e-05
1280.0,-0.00014168447523843497
1408.0,-1.8401617126073688e-05
1536.0,0.00010548625141382217
1664.0,-3.282390389358625e-05
1792.0,-3.720181484823115e-05
1920.0,0.0001343718613497913
2048.0,4.5847951696487144e-05
2304.0,-2.40875542658614e-05
2560.0,0.00029477995121851563
2816.0,9.029478678712621e-05
3072.0,4.873568832408637e-05
3328.0,-0.00028908808599226177
3584.0,-0.00047868132242001593
3840.0,7.717429980402812e-05
4096.0,0.00010816444410011172
4608.0,-3.897149144904688e-05
5120.0,-9.876196418190375e-05
5632.0,0.0002907576272264123
6144.0,-9.413154475623742e-05
6656.0,-6.371817289618775e-05
7168.0,0.00020147649047430605
7680.0,-0.0002933886426035315
8192.0,-4.175112917437218e-05
9216.0,-0.00011597563570830971
10240.0,0.00013630944886244833
11264.0,-9.647611705076997e-07
12288.0,0.00010126311099156737
13312.0,-4.8834801418706775e-05
14336.0,-0.0004259919805917889
end
