version,3.0
numOfCh,1
type,point
parent_name,10-cuts
ch_type,1_1
kcount,1
numberNandB,1
brightnessNandB,1
carpet pos,0
pc,0
Time (ms),CH1 Auto-Correlation
1.0,0.027781547978520393
2.0,0.022987274453043938
3.0,0.019586587324738503
4.0,0.01693863980472088
5.0,0.015160717070102692
6.0,0.013734531588852406
7.0,0.012459573335945606
8.0,0.011400201357901096
9.0,0.010586127638816833
10.0,0.009800617583096027
11.0,0.009242547675967216
12.0,0.008768227882683277
13.0,0.00814762618392706
14.0,0.007653479930013418
15.0,0.007352705579251051
16.0,0.006906744558364153
18.0,0.006093963515013456
20.0,0.0054319677874445915
22.0,0.005125423893332481
24.0,0.004989704582840204
26.0,0.0045598833821713924
28.0,0.0038942666724324226
30.0,0.003431373042985797
32.0,0.0032862999942153692
36.0,0.0028605200350284576
40.0,0.0026240337174385786
44.0,0.002184598706662655
48.0,0.0018566586077213287
52.0,0.0016333609819412231
56.0,0.0019975544419139624
60.0,0.0016602049581706524
64.0,0.0015139924362301826
72.0,0.0009393970831297338
80.0,0.0002161520824301988
88.0,-9.48162269196473e-05
96.0,-0.00010425112122902647
104.0,-0.00025854900013655424
112.0,-0.00046632083831354976
120.0,-0.0004085805849172175
128.0,-0.00022055514273233712
144.0,-5.376307308324613e-05
160.0,-0.00022627120779361576
176.0,-0.0009381910786032677
192.0,-0.0004195484216324985
208.0,1.1758620530599728e-05
224.0,0.0008868479053489864
240.0,0.0008280284819193184
256.0,0.000809653487522155
288.0,0.0005193022079765797
320.0,4.1510436858516186e-05
352.0,0.0007672816864214838
384.0,0.000493750674650073
416.0,5.574481838266365e-05
448.0,-0.0001700034481473267
480.0,-0.0005136494291946292
512.0,0.00023572368081659079
576.0,0.0001821797777665779
640.0,-2.0855457478319295e-05
704.0,-0.00011017215729225427
768.0,-0.0004611301701515913
832.0,-0.0004165436257608235
896.0,-0.00024882779689505696
960.0,-8.237449219450355e-05
1024.0,0.001078222063370049
1152.0,0.00034632644383236766
1280.0,-0.0004638652317225933
1408.0,1.17384331588255e-06
1536.0,-0.00022358050046022981
1664.0,-0.0005051213665865362
1792.0,-0.0005527628236450255
1920.0,-0.0004760549927596003
2048.0,0.00016686868912074715
2304.0,6.101476901676506e-05
2560.0,0.0006348459282889962
2816.0,-8.08699187473394e-05
3072.0,0.0003621938230935484
3328.0,0.00014055600331630558
3584.0,0.0006508746882900596
3840.0,-0.0006037081475369632
4096.0,-0.00016968102136161178
4608.0,-1.6653366401442327e-05
5120.0,0.00023786400561220944
5632.0,-3.9064027077984065e-05
6144.0,-0.00031119887717068195
6656.0,-0.00031892687547951937
7168.0,-0.0001487859699409455
7680.0,-0.00010955778998322785
8192.0,0.0005296311574056745
9216.0,-0.00021140481112524867
10240.0,-0.00019008781237062067
11264.0,4.945333785144612e-05
12288.0,-0.0003230010624974966
13312.0,-3.881260272464715e-05
14336.0,-0.0006154775619506836
end
