version,3.0
numOfCh,1
type,point
parent_name,10-cuts
ch_type,1_1
kcount,1
numberNandB,1
brightnessNandB,1
carpet pos,0
pc,0
Time (ms),CH1 Auto-Correlation
1.0,0.018100954592227936
2.0,0.014986707828938961
3.0,0.012866453267633915
4.0,0.011352120898663998
5.0,0.010107939131557941
6.0,0.009075511246919632
7.0,0.008227363228797913
8.0,0.007542292587459087
9.0,0.00684885960072279
10.0,0.006277679931372404
11.0,0.005851184483617544
12.0,0.005484432447701693
13.0,0.005091496277600527
14.0,0.004852252546697855
15.0,0.00464258249849081
16.0,0.004442369565367699
18.0,0.004060606472194195
20.0,0.003893804969266057
22.0,0.0036694195587188005
24.0,0.003458361141383648
26.0,0.0032875000033527613
28.0,0.003188323462381959
30.0,0.002989419037476182
32.0,0.002879890613257885
36.0,0.00276583107188344
40.0,0.0025483339559286833
44.0,0.0023960068356245756
48.0,0.002215589862316847
52.0,0.001902862684801221
56.0,0.001937007182277739
60.0,0.0019209574675187469
64.0,0.002015935955569148
72.0,0.0015550433890894055
80.0,0.0012999915052205324
88.0,0.0013146837009117007
96.0,0.0010039964690804482
104.0,0.0005806150147691369
112.0,0.00040945151704363525
120.0,0.00032155922963283956
128.0,0.0001583247067173943
144.0,0.0002580772852525115
160.0,-0.0001404577196808532
176.0,-5.0256476242793724e-05
192.0,-0.00015109901141840965
208.0,-0.0004478695918805897
224.0,-0.0004179607203695923
240.0,-0.0004905724199488759
256.0,-0.0005897498922422528
288.0,-0.00030448121833615005
320.0,-0.00044572868500836194
352.0,-0.0008299440960399806
384.0,-0.0004646841553039849
416.0,-0.0005004081758670509
448.0,-0.00015239370986819267
480.0,0.0002802301605697721
512.0,0.00023409791174344718
576.0,-2.919569487858098e-05
640.0,-0.0003781003470066935
704.0,-0.0009210337302647531
768.0,-0.0009978667367249727
832.0,-0.00023583482834510505
896.0,0.000812511658295989
960.0,0.0008115301025100052
1024.0,0.0006045898189768195
1152.0,6.286866846494377e-05
1280.0,-0.000441782787675038
1408.0,-0.00010132702300325036
1536.0,0.0004677826364059001
1664.0,-0.0004364671476650983
1792.0,-0.0004750913940370083
1920.0,-1.9658964447444305e-05
2048.0,0.0002293163852300495
2304.0,0.00023549732577521354
2560.0,-0.00023058323131408542
2816.0,-0.00015637850447092205
3072.0,-0.0004090401344001293
3328.0,0.00015065220941323787
3584.0,-8.508583414368331e-05
3840.0,-0.000126872822875157
4096.0,-0.00017231098900083452
4608.0,-0.00019889209943357855
5120.0,7.617125083925202e-05
5632.0,-9.978321031667292e-05
6144.0,-0.0001723717141430825
6656.0,0.00017103046411648393
7168.0,-2.071868266284582e-06
7680.0,0.0001385497162118554
8192.0,0.00019036220328416675
9216.0,0.0002875709906220436
10240.0,-0.00028275116346776485
11264.0,-0.00017478488734923303
12288.0,-0.00017782585928216577
13312.0,0.0005629764054901898
14336.0,-0.0003240584337618202
end
