version,3.0
numOfCh,1
type,point
parent_name,10-cuts
ch_type,1_1
kcount,1
numberNandB,1
brightnessNandB,1
carpet pos,0
pc,0
Time (ms),CH1 Auto-Correlation
1.0,0.01740017533302307
2.0,0.014305702410638332
3.0,0.012141772545874119
4.0,0.010588431730866432
5.0,0.009369910694658756
6.0,0.008425569161772728
7.0,0.007708220276981592
8.0,0.0070229340344667435
9.0,0.006468355655670166
10.0,0.006028386298567057
11.0,0.005535286385565996
12.0,0.005116316489875317
13.0,0.004809834063053131
14.0,0.004487501922994852
15.0,0.004110533744096756
16.0,0.0037715493235737085
18.0,0.0032072633039206266
20.0,0.002603218425065279
22.0,0.0021603547502309084
24.0,0.0019107094267383218
26.0,0.0019719882402569056
28.0,0.0017994646914303303
30.0,0.0017224253388121724
32.0,0.0015665407991036773
36.0,0.0016928776167333126
40.0,0.0017110699554905295
44.0,0.001646840013563633
48.0,0.0017408429412171245
52.0,0.0015653630252927542
56.0,0.0015306513523682952
60.0,0.001166537869721651
64.0,0.0010398696176707745
72.0,0.0009370414773002267
80.0,0.000976974843069911
88.0,0.0008628953364677727
96.0,0.0006762567209079862
104.0,0.0004590950848069042
112.0,0.0006690617883577943
120.0,0.00022555698524229228
128.0,0.00012826839520130306
144.0,4.639329927158542e-05
160.0,0.0003436985134612769
176.0,0.0007959199137985706
192.0,0.0005197780556045473
208.0,5.7032619224628434e-05
224.0,0.00033246097154915333
240.0,0.0007024088408797979
256.0,0.000289610237814486
288.0,0.0001373041159240529
320.0,-0.00023216576664708555
352.0,-0.00029943184927105904
384.0,-0.00016875086294021457
416.0,-4.925447137793526e-05
448.0,0.00041712814709171653
480.0,0.0003062862961087376
512.0,0.0001717816776363179
576.0,0.00017975509399548173
640.0,0.00023235306434798986
704.0,-0.0003414743987377733
768.0,-0.00038319535087794065
832.0,-8.1394195149187e-05
896.0,-0.00012746721040457487
960.0,-0.0003325850993860513
1024.0,-0.00017045413551386446
1152.0,-0.00016916125605348498
1280.0,-0.0005424916162155569
1408.0,-0.00020041516108904034
1536.0,-0.00010591168393148109
1664.0,-0.0004576737410388887
1792.0,9.602873615222052e-05
1920.0,-0.00013343399041332304
2048.0,-0.00019073457224294543
2304.0,-6.8525732785929e-05
2560.0,0.00030449399491772056
2816.0,-0.0003433411184232682
3072.0,-3.7678568332921714e-05
3328.0,-0.00031765425228513777
3584.0,0.00027982296887785196
3840.0,0.00047347103827632964
4096.0,0.00026008699205704033
4608.0,0.00018068218196276575
5120.0,-0.00031858563306741416
5632.0,-0.00041647066245786846
6144.0,-0.0002716077142395079
6656.0,0.0003439945576246828
7168.0,-5.95241435803473e-05
7680.0,-0.00024215619487222284
8192.0,0.0002360614453209564
9216.0,1.9166080164723098e-05
10240.0,-0.0001720360160106793
11264.0,0.00015399116091430187
12288.0,3.300594471511431e-05
13312.0,8.647808863315731e-05
14336.0,-1.1190081750100944e-05
end
