version,3.0
numOfCh,1
type,point
parent_name,10-cuts
ch_type,1_1
kcount,1
numberNandB,1
brightnessNandB,1
carpet pos,0
pc,0
Time (ms),CH1 Auto-Correlation
1.0,0.01598993130028248
2.0,0.013021338731050491
3.0,0.01098996214568615
4.0,0.009479327127337456
5.0,0.0083939703181386
6.0,0.00761004164814949
7.0,0.006928047630935907
8.0,0.0062616015784442425
9.0,0.005759081803262234
10.0,0.005361731629818678
11.0,0.0049898745492100716
12.0,0.00461093382909894
13.0,0.004181367810815573
14.0,0.0038959116209298372
15.0,0.0035997466184198856
16.0,0.003323035780340433
18.0,0.0028699254617094994
20.0,0.0026310624089092016
22.0,0.0025314323138445616
24.0,0.0024369428865611553
26.0,0.002268395619466901
28.0,0.002355683594942093
30.0,0.0023288028314709663
32.0,0.0022368482314050198
36.0,0.0022284951992332935
40.0,0.0021465641912072897
44.0,0.00198896205984056
48.0,0.0018284471007063985
52.0,0.0017048786394298077
56.0,0.0016485747182741761
60.0,0.0017672766698524356
64.0,0.0016841376200318336
72.0,0.0011440514354035258
80.0,0.0005491858464665711
88.0,0.0006969141541048884
96.0,0.0008242649491876364
104.0,0.0013308337656781077
112.0,0.0011257983278483152
120.0,0.0009307787986472249
128.0,0.0009496590937487781
144.0,0.0009682276868261397
160.0,0.0010101612424477935
176.0,0.0005935189547017217
192.0,0.000626925437245518
208.0,7.815458957338706e-05
224.0,-0.00021541611931752414
240.0,2.8972803193028085e-05
256.0,8.37814441183582e-05
288.0,-0.00012865917233284563
320.0,-0.00018863622972276062
352.0,-0.0003665215917862952
384.0,-0.0009848021436482668
416.0,-0.0011519788531586528
448.0,-0.0008198334253393114
480.0,-0.0004281013098079711
512.0,-0.0007925339741632342
576.0,-0.00036770279984921217
640.0,-5.595131733571179e-05
704.0,-0.00019378543947823346
768.0,3.5619708796730265e-05
832.0,0.0004690030182246119
896.0,0.00040940355393104255
960.0,0.0005446419818326831
1024.0,-4.504067692323588e-05
1152.0,-0.0004389161185827106
1280.0,-0.0008207419305108488
1408.0,-0.0006780261173844337
1536.0,-4.109172550670337e-06
1664.0,0.00046446596388705075
1792.0,0.0008577289409004152
1920.0,0.0004436159797478467
2048.0,-1.1957990864175372e-05
2304.0,-0.0006116420263424516
2560.0,0.00016495893942192197
2816.0,0.0004940131912007928
3072.0,-0.0004838107561226934
3328.0,-0.00032416326575912535
3584.0,0.000460762094007805
3840.0,0.00014030837337486446
4096.0,-0.00034147739643231034
4608.0,0.0002960411075036973
5120.0,-0.00011676956637529656
5632.0,-9.681224037194625e-05
6144.0,-0.0002585873589850962
6656.0,-0.00017355353338643909
7168.0,-1.6906842574826442e-05
7680.0,0.00048577148118056357
8192.0,2.15855470742099e-05
9216.0,2.3117006549000507e-06
10240.0,-0.0003741430991794914
11264.0,0.0001913781015900895
12288.0,0.00021311608725227416
13312.0,-5.269508619676344e-05
14336.0,-7.343081233557314e-05
end
