version,3.0
numOfCh,1
type,point
parent_name,10-cuts
ch_type,1_1
kcount,1
numberNandB,1
brightnessNandB,1
carpet pos,0
pc,0
Time (ms),CH1 Auto-Correlation
1.0,0.015758076682686806
2.0,0.012948179617524147
3.0,0.01092993188649416
4.0,0.00956212542951107
5.0,0.008452925831079483
6.0,0.007556914817541838
7.0,0.006888050120323896
8.0,0.0062727537006139755
9.0,0.005738197360187769
10.0,0.005281185265630484
11.0,0.005003231577575207
12.0,0.004721279721707106
13.0,0.004363281652331352
14.0,0.003979454282671213
15.0,0.0037395318504422903
16.0,0.0035313426051288843
18.0,0.0030131323728710413
20.0,0.002648178720846772
22.0,0.0022549820132553577
24.0,0.0021084581967443228
26.0,0.001994321122765541
28.0,0.0018790260655805469
30.0,0.001686571747995913
32.0,0.0015052655944600701
36.0,0.0014444258995354176
40.0,0.0012964803026989102
44.0,0.0012140297330915928
48.0,0.0011700650211423635
52.0,0.001291089691221714
56.0,0.001173660159111023
60.0,0.0009063736069947481
64.0,0.0009811634663492441
72.0,0.0007140726665966213
80.0,0.0006793822976760566
88.0,0.000423355057137087
96.0,0.0003353634674567729
104.0,-8.13657243270427e-05
112.0,-0.00021758931688964367
120.0,-0.0003621886426117271
128.0,-0.0002935609663836658
144.0,-0.00037574072484858334
160.0,-0.00026311862166039646
176.0,-0.00016944804519880563
192.0,8.79846847965382e-05
208.0,-5.0363825721433386e-05
224.0,0.00020934047643095255
240.0,8.922499546315521e-05
256.0,-4.278066262486391e-05
288.0,-0.00016848865197971463
320.0,-0.0006512001273222268
352.0,-0.0003895340778399259
384.0,-0.0004066549299750477
416.0,0.00017334632866550237
448.0,0.00032048713183030486
480.0,0.0006846633623354137
512.0,-0.0001498540659667924
576.0,-7.970425940584391e-05
640.0,-6.445814506150782e-05
704.0,-6.895912520121783e-05
768.0,2.6137515305890702e-05
832.0,-0.00019151734886690974
896.0,0.00011765735689550638
960.0,-0.0004825072828680277
1024.0,-0.00034484441857784986
1152.0,-4.342952524893917e-05
1280.0,7.034947338979691e-05
1408.0,0.0003757626982405782
1536.0,2.1482950614881702e-05
1664.0,2.9280212402227335e-05
1792.0,-9.299086377723143e-05
1920.0,-8.978438017948065e-06
2048.0,-0.00026088309823535383
2304.0,-7.674741937080398e-05
2560.0,-0.0002856717037502676
2816.0,8.107254689093679e-05
3072.0,0.00030153454281389713
3328.0,-0.00019444666395429522
3584.0,0.0001652421778999269
3840.0,-6.467947969213128e-05
4096.0,-0.0005041943513788283
4608.0,1.537663774797693e-05
5120.0,-4.498578709899448e-05
5632.0,0.00017378324992023408
6144.0,0.0002781358198262751
6656.0,-9.654578752815723e-05
7168.0,-0.00015642837388440967
7680.0,-2.7522080927155912e-05
8192.0,-0.00039519532583653927
9216.0,-2.980106364702806e-05
10240.0,-4.61531599285081e-05
11264.0,-6.988005770836025e-05
12288.0,8.2239908806514e-05
13312.0,-0.000250194309046492
14336.0,0.0003084460913669318
end
