version,3.0
numOfCh,1
type,point
parent_name,10-cuts
ch_type,1_1
kcount,1
numberNandB,1
brightnessNandB,1
carpet pos,0
pc,0
Time (ms),CH1 Auto-Correlation
1.0,0.027984578162431717
2.0,0.023121749982237816
3.0,0.019704759120941162
4.0,0.017227744683623314
5.0,0.015057150274515152
6.0,0.013537116348743439
7.0,0.012379076331853867
8.0,0.011387049220502377
9.0,0.010538284666836262
10.0,0.009784053079783916
11.0,0.009220696054399014
12.0,0.008792970329523087
13.0,0.00831285584717989
14.0,0.00799654982984066
15.0,0.0075106811709702015
16.0,0.007183854002505541
18.0,0.006639302242547274
20.0,0.006022697780281305
22.0,0.005574651062488556
24.0,0.005259922705590725
26.0,0.0048901098780334
28.0,0.004446877632290125
30.0,0.004300777334719896
32.0,0.004246223252266645
36.0,0.0038494691252708435
40.0,0.0030137242283672094
44.0,0.0025451811961829662
48.0,0.0020058751106262207
52.0,0.0016229173634201288
56.0,0.0015830437187105417
60.0,0.0021326150745153427
64.0,0.002257309155538678
72.0,0.0011338775511831045
80.0,0.0011456531938165426
88.0,0.001500496407970786
96.0,0.0010265834862366319
104.0,0.0007851182017475367
112.0,0.0006403995794244111
120.0,0.0002843715192284435
128.0,0.0002596014819573611
144.0,9.581346239428967e-05
160.0,-0.0004088547430001199
176.0,-0.00015405641170218587
192.0,0.0004290474462322891
208.0,0.00055281026288867
224.0,0.0003736023500096053
240.0,-0.0001529835135443136
256.0,0.0002728333056438714
288.0,-7.301362347789109e-05
320.0,-0.0008412385359406471
352.0,-0.0008410964510403574
384.0,-0.00015567333321087062
416.0,0.0002733415749389678
448.0,-0.0002024191344389692
480.0,-0.0002952168579213321
512.0,5.438035077531822e-05
576.0,-0.0008879255037754774
640.0,-0.0002619517035782337
704.0,-0.0008310407283715904
768.0,-0.0006380575941875577
832.0,-3.4890697861555964e-05
896.0,-0.00032863058731891215
960.0,0.0002473947242833674
1024.0,-0.0005687048542313278
1152.0,-0.0006019640131853521
1280.0,0.0010007263626903296
1408.0,0.0007874691509641707
1536.0,0.00023573623911943287
1664.0,0.0006557853776030242
1792.0,-0.0005583197344094515
1920.0,-1.545673148939386e-05
2048.0,-0.00040462013566866517
2304.0,-0.0005740294582210481
2560.0,6.601250788662583e-05
2816.0,9.009355562739074e-05
3072.0,0.0008690829272381961
3328.0,-0.0001287215418415144
3584.0,-0.00020637678971979767
3840.0,0.00021377393568400294
4096.0,-0.0008040281827561557
4608.0,0.0002879042876884341
5120.0,-0.00018816249212250113
5632.0,-0.0006565526709891856
6144.0,0.0004354537231847644
6656.0,-0.0002760325151029974
7168.0,-0.0007764365873299539
7680.0,0.00039654559805057943
8192.0,0.0005639581941068172
9216.0,1.926963886944577e-05
10240.0,-6.775202928110957e-05
11264.0,8.378680831810925e-06
12288.0,0.0002963891311082989
13312.0,-0.0003214228490833193
14336.0,-0.0002673761046025902
end
