version,3.0
numOfCh,1
type,point
parent_name,10-cuts
ch_type,1_1
kcount,1
numberNandB,1
brightnessNandB,1
carpet pos,0
pc,0
Time (ms),CH1 Auto-Correlation
1.0,0.01628999412059784
2.0,0.013326618820428848
3.0,0.011105845682322979
4.0,0.009460225701332092
5.0,0.008283178322017193
6.0,0.007311193272471428
7.0,0.006544523406773806
8.0,0.0058525032363832
9.0,0.005295430775731802
10.0,0.004819955676794052
11.0,0.004423655569553375
12.0,0.004066333640366793
13.0,0.0038204907905310392
14.0,0.00362665974535048
15.0,0.003301090095192194
16.0,0.0031426786445081234
18.0,0.0028647033032029867
20.0,0.002485145814716816
22.0,0.002223104937002063
24.0,0.0019586372654885054
26.0,0.0017686112551018596
28.0,0.0016719915438443422
30.0,0.001548113883472979
32.0,0.001490356749854982
36.0,0.001493530930019915
40.0,0.0015048151835799217
44.0,0.0014370091957971454
48.0,0.0010050177806988358
52.0,0.0003310508618596941
56.0,0.00015631862333975732
60.0,0.00011601731966948137
64.0,0.00013196661893744022
72.0,-0.00021233998995739967
80.0,-0.0003448128991294652
88.0,-0.0004090572474524379
96.0,-4.615689977072179e-05
104.0,-0.00017152521468233317
112.0,-0.00048078838153742254
120.0,-0.0007450782577507198
128.0,-0.0004545525589492172
144.0,-0.0002768482081592083
160.0,4.350819290266372e-05
176.0,-1.3863047570339404e-05
192.0,-1.390887064189883e-05
208.0,-0.00014192910748533905
224.0,-0.00012085585331078619
240.0,0.0002570447977632284
256.0,0.00013839521852787584
288.0,0.00024448204203508794
320.0,5.578205673373304e-05
352.0,-0.000450785068096593
384.0,-0.000532398174982518
416.0,-0.0003465012414380908
448.0,-0.0007278047851286829
480.0,-0.0004766901256516576
512.0,6.393338844645768e-05
576.0,-0.00026631742366589606
640.0,6.21304425294511e-05
704.0,-4.667163375415839e-05
768.0,-0.00017999789270106703
832.0,0.0004972550086677074
896.0,0.00038623984437435865
960.0,5.134094681125134e-05
1024.0,-7.077072950778529e-05
1152.0,0.0005214689881540835
1280.0,-0.00023614925157744437
1408.0,0.00014510152686852962
1536.0,-0.00010841484618140385
1664.0,0.0002205280034104362
1792.0,-5.956724635325372e-05
1920.0,6.8107241531834e-05
2048.0,9.057106217369437e-05
2304.0,-2.4941573428804986e-05
2560.0,-0.00014743830251973122
2816.0,0.00025405207998119295
3072.0,0.00014012647443450987
3328.0,-0.00018717099737841636
3584.0,-7.370147795882076e-05
3840.0,0.00014620476576965302
4096.0,-3.669818033813499e-05
4608.0,-2.446803364364314e-06
5120.0,-1.0283808478561696e-05
5632.0,-8.846442506182939e-05
6144.0,-0.000170610670465976
6656.0,-0.00012790237087756395
7168.0,-0.0001955017796717584
7680.0,-5.076846355223097e-05
8192.0,-0.0002067374298349023
9216.0,-7.098566857166588e-05
10240.0,-4.307180279283784e-05
11264.0,-2.3860742658143863e-05
12288.0,-7.32594562578015e-05
13312.0,0.00018218168406747282
14336.0,3.852164081763476e-05
end
