version,3.0
numOfCh,1
type,point
parent_name,10-cuts
ch_type,1_1
kcount,1
numberNandB,1
brightnessNandB,1
carpet pos,0
pc,0
Time (ms),CH1 Auto-Correlation
1.0,0.02524101920425892
2.0,0.020505592226982117
3.0,0.016949167475104332
4.0,0.014347217977046967
5.0,0.012500773184001446
6.0,0.011013510636985302
7.0,0.009750552475452423
8.0,0.008813216350972652
9.0,0.008086633868515491
10.0,0.007419347297400236
11.0,0.006801385432481766
12.0,0.006116698496043682
13.0,0.005503139924257994
14.0,0.004956665448844433
15.0,0.004518602043390274
16.0,0.004154982510954142
18.0,0.0038064003456383944
20.0,0.0033836003858596087
22.0,0.0028869803063571453
24.0,0.002273394726216793
26.0,0.0019465482328087091
28.0,0.0018918931018561125
30.0,0.001787083107046783
32.0,0.0019552605226635933
36.0,0.001987042371183634
40.0,0.0019238239619880915
44.0,0.0019614235498011112
48.0,0.002130919834598899
52.0,0.0022690643090754747
56.0,0.001988048665225506
60.0,0.0015301513485610485
64.0,0.0014245451893657446
72.0,0.002178751165047288
80.0,0.0016978426137939095
88.0,0.0011827442795038223
96.0,0.0010234488872811198
104.0,0.0009226775146089494
112.0,0.0011693272972479463
120.0,0.0010174657218158245
128.0,0.0006118976743891835
144.0,0.0007652571075595915
160.0,0.0005366616533137858
176.0,7.57502784836106e-05
192.0,0.00013042244245298207
208.0,0.00047850815462879837
224.0,0.0002772370644379407
240.0,-0.00014351170102600008
256.0,0.00014874411863274872
288.0,-6.54648756608367e-05
320.0,0.00014839350478723645
352.0,-0.0005167677300050855
384.0,5.156740007805638e-05
416.0,-7.127680873963982e-05
448.0,-8.355487807421014e-05
480.0,-0.0006047700298950076
512.0,-0.0002966472820844501
576.0,0.0002180245064664632
640.0,0.0005451992619782686
704.0,0.0003498725709505379
768.0,6.810537888668478e-05
832.0,0.00022439791064243764
896.0,-0.00019977791816927493
960.0,-0.0002787735720630735
1024.0,-0.00046543561620637774
1152.0,0.0004978751530870795
1280.0,0.0005368114798329771
1408.0,0.0006197968032211065
1536.0,-0.00017377788026351482
1664.0,0.00021028959599789232
1792.0,-0.00014864311378914863
1920.0,-0.0001724205503705889
2048.0,-9.096298163058236e-05
2304.0,-0.00028284365544095635
2560.0,-0.0002178174036089331
2816.0,-0.0003544487990438938
3072.0,0.00040486460784450173
3328.0,7.288280175998807e-05
3584.0,0.00015457287372555584
3840.0,0.00014424973051063716
4096.0,0.0001426125381840393
4608.0,0.0002354040479985997
5120.0,0.0004841898044105619
5632.0,-0.00032173492945730686
6144.0,-0.00015291957242880017
6656.0,-0.00011194960825378075
7168.0,-0.0008279691101051867
7680.0,-0.0004717224801424891
8192.0,-4.969136352883652e-05
9216.0,-3.599050978664309e-05
10240.0,-0.0002636761637404561
11264.0,-0.00019195776258129627
12288.0,-0.00047569890739396214
13312.0,-0.0004119150689803064
14336.0,0.001023602788336575
end
