version,3.0
numOfCh,1
type,point
parent_name,10-cuts
ch_type,1_1
kcount,1
numberNandB,1
brightnessNandB,1
carpet pos,0
pc,0
Time (ms),CH1 Auto-Correlation
1.0,0.015929626300930977
2.0,0.01304035447537899
3.0,0.010928458534181118
4.0,0.009459801018238068
5.0,0.008379081264138222
6.0,0.0075718411244452
7.0,0.0069845314137637615
8.0,0.00622913334518671
9.0,0.005606252700090408
10.0,0.005055130459368229
11.0,0.004650259390473366
12.0,0.00424997741356492
13.0,0.0037802669685333967
14.0,0.0034515331499278545
15.0,0.0031924168579280376
16.0,0.0029695939738303423
18.0,0.002810451900586486
20.0,0.0027177208103239536
22.0,0.002537122927606106
24.0,0.002312581054866314
26.0,0.0021532855462282896
28.0,0.001968907192349434
30.0,0.001795115415006876
32.0,0.001754585187882185
36.0,0.0014806005638092756
40.0,0.0012405732413753867
44.0,0.0008016350911930203
48.0,0.0006100386963225901
52.0,0.00039393911720253527
56.0,0.00011181330046383664
60.0,-1.3991312698635738e-05
64.0,-6.998100434429944e-05
72.0,0.0001773362746462226
80.0,3.284159902250394e-05
88.0,2.6745606191980187e-06
96.0,-0.00059057108592242
104.0,-0.00036974006798118353
112.0,-5.591236913460307e-05
120.0,0.00019611106836237013
128.0,0.000261554989265278
144.0,0.0005667470395565033
160.0,0.0003369900514371693
176.0,-5.5350519687635824e-05
192.0,-8.675803837832063e-05
208.0,-0.00012285186676308513
224.0,-4.864783841185272e-05
240.0,0.0003826368192676455
256.0,0.00012703730317298323
288.0,9.001959551824257e-05
320.0,-0.0002723490761127323
352.0,0.00046315218787640333
384.0,-0.00012235836766194552
416.0,-0.00018928680219687521
448.0,-0.00012491521192714572
480.0,0.0001551129826111719
512.0,0.00031415134435519576
576.0,0.00022297093528322875
640.0,8.89046277734451e-05
704.0,-1.5121014257601928e-05
768.0,0.00023887163843028247
832.0,-0.00044665447785519063
896.0,-0.0002533269871491939
960.0,3.226876287953928e-05
1024.0,-5.838071592734195e-05
1152.0,3.5002899494429585e-06
1280.0,-9.503964975010604e-05
1408.0,-0.0005018377560190856
1536.0,-0.0001873413275461644
1664.0,-0.00030516073456965387
1792.0,0.00020952023623976856
1920.0,-1.7911914255819283e-05
2048.0,5.603321551461704e-05
2304.0,6.341509288176894e-05
2560.0,0.00022253692441154271
2816.0,0.0003544835199136287
3072.0,-7.747855852358043e-05
3328.0,3.9802471292205155e-05
3584.0,-0.00014457594079431146
3840.0,5.2059473091503605e-05
4096.0,-6.39557620161213e-05
4608.0,-0.0002467892481945455
5120.0,-5.015932401875034e-05
5632.0,-0.00013068786938674748
6144.0,-0.00024609221145510674
6656.0,-8.038320811465383e-05
7168.0,-0.0003788350149989128
7680.0,0.00018492876552045345
8192.0,0.0002186176716350019
9216.0,-8.825496479403228e-05
10240.0,1.7482931070844643e-05
11264.0,3.8748010410927236e-05
12288.0,0.0001744607143336907
13312.0,0.00010605452553136274
14336.0,-0.00016473505820613354
end
