version,3.0
numOfCh,1
type,point
parent_name,10-cuts
ch_type,1_1
kcount,1
numberNandB,1
brightnessNandB,1
carpet pos,0
pc,0
Time (ms),CH1 Auto-Correlation
1.0,0.02711324952542782
2.0,0.0223582461476326
3.0,0.018963102251291275
4.0,0.01651022769510746
5.0,0.014839896000921726
6.0,0.013379048556089401
7.0,0.012318822555243969
8.0,0.01133804116398096
9.0,0.010447334498167038
10.0,0.009676658548414707
11.0,0.008969559334218502
12.0,0.008501925505697727
13.0,0.007919716648757458
14.0,0.00745983375236392
15.0,0.006844260264188051
16.0,0.006483196280896664
18.0,0.0061482316814363
20.0,0.00555619690567255
22.0,0.0051205758936703205
24.0,0.004830675665289164
26.0,0.004609229974448681
28.0,0.004337780177593231
30.0,0.0040354118682444096
32.0,0.0038144891150295734
36.0,0.003774501383304596
40.0,0.00316856661811471
44.0,0.0029042880050837994
48.0,0.002559351734817028
52.0,0.0028005896601825953
56.0,0.0024643936194479465
60.0,0.0022545973770320415
64.0,0.002292308257892728
72.0,0.0025065038353204727
80.0,0.0015915775438770652
88.0,0.0009078799048438668
96.0,0.0010256405221298337
104.0,0.0009540596511214972
112.0,0.0002656897995620966
120.0,-0.0005274234572425485
128.0,-0.0006864011520519853
144.0,-0.00014518923126161098
160.0,-0.0007467246032319963
176.0,-0.0007446884410455823
192.0,-0.0005253278650343418
208.0,0.00037267187144607306
224.0,-0.00046284834388643503
240.0,0.00018303681281395257
256.0,-0.00019923791114706546
288.0,0.0006067110225558281
320.0,0.00020463533292058855
352.0,0.0002497860696166754
384.0,-0.00010277952969772741
416.0,-0.0002478718524798751
448.0,3.0517720006173477e-05
480.0,-0.00019274889200460166
512.0,-0.0003044923359993845
576.0,-0.00022558774799108505
640.0,-0.0006566924857906997
704.0,-0.0013147853314876556
768.0,-0.0003654619213193655
832.0,0.0007794272969476879
896.0,0.0003656145418062806
960.0,-0.0006175263551995158
1024.0,-0.0009098955779336393
1152.0,-8.360960055142641e-05
1280.0,0.0007118062931112945
1408.0,0.0009763438138179481
1536.0,-0.0002225215284852311
1664.0,0.00047748108045198023
1792.0,0.0007854221621528268
1920.0,-0.0007159516680985689
2048.0,-0.0007421717164106667
2304.0,8.133480878314003e-05
2560.0,0.00022026628721505404
2816.0,0.00024922474403865635
3072.0,0.0002208992518717423
3328.0,-0.00043296071817167103
3584.0,-0.0006082369945943356
3840.0,-0.0003211570729035884
4096.0,0.0004032004508189857
4608.0,-0.0001655451487749815
5120.0,-0.0003988229436799884
5632.0,-0.0002626813657116145
6144.0,-0.00012097122089471668
6656.0,-7.292199006769806e-05
7168.0,-0.0001872846478363499
7680.0,-0.00017577946709934622
8192.0,0.00017286566435359418
9216.0,0.0004286009934730828
10240.0,0.0003572690184228122
11264.0,-0.00016466775559820235
12288.0,0.00010344244947191328
13312.0,-0.00018845341401174664
14336.0,-0.00021052440570201725
end
