version,3.0
numOfCh,1
type,point
parent_name,10-cuts
ch_type,1_1
kcount,1
numberNandB,1
brightnessNandB,1
carpet pos,0
pc,0
Time (ms),CH1 Auto-Correlation
1.0,0.0187566839158535
2.0,0.015825901180505753
3.0,0.013690758496522903
4.0,0.01197080872952938
5.0,0.010743191465735435
6.0,0.009775565937161446
7.0,0.009015155024826527
8.0,0.00834158156067133
9.0,0.007816034369170666
10.0,0.007348368875682354
11.0,0.006994123104959726
12.0,0.006664587650448084
13.0,0.0063968319445848465
14.0,0.006105529144406319
15.0,0.0057478235103189945
16.0,0.005576726980507374
18.0,0.005235119257122278
20.0,0.004980370402336121
22.0,0.004856233950704336
24.0,0.004638918209820986
26.0,0.004447542130947113
28.0,0.00411820225417614
30.0,0.003700344590470195
32.0,0.003277992131188512
36.0,0.002704154932871461
40.0,0.002591814147308469
44.0,0.002181757241487503
48.0,0.0020481348037719727
52.0,0.002000955166295171
56.0,0.0018767851870507002
60.0,0.0018469506176188588
64.0,0.0020972418133169413
72.0,0.0022757533006370068
80.0,0.0022927343379706144
88.0,0.002256871899589896
96.0,0.0021286802366375923
104.0,0.0015212188009172678
112.0,0.0016867381054908037
120.0,0.0016340293223038316
128.0,0.001475982484407723
144.0,0.0010539800859987736
160.0,0.0011694394052028656
176.0,0.0013447388773784041
192.0,0.0012245547259226441
208.0,0.0011516117956489325
224.0,0.0010191963519901037
240.0,0.001004461431875825
256.0,0.001122663146816194
288.0,0.00037772749783471227
320.0,-9.008439519675449e-05
352.0,0.0003526752698235214
384.0,-0.0002544961462263018
416.0,-9.056318958755583e-06
448.0,-0.000246569950832054
480.0,-0.0004558535583782941
512.0,-0.00041735361446626484
576.0,-0.0006235979381017387
640.0,-0.0007272636867128313
704.0,-0.0005089716869406402
768.0,-0.00016359123401343822
832.0,-0.0003367318131495267
896.0,4.086639455636032e-05
960.0,0.00063321553170681
1024.0,0.0007513022283092141
1152.0,0.0005767203401774168
1280.0,0.00051171361701563
1408.0,0.00046867021592333913
1536.0,0.00012065972259733826
1664.0,0.0003967024676967412
1792.0,-0.00045310554560273886
1920.0,9.719225636217743e-05
2048.0,7.984130934346467e-05
2304.0,0.0002316433092346415
2560.0,0.00020455539925023913
2816.0,-0.00034435733687132597
3072.0,-0.0002430375898256898
3328.0,-0.0002123972517438233
3584.0,-0.000419428019085899
3840.0,-0.0006809388287365437
4096.0,-0.0007795771234668791
4608.0,0.00041519952355884016
5120.0,-0.0009607993415556848
5632.0,-1.7934009520104155e-05
6144.0,-0.00039976576226763427
6656.0,-0.0005622123717330396
7168.0,6.656316691078246e-05
7680.0,-0.0006301244138740003
8192.0,0.00019110532593913376
9216.0,0.00029848734266124666
10240.0,0.00045963688171468675
11264.0,9.29041016206611e-06
12288.0,0.0001378724118694663
13312.0,-0.00042034225771203637
14336.0,-0.0001249067427124828
end
