version,3.0
numOfCh,1
type,point
parent_name,10-cuts
ch_type,1_1
kcount,1
numberNandB,1
brightnessNandB,1
carpet pos,0
pc,0
Time (ms),CH1 Auto-Correlation
1.0,0.016811005771160126
2.0,0.014019003137946129
3.0,0.011940797790884972
4.0,0.010328440926969051
5.0,0.009124509990215302
6.0,0.008131634443998337
7.0,0.0072930981405079365
8.0,0.0065788091160357
9.0,0.0060686273500323296
10.0,0.0056152064353227615
11.0,0.005149615462869406
12.0,0.004875455051660538
13.0,0.004605032969266176
14.0,0.004337955731898546
15.0,0.004044676665216684
16.0,0.00373067450709641
18.0,0.0033805714920163155
20.0,0.003192982403561473
22.0,0.002854251768440008
24.0,0.0024447855539619923
26.0,0.0020768879912793636
28.0,0.0017300721956416965
30.0,0.0014291497645899653
32.0,0.0014495581854134798
36.0,0.0013270395575091243
40.0,0.0010570083977654576
44.0,0.0010204166173934937
48.0,0.0008727057138457894
52.0,0.000606721849180758
56.0,0.00025168436695821583
60.0,4.7448804252780974e-05
64.0,9.416728426003829e-05
72.0,-9.866394248092547e-05
80.0,0.00029238799470476806
88.0,0.0002442986296955496
96.0,1.2485455044952687e-05
104.0,-8.850621088640764e-05
112.0,-0.00034569617127999663
120.0,0.00010675413795979694
128.0,0.000521566194947809
144.0,0.000765846692956984
160.0,0.0005350413266569376
176.0,0.00012596212036442012
192.0,0.00019643298583105206
208.0,6.262658280320466e-05
224.0,0.0007109566358849406
240.0,0.0005906501901336014
256.0,0.000307081441860646
288.0,0.0004584532289300114
320.0,-0.0003767370362766087
352.0,0.0001412952842656523
384.0,0.00017424985708203167
416.0,-8.040741704462562e-06
448.0,0.00014319301408249885
480.0,-0.0001221951679326594
512.0,-0.0004491020808927715
576.0,-0.00022122600057628006
640.0,-0.0005839736550115049
704.0,0.00024032991495914757
768.0,-7.163068949012086e-05
832.0,-0.00022645294666290283
896.0,-0.0002861079410649836
960.0,0.000501104281283915
1024.0,5.054085704614408e-05
1152.0,-7.248236215673387e-05
1280.0,-4.259385241311975e-05
1408.0,0.0003069103986490518
1536.0,2.3603315639775246e-05
1664.0,0.00012488137872423977
1792.0,8.580242865718901e-05
1920.0,0.00029185027233324945
2048.0,-0.0006373863434419036
2304.0,5.899634197703563e-05
2560.0,-0.00015166042430792004
2816.0,0.0002669988898560405
3072.0,-8.880514360498637e-05
3328.0,-0.0002332335279788822
3584.0,-4.8823316319612786e-05
3840.0,7.296731200767681e-05
4096.0,7.955452019814402e-06
4608.0,-0.0003126366646029055
5120.0,-0.00032212992664426565
5632.0,0.00017697284056339413
6144.0,3.307154474896379e-05
6656.0,-0.00010311909136362374
7168.0,-0.0002343969972571358
7680.0,-9.210819553118199e-05
8192.0,-0.000254343292908743
9216.0,0.0001361516333417967
10240.0,8.971074566943571e-05
11264.0,0.00026429249555803835
12288.0,0.00029777182498946786
13312.0,2.5648861992522143e-05
14336.0,-0.00048260093899443746
end
