version,3.0
numOfCh,1
type,point
parent_name,10-cuts
ch_type,1_1
kcount,1
numberNandB,1
brightnessNandB,1
carpet pos,0
pc,0
Time (ms),CH1 Auto-Correlation
1.0,0.026200953871011734
2.0,0.021166570484638214
3.0,0.017738522961735725
4.0,0.015211627818644047
5.0,0.013236400671303272
6.0,0.011672918684780598
7.0,0.01057703047990799
8.0,0.009607372805476189
9.0,0.008579340763390064
10.0,0.007846765220165253
11.0,0.0072029572911560535
12.0,0.00651505496352911
13.0,0.006057309452444315
14.0,0.005665584001690149
15.0,0.005270431749522686
16.0,0.004917609039694071
18.0,0.004419672768563032
20.0,0.003904624143615365
22.0,0.003399723907932639
24.0,0.00314177549444139
26.0,0.0028912315610796213
28.0,0.0025835426058620214
30.0,0.0025597221683710814
32.0,0.002490348182618618
36.0,0.002478657988831401
40.0,0.0022222306579351425
44.0,0.001977005274966359
48.0,0.0015091142849996686
52.0,0.0012790655018761754
56.0,0.0010634923819452524
60.0,0.0011655301786959171
64.0,0.001049694954417646
72.0,0.0010324566392228007
80.0,0.0007366542122326791
88.0,0.00010025954543380067
96.0,0.0005200457526370883
104.0,0.00046887301141396165
112.0,0.0007993738981895149
120.0,0.00047423559590242803
128.0,0.0010149776935577393
144.0,0.0012940363958477974
160.0,0.0006598893087357283
176.0,0.0010988489957526326
192.0,0.00023971524205990136
208.0,0.0005487254820764065
224.0,0.0004410005349200219
240.0,0.0007332612876780331
256.0,0.00046056779683567584
288.0,0.0005194160039536655
320.0,0.001310670399107039
352.0,0.00037835107650607824
384.0,0.00040812764200381935
416.0,0.00022733375953976065
448.0,0.00034045064239762723
480.0,0.0006185697857290506
512.0,0.00033073374652303755
576.0,-0.0001934829488163814
640.0,0.00030396724469028413
704.0,0.00015487719792872667
768.0,0.00019907696696463972
832.0,0.0007333363173529506
896.0,0.00011006467684637755
960.0,-0.00018704045214690268
1024.0,-0.0004594970669131726
1152.0,0.0004578230145853013
1280.0,0.00020221227896399796
1408.0,0.0008455669158138335
1536.0,0.0003372728533577174
1664.0,-6.68195798425586e-06
1792.0,-0.00074758444679901
1920.0,-0.00043665978591889143
2048.0,-0.0005603055469691753
2304.0,-4.902625732938759e-05
2560.0,-0.00011910105968127027
2816.0,-0.00014621307491324842
3072.0,-0.0003850419307127595
3328.0,-0.0007562553510069847
3584.0,-0.00024022947764024138
3840.0,-8.401786180911586e-05
4096.0,-0.00012683728709816933
4608.0,0.00013886936358176172
5120.0,1.4132086107565556e-05
5632.0,9.664806566433981e-05
6144.0,0.00027979904552921653
6656.0,3.478964572423138e-05
7168.0,0.0005339118652045727
7680.0,0.00028042751364409924
8192.0,0.00022766197798773646
9216.0,-0.0007122641545720398
10240.0,-0.0005318834446370602
11264.0,0.00011279762111371383
12288.0,0.00022856782015878707
13312.0,-0.0005156255210749805
14336.0,-0.001613263855688274
end
