version,3.0
numOfCh,1
type,point
parent_name,10-cuts
ch_type,1_1
kcount,1
numberNandB,1
brightnessNandB,1
carpet pos,0
pc,0
Time (ms),CH1 Auto-Correlation
1.0,0.01579434797167778
2.0,0.012957221828401089
3.0,0.010881750844419003
4.0,0.009436649270355701
5.0,0.00825498253107071
6.0,0.0073678018525242805
7.0,0.006583623122423887
8.0,0.006077902391552925
9.0,0.005663095973432064
10.0,0.005230880342423916
11.0,0.004801644943654537
12.0,0.004447794519364834
13.0,0.004249062854796648
14.0,0.003991279285401106
15.0,0.003778532613068819
16.0,0.003675233107060194
18.0,0.0033796655479818583
20.0,0.0030543305911123753
22.0,0.0027637190651148558
24.0,0.002394971437752247
26.0,0.0020973789505660534
28.0,0.0020729403477162123
30.0,0.0020284971687942743
32.0,0.0018469379283487797
36.0,0.0016898586181923747
40.0,0.0015528156654909253
44.0,0.0014456459321081638
48.0,0.0013114010216668248
52.0,0.001092030550353229
56.0,0.0008406498236581683
60.0,0.0008042656118050218
64.0,0.0008249051752500236
72.0,0.0007422945345751941
80.0,0.0008678889134898782
88.0,0.0008728510001674294
96.0,0.0009873133385553956
104.0,0.0005854059709236026
112.0,0.0002704138751141727
120.0,8.001853711903095e-05
128.0,0.00023053873155731708
144.0,0.0003019651921931654
160.0,7.935739267850295e-05
176.0,0.00034297825186513364
192.0,0.00022192791220732033
208.0,-0.00010291725629940629
224.0,-5.084849908598699e-05
240.0,-3.259679215261713e-05
256.0,-0.00010234188084723428
288.0,1.0377021681051701e-05
320.0,0.0002513298823032528
352.0,0.00028971617575734854
384.0,0.00019945456006098539
416.0,0.00015342797269113362
448.0,-0.0003985067014582455
480.0,-0.0006299365195445716
512.0,-0.0007399935275316238
576.0,-0.00025168241700157523
640.0,-0.0005301510100252926
704.0,-0.00036526506301015615
768.0,-5.265023355605081e-05
832.0,-4.668125257012434e-05
896.0,-0.00048342038644477725
960.0,-0.000357104028807953
1024.0,0.00016698848048690706
1152.0,0.0003439785214141011
1280.0,0.00013489089906215668
1408.0,0.00021886161994189024
1536.0,-7.754934631520882e-05
1664.0,-4.291772347642109e-05
1792.0,0.00017271892284043133
1920.0,2.0257633877918124e-05
2048.0,0.00013668363681063056
2304.0,0.000264460570178926
2560.0,-0.0005979172419756651
2816.0,-0.0001989770826185122
3072.0,0.0001864368823589757
3328.0,0.0003627998230513185
3584.0,9.609217522665858e-05
3840.0,-0.0005098594119772315
4096.0,-0.00010993610339937732
4608.0,0.00024024007143452764
5120.0,0.00010460281919222325
5632.0,9.306064021075144e-05
6144.0,-0.00014742385246790946
6656.0,0.0001858221658039838
7168.0,-0.00016597042849753052
7680.0,-7.276865653693676e-05
8192.0,-3.190217466908507e-05
9216.0,2.979223609145265e-06
10240.0,-7.624566205777228e-05
11264.0,0.00025154781178571284
12288.0,-0.0002601500309538096
13312.0,-0.00047188636381179094
14336.0,-0.0004793287080246955
end
