version,3.0
numOfCh,1
type,point
parent_name,10-cuts
ch_type,1_1
kcount,1
numberNandB,1
brightnessNandB,1
carpet pos,0
pc,0
Time (ms),CH1 Auto-Correlation
1.0,0.02554214745759964
2.0,0.020923398435115814
3.0,0.01769661158323288
4.0,0.015144496224820614
5.0,0.013205553404986858
6.0,0.011724280193448067
7.0,0.010542313568294048
8.0,0.009419763460755348
9.0,0.008532745763659477
10.0,0.007707467768341303
11.0,0.00699671171605587
12.0,0.006465288810431957
13.0,0.00593772204592824
14.0,0.005516674369573593
15.0,0.005296225193887949
16.0,0.005158878862857819
18.0,0.004831207450479269
20.0,0.004509178455919027
22.0,0.004342437721788883
24.0,0.003959457390010357
26.0,0.0035606506280601025
28.0,0.003232915885746479
30.0,0.0027542700991034508
32.0,0.002384043065831065
36.0,0.0019484797958284616
40.0,0.0014495598152279854
44.0,0.0011388235725462437
48.0,0.0009127309895120561
52.0,0.0005757302860729396
56.0,0.000533897546119988
60.0,0.0006890496588312089
64.0,0.0009407686302438378
72.0,0.0007715208921581507
80.0,0.0006247659330256283
88.0,-0.00011271174298599362
96.0,-0.00020877215138170868
104.0,0.0001039031776599586
112.0,-0.0007135611958801746
120.0,-0.0010957837803289294
128.0,-0.0002378747594775632
144.0,-0.000302755186567083
160.0,0.0004950935835950077
176.0,0.0013037384487688541
192.0,0.0015891415532678366
208.0,0.0011128244223073125
224.0,0.0013352112146094441
240.0,0.0014381678774952888
256.0,0.0008191877859644592
288.0,-0.0003322268312331289
320.0,0.0004148160805925727
352.0,0.0009278960060328245
384.0,-0.00012956680438946933
416.0,8.04373121354729e-05
448.0,-0.0002200761082349345
480.0,-0.000356575328623876
512.0,-0.000790339196100831
576.0,0.00014395285688806325
640.0,0.0001712114899419248
704.0,-0.00029662076849490404
768.0,-0.0009181825444102287
832.0,-0.0008811634033918381
896.0,0.0005054001812823117
960.0,-0.00023302137560676783
1024.0,-0.0004253684019204229
1152.0,-0.00018983027257490903
1280.0,-3.557978061508038e-06
1408.0,0.00014033771003596485
1536.0,0.0007209359901025891
1664.0,0.0003860298020299524
1792.0,-0.00026574605726636946
1920.0,0.0005092879291623831
2048.0,0.00021353010379243642
2304.0,0.00025613378966227174
2560.0,-0.0001194240030599758
2816.0,-1.4396361621038523e-05
3072.0,-0.00014726529479958117
3328.0,-0.00022804350010119379
3584.0,-0.0001455860328860581
3840.0,-2.7293852326693013e-05
4096.0,-0.00022536783944815397
4608.0,-6.450083310483024e-05
5120.0,0.00024968956131488085
5632.0,-0.00031188371940515935
6144.0,-0.0001385851064696908
6656.0,0.00018562085460871458
7168.0,0.0005013272166252136
7680.0,1.6159088772838004e-05
8192.0,-0.00038461750955320895
9216.0,-4.595200880430639e-05
10240.0,-0.00035109621239826083
11264.0,-0.00013442488852888346
12288.0,-0.000474136380944401
13312.0,-0.0001774770935298875
14336.0,0.00022576848277822137
end
