version,3.0
numOfCh,1
type,point
parent_name,10-cuts
ch_type,1_1
kcount,1
numberNandB,1
brightnessNandB,1
carpet pos,0
pc,0
Time (ms),CH1 Auto-Correlation
1.0,0.01632443256676197
2.0,0.013301045633852482
3.0,0.011241881176829338
4.0,0.009780880995094776
5.0,0.008647830225527287
6.0,0.007671271916478872
7.0,0.00695502245798707
8.0,0.006222390569746494
9.0,0.005595909897238016
10.0,0.005164731293916702
11.0,0.00482341181486845
12.0,0.00452126981690526
13.0,0.0042818509973585606
14.0,0.004005134105682373
15.0,0.0036605708301067352
16.0,0.003522038459777832
18.0,0.0031728572212159634
20.0,0.0029935583006590605
22.0,0.0028177660424262285
24.0,0.0027518486604094505
26.0,0.0026042561512440443
28.0,0.0025768110062927008
30.0,0.0023799382615834475
32.0,0.002318096114322543
36.0,0.0018746857531368732
40.0,0.001645450247451663
44.0,0.0016875051660463214
48.0,0.0018122730543836951
52.0,0.0017206150805577636
56.0,0.0017246216302737594
60.0,0.0015374365029856563
64.0,0.0011772885918617249
72.0,0.0009262727107852697
80.0,0.0010911887511610985
88.0,0.0014189939247444272
96.0,0.0012829983606934547
104.0,0.0007412744453176856
112.0,0.0010284548625349998
120.0,0.0012497155694290996
128.0,0.001190927461721003
144.0,0.0005457366933114827
160.0,0.0004646082816179842
176.0,0.0008214701665565372
192.0,0.00019580073421820998
208.0,0.00015800638357177377
224.0,0.00018753930635284632
240.0,0.00019494887965265661
256.0,0.00018137137521989644
288.0,3.431701406952925e-05
320.0,0.00026162623544223607
352.0,-6.812467472627759e-05
384.0,0.00020053813932463527
416.0,0.00019852742843795568
448.0,0.000290083495201543
480.0,0.0004528832505457103
512.0,0.0007117577479220927
576.0,0.00011515073856571689
640.0,0.00012285560660529882
704.0,-1.5251194781740196e-05
768.0,-0.0004481851647142321
832.0,-0.00018001483113039285
896.0,-5.7570603530621156e-05
960.0,0.00018697897030506283
1024.0,7.520409417338669e-05
1152.0,-0.00043030240340158343
1280.0,-0.0008509318577125669
1408.0,-0.00029426877154037356
1536.0,0.00021885914611630142
1664.0,0.00025914853904396296
1792.0,-0.00023998244432732463
1920.0,0.0002327772817807272
2048.0,0.00027488477644510567
2304.0,-0.00021250528516247869
2560.0,4.414128125063144e-05
2816.0,0.00022986458498053253
3072.0,8.878378866938874e-05
3328.0,0.0003395287203602493
3584.0,0.00031110187410376966
3840.0,0.0004321022133808583
4096.0,-0.000300305662676692
4608.0,-0.00013786005729343742
5120.0,-0.00017714028945192695
5632.0,-0.00024644474615342915
6144.0,-0.00022645517310593277
6656.0,-0.0001345285854768008
7168.0,0.00016975837934296578
7680.0,-7.918164919828996e-05
8192.0,-0.00024353154003620148
9216.0,-0.00038539382512681186
10240.0,-0.0003300640091765672
11264.0,0.0005010656313970685
12288.0,-0.0004009778785984963
13312.0,-0.00010634395584929734
14336.0,-4.241328952048207e-06
end
