version,3.0
numOfCh,1
type,point
parent_name,10-cuts
ch_type,1_1
kcount,1
numberNandB,1
brightnessNandB,1
carpet pos,0
pc,0
Time (ms),CH1 Auto-Correlation
1.0,0.01633382774889469
2.0,0.013503041118383408
3.0,0.011528227478265762
4.0,0.01002113614231348
5.0,0.008833253756165504
6.0,0.00792468897998333
7.0,0.007139704655855894
8.0,0.00642681960016489
9.0,0.005763926077634096
10.0,0.005211659241467714
11.0,0.004794520325958729
12.0,0.0043820603750646114
13.0,0.004023771267384291
14.0,0.0037821070291101933
15.0,0.003583857323974371
16.0,0.0033734969329088926
18.0,0.003085464471951127
20.0,0.002805775497108698
22.0,0.0026442743837833405
24.0,0.0022978896740823984
26.0,0.0019722862634807825
28.0,0.0018300798255950212
30.0,0.0017552055651322007
32.0,0.0014973282814025879
36.0,0.0014649051008746028
40.0,0.0013164960546419024
44.0,0.0013251489726826549
48.0,0.0012680880026891828
52.0,0.0012729185400530696
56.0,0.001242558821104467
60.0,0.0012331876205280423
64.0,0.0011750936973839998
72.0,0.0010486271930858493
80.0,0.0008270198595710099
88.0,0.0006076280260458589
96.0,0.00023393028823193163
104.0,0.00010015766747528687
112.0,0.0002865857968572527
120.0,0.0006023285677656531
128.0,0.0004925948451273143
144.0,0.00020840205252170563
160.0,0.0006949261878617108
176.0,0.00038447449333034456
192.0,0.00010658783139660954
208.0,-0.0004441550699993968
224.0,-0.00010796535207191482
240.0,0.00022329956118483096
256.0,-2.7193580535822548e-05
288.0,8.94093100214377e-05
320.0,0.0005028184386901557
352.0,0.00051019067177549
384.0,0.00023986079031601548
416.0,-4.327475107857026e-05
448.0,-9.892868547467515e-05
480.0,0.0003826495085377246
512.0,4.825266660191119e-05
576.0,0.00014713345444761217
640.0,0.00029183801962062716
704.0,0.0008934783400036395
768.0,-2.651547583809588e-05
832.0,-0.0002731452404987067
896.0,-0.0002464535355102271
960.0,0.00012497889110818505
1024.0,0.0002857298240996897
1152.0,0.00018181496125180274
1280.0,-0.00015503086615353823
1408.0,-0.0005163809400983155
1536.0,-0.0005355271860025823
1664.0,-0.0006104552885517478
1792.0,-0.000234206163440831
1920.0,-0.00014196646225173026
2048.0,-0.00040549476398155093
2304.0,-0.00018854197696782649
2560.0,0.00010426522931084037
2816.0,-7.671638741157949e-05
3072.0,-0.00010311971709597856
3328.0,-0.00016151020827237517
3584.0,0.0004107234417460859
3840.0,0.00014956554514355958
4096.0,-0.00016201293328776956
4608.0,0.00018515139527153224
5120.0,0.0002897909434977919
5632.0,6.139595370768802e-06
6144.0,-5.568895721808076e-05
6656.0,-0.0003999287146143615
7168.0,-0.0004976052441634238
7680.0,-0.00023112769122235477
8192.0,2.54586229857523e-05
9216.0,0.0001620004914002493
10240.0,-0.0001658877736190334
11264.0,-0.00011447902943473309
12288.0,0.00012156234151916578
13312.0,-9.23716215766035e-05
14336.0,0.00010077261686092243
end
