version,3.0
numOfCh,1
type,point
parent_name,10-cuts
ch_type,1_1
kcount,1
numberNandB,1
brightnessNandB,1
carpet pos,0
pc,0
Time (ms),CH1 Auto-Correlation
1.0,0.026716656982898712
2.0,0.02190445363521576
3.0,0.018550630658864975
4.0,0.016089558601379395
5.0,0.01393321342766285
6.0,0.012334215454757214
7.0,0.010996920987963676
8.0,0.009960178285837173
9.0,0.009339398704469204
10.0,0.008673131465911865
11.0,0.008239620365202427
12.0,0.007710651960223913
13.0,0.007388358004391193
14.0,0.007158761844038963
15.0,0.006890714168548584
16.0,0.0066543989814817905
18.0,0.006014116574078798
20.0,0.005459671840071678
22.0,0.005181080661714077
24.0,0.004890014883130789
26.0,0.0045222751796245575
28.0,0.004190119449049234
30.0,0.00359506462700665
32.0,0.0032236482948064804
36.0,0.0027190782129764557
40.0,0.002457669237628579
44.0,0.0020073982886970043
48.0,0.002214338630437851
52.0,0.0021541223395615816
56.0,0.0020629409700632095
60.0,0.0017216254491358995
64.0,0.0011568735353648663
72.0,0.0012838417897000909
80.0,0.0011906184954568744
88.0,0.0010973303578794003
96.0,0.0005039178649894893
104.0,0.0001442541542928666
112.0,-9.056805538421031e-06
120.0,7.870166882639751e-05
128.0,-0.00023370988492388278
144.0,-7.58434398449026e-05
160.0,-0.00045989552745595574
176.0,0.00010486294195288792
192.0,0.000940141559112817
208.0,0.0012258195783942938
224.0,0.001051137805916369
240.0,0.00021476729307323694
256.0,0.0008007122087292373
288.0,0.0004176730872131884
320.0,-0.00046571571147069335
352.0,-0.00010126056440640241
384.0,0.000625892193056643
416.0,0.0007021210622042418
448.0,1.651478305575438e-05
480.0,-0.00031487338128499687
512.0,-0.0010463848011568189
576.0,-5.3407933592097834e-05
640.0,0.0008809104328975081
704.0,0.00015751246246509254
768.0,9.349448373541236e-05
832.0,0.0008235053392127156
896.0,0.0007713119266554713
960.0,-0.0005136570543982089
1024.0,0.00011119915143353865
1152.0,0.00027145189233124256
1280.0,0.00043680579983629286
1408.0,-9.623250662116334e-06
1536.0,0.00029955286299809813
1664.0,-0.00010005627700593323
1792.0,-0.0004420015320647508
1920.0,0.0003455129044596106
2048.0,0.0004145826678723097
2304.0,-0.00010643433779478073
2560.0,-2.4740091248531826e-05
2816.0,0.00031994233722798526
3072.0,-0.0007128868601284921
3328.0,-0.0004180064715910703
3584.0,0.00016762551967985928
3840.0,0.00012557052832562476
4096.0,-0.00019162781245540828
4608.0,-0.00026470961165614426
5120.0,-2.705143197090365e-05
5632.0,-0.0003753032360691577
6144.0,-0.00019246188458055258
6656.0,-0.0005198866710998118
7168.0,-0.00021787418518215418
7680.0,-0.0003865767503157258
8192.0,-0.0007412403356283903
9216.0,3.919585287803784e-05
10240.0,0.0002534459054004401
11264.0,0.00022261995763983577
12288.0,0.00042020188993774354
13312.0,0.00016806581697892398
14336.0,-0.00016890799452085048
end
