version,3.0
numOfCh,1
type,point
parent_name,10-cuts
ch_type,1_1
kcount,1
numberNandB,1
brightnessNandB,1
carpet pos,0
pc,0
Time (ms),CH1 Auto-Correlation
1.0,0.016637085005640984
2.0,0.013600556179881096
3.0,0.01159269455820322
4.0,0.009983415715396404
5.0,0.008738111704587936
6.0,0.007864084094762802
7.0,0.007165495306253433
8.0,0.006550532300025225
9.0,0.005967693869024515
10.0,0.0055015189573168755
11.0,0.005040283314883709
12.0,0.004750528372824192
13.0,0.004569271579384804
14.0,0.004404006991535425
15.0,0.004317471291869879
16.0,0.00421380577608943
18.0,0.0037044778000563383
20.0,0.003450822550803423
22.0,0.003226448083296418
24.0,0.003195744240656495
26.0,0.00316619873046875
28.0,0.0029667962808161974
30.0,0.002611197531223297
32.0,0.002407493768259883
36.0,0.0020711820106953382
40.0,0.0017072447808459401
44.0,0.0016901619965210557
48.0,0.0014342848444357514
52.0,0.0011675544083118439
56.0,0.0009177488973364234
60.0,0.0011237204307690263
64.0,0.001273120054975152
72.0,0.0008507788297720253
80.0,0.0006621910142712295
88.0,0.0004756482085213065
96.0,0.00010097026824951172
104.0,0.000270225660642609
112.0,0.0004230545600876212
120.0,0.0005944209406152368
128.0,0.00044769287342205644
144.0,-0.00013597517681773752
160.0,-0.00042318226769566536
176.0,-0.00034487652010284364
192.0,-0.00020559866970870644
208.0,-0.0003790904302150011
224.0,-0.0004630952316801995
240.0,-0.0003147146780975163
256.0,0.00013399614545051008
288.0,0.00029202018049545586
320.0,0.0001366275828331709
352.0,0.0002679137687664479
384.0,0.0003029799263458699
416.0,0.00014447954890783876
448.0,5.07463701069355e-05
480.0,0.000491016311571002
512.0,-3.0742095987079665e-05
576.0,-0.00018833184731192887
640.0,9.094667620956898e-05
704.0,-0.00015995485591702163
768.0,0.0006721111130900681
832.0,0.0003469330258667469
896.0,0.00013311732618603855
960.0,-0.0011203163303434849
1024.0,-0.00045879065874032676
1152.0,0.00038415141170844436
1280.0,-7.32263142708689e-05
1408.0,-6.662861414952204e-05
1536.0,-0.000240200140979141
1664.0,-0.0005642253672704101
1792.0,-0.0007209581672213972
1920.0,3.0232302378863096e-05
2048.0,2.5044375433935784e-05
2304.0,-0.00018737191567197442
2560.0,-6.318953819572926e-05
2816.0,-0.0005018912488594651
3072.0,-0.00017984917212743312
3328.0,6.22542793280445e-05
3584.0,-9.97205133899115e-05
3840.0,-1.246580359293148e-05
4096.0,0.00039500233833678067
4608.0,-3.083385672653094e-05
5120.0,0.00014870693848934025
5632.0,-9.106162178795785e-05
6144.0,-0.00012918910942971706
6656.0,0.0001468448172090575
7168.0,0.00023754181165713817
7680.0,0.0001420139305992052
8192.0,0.0003576625313144177
9216.0,-0.0002006771828746423
10240.0,-0.00022946708486415446
11264.0,0.00023456256894860417
12288.0,0.0002036589867202565
13312.0,0.00010795495472848415
14336.0,-0.000253476930083707
end
