version,3.0
numOfCh,1
type,point
parent_name,10-cuts
ch_type,1_1
kcount,1
numberNandB,1
brightnessNandB,1
carpet pos,0
pc,0
Time (ms),CH1 Auto-Correlation
1.0,0.01563062146306038
2.0,0.012689742259681225
3.0,0.010570486076176167
4.0,0.009002704173326492
5.0,0.007728041615337133
6.0,0.006764969322830439
7.0,0.006063239648938179
8.0,0.0054383608512580395
9.0,0.0049371253699064255
10.0,0.004455307498574257
11.0,0.004072656389325857
12.0,0.003749560099095106
13.0,0.003493265714496374
14.0,0.0033339576330035925
15.0,0.0031245944555848837
16.0,0.0028502275235950947
18.0,0.0026263445615768433
20.0,0.0024997617583721876
22.0,0.00209683645516634
24.0,0.0019057089230045676
26.0,0.001717052306048572
28.0,0.0017230231314897537
30.0,0.0017201044829562306
32.0,0.0015867825131863356
36.0,0.0011392607120797038
40.0,0.0009153324062936008
44.0,0.0008187117055058479
48.0,0.0007295933901332319
52.0,0.0004971519811078906
56.0,0.00022732109937351197
60.0,0.000532182224560529
64.0,0.0005659935995936394
72.0,0.00038813502760604024
80.0,0.0006685153348371387
88.0,0.0005701230256818235
96.0,0.0006053531542420387
104.0,0.0006535339634865522
112.0,0.00046067696530371904
120.0,0.00040640824590809643
128.0,-0.0001005252925097011
144.0,-0.00010873085557250306
160.0,0.00024008714535739273
176.0,0.0007630664040334523
192.0,0.00047425756929442286
208.0,0.0001239642733708024
224.0,-0.00027893317746929824
240.0,-0.0002268659882247448
256.0,-0.00026990188052877784
288.0,-0.00013521577056962997
320.0,-0.0002698444004636258
352.0,-0.0004045958339702338
384.0,-0.0001942085800692439
416.0,-0.00013630639296025038
448.0,-0.0002845838898792863
480.0,-7.439165347022936e-05
512.0,-0.0001776207354851067
576.0,-0.0003153627912979573
640.0,-1.8821270714397542e-05
704.0,0.00012789662287104875
768.0,-0.00014371209545060992
832.0,0.00014403570094145834
896.0,6.567632226506248e-05
960.0,-1.5543515473837033e-05
1024.0,-0.00013810563541483134
1152.0,-7.813622505636886e-05
1280.0,-0.00026934570632874966
1408.0,-0.00010219690011581406
1536.0,-0.00020889891311526299
1664.0,-0.00012481279554776847
1792.0,-0.000297401420539245
1920.0,-0.00014509446918964386
2048.0,-3.978755557909608e-06
2304.0,0.0001291921507799998
2560.0,0.00027331069577485323
2816.0,-6.753122579539195e-05
3072.0,-0.00040685973362997174
3328.0,-0.0004272241785656661
3584.0,0.00012052794772898778
3840.0,-3.079825546592474e-05
4096.0,-0.0001823560887714848
4608.0,0.0002691317640710622
5120.0,0.00013649639731738716
5632.0,0.00015539857849944383
6144.0,-0.0002589392533991486
6656.0,4.396477379486896e-05
7168.0,-0.00014179274148773402
7680.0,4.874003570876084e-05
8192.0,-0.00021459835988935083
9216.0,6.574485450983047e-05
10240.0,0.00019964489911217242
11264.0,-0.00013487385876942426
12288.0,3.7544473343587015e-06
13312.0,-7.814918353687972e-05
14336.0,0.0001320540177403018
end
