version,3.0
numOfCh,1
type,point
parent_name,10-cuts
ch_type,1_1
kcount,1
numberNandB,1
brightnessNandB,1
carpet pos,0
pc,0
Time (ms),CH1 Auto-Correlation
1.0,0.017148002982139587
2.0,0.014143584296107292
3.0,0.012097638100385666
4.0,0.010539596900343895
5.0,0.009453535079956055
6.0,0.008603237569332123
7.0,0.007886716164648533
8.0,0.007257976569235325
9.0,0.00657565426081419
10.0,0.0060753594152629375
11.0,0.005755007732659578
12.0,0.005452952813357115
13.0,0.00522405281662941
14.0,0.004923975095152855
15.0,0.004624655470252037
16.0,0.004459022078663111
18.0,0.004043684806674719
20.0,0.003738095285370946
22.0,0.0035566315054893494
24.0,0.0033696135506033897
26.0,0.0031740341801196337
28.0,0.002819070825353265
30.0,0.0024348990991711617
32.0,0.002235962077975273
36.0,0.0020264056511223316
40.0,0.0020573996007442474
44.0,0.002044869586825371
48.0,0.0015484645264223218
52.0,0.0013772823149338365
56.0,0.0014473734190687537
60.0,0.0015481000300496817
64.0,0.0013034340227022767
72.0,0.0014258201699703932
80.0,0.0012334971688687801
88.0,0.0010997647186741233
96.0,0.0010274973465129733
104.0,0.0007727592019364238
112.0,0.0006331884069368243
120.0,0.0005849272129125893
128.0,0.0004437835596036166
144.0,0.0002440373064018786
160.0,-0.0001250180066563189
176.0,0.0004463907389435917
192.0,0.00046017798013053834
208.0,0.00030968597275204957
224.0,-0.00022362438903655857
240.0,-0.00020836903422605246
256.0,0.0003676110354717821
288.0,6.17025070823729e-05
320.0,-0.00038190159830264747
352.0,-0.000691479304805398
384.0,-0.0001850914122769609
416.0,0.0002992698282469064
448.0,7.453827947756508e-06
480.0,-0.0002643459301907569
512.0,0.00044737631105817854
576.0,0.00028699974063783884
640.0,-0.00030274552409537137
704.0,0.000228397679165937
768.0,-0.0001021938442136161
832.0,0.00018925967742688954
896.0,-0.0001366536453133449
960.0,-0.00029190347413532436
1024.0,-0.0004195640212856233
1152.0,6.368549657054245e-05
1280.0,3.039981129404623e-05
1408.0,-0.0006614780286327004
1536.0,-0.0001362335024168715
1664.0,0.00017691095126792789
1792.0,-9.895557741401717e-05
1920.0,-7.767425267957151e-05
2048.0,0.00012157261517131701
2304.0,-0.00035500957164913416
2560.0,-0.0003028443898074329
2816.0,-0.00031961192144080997
3072.0,-7.09814194124192e-05
3328.0,8.801485819276422e-05
3584.0,0.000179721275344491
3840.0,0.00017783587099984288
4096.0,0.0002794151077978313
4608.0,-0.00019899937615264207
5120.0,0.00022252700000535697
5632.0,-0.0001755564153427258
6144.0,-0.00025063465000130236
6656.0,-0.0003710991586558521
7168.0,8.25134920887649e-05
7680.0,-0.00011481523688416928
8192.0,0.0006227670819498599
9216.0,0.00011246874055359513
10240.0,-0.0002596442645881325
11264.0,-0.0003813123912550509
12288.0,0.00026314417482353747
13312.0,0.000185229248018004
14336.0,-0.0005536420503631234
end
