version,3.0
numOfCh,1
type,point
parent_name,10-cuts
ch_type,1_1
kcount,1
numberNandB,1
brightnessNandB,1
carpet pos,0
pc,0
Time (ms),CH1 Auto-Correlation
1.0,0.016795039176940918
2.0,0.01374865509569645
3.0,0.011596482247114182
4.0,0.010060939937829971
5.0,0.00895100086927414
6.0,0.007996674627065659
7.0,0.007163554895669222
8.0,0.00647949380800128
9.0,0.005961359478533268
10.0,0.005483144428580999
11.0,0.005135120823979378
12.0,0.004797982983291149
13.0,0.004464237950742245
14.0,0.004181939177215099
15.0,0.00401386758312583
16.0,0.0038187981117516756
18.0,0.0034094532020390034
20.0,0.0031483827624469995
22.0,0.0030091300141066313
24.0,0.0029096610378473997
26.0,0.0027281695511192083
28.0,0.0024451848585158587
30.0,0.002276591956615448
32.0,0.0021161199547350407
36.0,0.001637177192606032
40.0,0.001327170291915536
44.0,0.0012950818054378033
48.0,0.0009975734865292907
52.0,0.0006084857741370797
56.0,0.0004098086792510003
60.0,0.0006179807824082673
64.0,0.0006782036507502198
72.0,0.0007492654258385301
80.0,0.0006006954936310649
88.0,0.0006115761934779584
96.0,0.0004723577294498682
104.0,0.0003612022555898875
112.0,0.00037051725666970015
120.0,0.0003007599152624607
128.0,0.0006372823845595121
144.0,0.00042287513497285545
160.0,0.00011299682955723256
176.0,-0.0001123221663874574
192.0,-0.00018334314518142492
208.0,-3.306561120552942e-05
224.0,-3.795695010921918e-05
240.0,0.00048081352724693716
256.0,0.0004266372125130147
288.0,-0.0004540343361441046
320.0,-0.0006367056048475206
352.0,-0.0004181688418611884
384.0,9.064891492016613e-05
416.0,1.960957206392777e-06
448.0,0.00022207951406016946
480.0,-0.0002610166557133198
512.0,-0.0002534349914640188
576.0,0.00030642354977317154
640.0,-0.00018728796567302197
704.0,0.0002374365576542914
768.0,1.3989796570967883e-05
832.0,0.00019650535250548273
896.0,0.0003056822170037776
960.0,0.0006109487148933113
1024.0,0.00030830258037894964
1152.0,-0.00044688937487080693
1280.0,-0.0005668891244567931
1408.0,-0.000677064061164856
1536.0,3.997556632384658e-05
1664.0,0.00014346626994665712
1792.0,-2.8714770451188087e-05
1920.0,-0.00014242769975680858
2048.0,-0.00017101496632676572
2304.0,-0.00010829891107277945
2560.0,0.0004278279666323215
2816.0,6.46586122456938e-05
3072.0,7.306238694582134e-05
3328.0,-0.00026780625921674073
3584.0,-0.00011295101285213605
3840.0,-3.2118688977789134e-05
4096.0,-0.00017637797282077372
4608.0,-0.0001356785505777225
5120.0,-0.00012167675595264882
5632.0,0.0001474879973102361
6144.0,9.315830538980663e-05
6656.0,-0.00011457587243057787
7168.0,-0.0001097571657737717
7680.0,-0.00024763139663264155
8192.0,-3.332252163090743e-05
9216.0,-7.724817260168493e-05
10240.0,0.00022323406301438808
11264.0,8.721701306058094e-05
12288.0,-0.0002459658426232636
13312.0,-0.0001442445209249854
14336.0,0.00011037737567676231
end
