version,3.0
numOfCh,1
type,point
parent_name,10-cuts
ch_type,1_1
kcount,1
numberNandB,1
brightnessNandB,1
carpet pos,0
pc,0
Time (ms),CH1 Auto-Correlation
1.0,0.01662485860288143
2.0,0.013693219050765038
3.0,0.011665730737149715
4.0,0.010157116688787937
5.0,0.008981029503047466
6.0,0.008040058426558971
7.0,0.007220657076686621
8.0,0.0066252462565898895
9.0,0.006174085196107626
10.0,0.005646382924169302
11.0,0.005155602470040321
12.0,0.004864627029746771
13.0,0.0045967563055455685
14.0,0.004330200143158436
15.0,0.003987314645200968
16.0,0.003700761590152979
18.0,0.0033818490337580442
20.0,0.0030974331311881542
22.0,0.002750650979578495
24.0,0.0023370827548205853
26.0,0.0020851148292422295
28.0,0.002029877621680498
30.0,0.0020616173278540373
32.0,0.00197346368804574
36.0,0.0018627208191901445
40.0,0.0017637173878028989
44.0,0.001680161920376122
48.0,0.0016180850798264146
52.0,0.00139319256413728
56.0,0.0009386895690113306
60.0,0.0005662907497026026
64.0,0.00042447971645742655
72.0,0.0006122032064013183
80.0,0.0006674955366179347
88.0,0.0007964184042066336
96.0,0.0005443085101433098
104.0,0.0002566855400800705
112.0,0.0001665479358052835
120.0,0.00020187847258057445
128.0,0.00010253260552417487
144.0,0.00015176240412984043
160.0,-0.0003531163965817541
176.0,9.888906788546592e-05
192.0,0.0003154287696816027
208.0,-0.00025427842047065496
224.0,-0.00044107428402639925
240.0,-0.00010341397137381136
256.0,-2.6859237550524995e-05
288.0,-0.0005430355085991323
320.0,-0.00030718997004441917
352.0,-0.000104982202174142
384.0,0.0007782522588968277
416.0,0.00030867187888361514
448.0,-0.00023770268307998776
480.0,-0.0002589980431366712
512.0,-0.0004866562958341092
576.0,-6.285578274400905e-05
640.0,-0.00027100322768092155
704.0,-1.6203553968807682e-05
768.0,0.0007908979314379394
832.0,0.0001650841295486316
896.0,3.7999285268597305e-05
960.0,-1.875678754004184e-05
1024.0,-9.121847688220441e-05
1152.0,0.00028463738271966577
1280.0,-0.0004408398235682398
1408.0,-0.0002660542377270758
1536.0,-0.00022500130580738187
1664.0,-0.00029510987224057317
1792.0,-6.505311466753483e-05
1920.0,-0.00038013001903891563
2048.0,-0.0007773609249852598
2304.0,8.247813809703075e-08
2560.0,-2.73200075753266e-05
2816.0,-0.00015867967158555984
3072.0,-3.537546581355855e-05
3328.0,8.45251779537648e-05
3584.0,0.00010193391790380701
3840.0,0.00013510804274119437
4096.0,0.00014513084897771478
4608.0,8.214517038140912e-06
5120.0,0.00032649101922288537
5632.0,-0.0001643005816731602
6144.0,-0.0001100259178201668
6656.0,-0.0003570119442883879
7168.0,-5.994785897200927e-05
7680.0,0.00013231295451987535
8192.0,2.5973344236263074e-05
9216.0,-3.1121780921239406e-05
10240.0,-0.00022819677542429417
11264.0,8.699848694959655e-05
12288.0,0.00011756512685678899
13312.0,-0.00035341150942258537
14336.0,0.00027943935128860176
end
