version,3.0
numOfCh,1
type,point
parent_name,10-cuts
ch_type,1_1
kcount,1
numberNandB,1
brightnessNandB,1
carpet pos,0
pc,0
Time (ms),CH1 Auto-Correlation
1.0,0.014623214490711689
2.0,0.011759361252188683
3.0,0.009835939854383469
4.0,0.008335381746292114
5.0,0.007237004116177559
6.0,0.006372845731675625
7.0,0.0056618982926011086
8.0,0.005126775708049536
9.0,0.004515965469181538
10.0,0.004007354844361544
11.0,0.0035880147479474545
12.0,0.00333053944632411
13.0,0.0031542330980300903
14.0,0.00285522174090147
15.0,0.0026503843255341053
16.0,0.0025452414993196726
18.0,0.0022071683779358864
20.0,0.0019675935618579388
22.0,0.0017707723891362548
24.0,0.0016337225679308176
26.0,0.0015201648930087686
28.0,0.0013666102895513177
30.0,0.0013131850864738226
32.0,0.0011868852889165282
36.0,0.0008911699987947941
40.0,0.0008234358974732459
44.0,0.000522472953889519
48.0,0.00047861674102023244
52.0,0.0004191165789961815
56.0,0.00025349712814204395
60.0,0.00024200846382882446
64.0,0.00037773765507154167
72.0,0.0005049865576438606
80.0,0.00019914109725505114
88.0,4.647672176361084e-05
96.0,-6.80480370647274e-05
104.0,0.0002943286672234535
112.0,0.000651285401545465
120.0,0.0008446284919045866
128.0,0.0006194167654030025
144.0,6.519306043628603e-05
160.0,-9.353284985991195e-05
176.0,0.0002806148258969188
192.0,-0.00033312058076262474
208.0,1.8897001154982718e-06
224.0,0.00029143597930669785
240.0,0.0004705678438767791
256.0,0.0005067665479145944
288.0,-9.813712676987052e-05
320.0,-9.588722605258226e-06
352.0,-0.00031615127227269113
384.0,-0.0005119576817378402
416.0,-0.0004182363918516785
448.0,-0.00028285867301747203
480.0,0.00015868153423070908
512.0,0.00024198321625590324
576.0,5.458204395836219e-05
640.0,3.6099980206927285e-05
704.0,7.034216832835227e-05
768.0,0.00029927078867331147
832.0,-4.1348372178617865e-05
896.0,-2.334616510779597e-06
960.0,0.00022158806677907705
1024.0,9.464471077080816e-05
1152.0,-9.949702507583424e-05
1280.0,0.00015889039786998183
1408.0,0.000176235509570688
1536.0,-0.00020250129455234855
1664.0,-0.00020143939764238894
1792.0,8.525785233359784e-05
1920.0,0.0005146691692061722
2048.0,0.00024090106307994574
2304.0,-3.31555784214288e-05
2560.0,-0.00022984444512985647
2816.0,6.400269194273278e-05
3072.0,-0.00017416222544852644
3328.0,0.00018848777108360082
3584.0,-2.8725162337650545e-05
3840.0,-0.0002305415109731257
4096.0,-0.0002520197303965688
4608.0,0.00011098061804659665
5120.0,-0.00011075110523961484
5632.0,7.180679676821455e-05
6144.0,-0.00022239919053390622
6656.0,0.00026623939629644156
7168.0,-0.00017390315770171583
7680.0,0.00017310561088379472
8192.0,-0.00027442953432910144
9216.0,-0.00011436221393523738
10240.0,2.7276812033960596e-05
11264.0,-0.00011986370373051614
12288.0,6.114653660915792e-05
13312.0,-0.00014834132161922753
14336.0,0.00011559954873519018
end
