version,3.0
numOfCh,1
type,point
parent_name,10-cuts
ch_type,1_1
kcount,1
numberNandB,1
brightnessNandB,1
carpet pos,0
pc,0
Time (ms),CH1 Auto-Correlation
1.0,0.015615295618772507
2.0,0.01272494625300169
3.0,0.010742760263383389
4.0,0.009342154487967491
5.0,0.008233700878918171
6.0,0.007406207732856274
7.0,0.0066558364778757095
8.0,0.006130021996796131
9.0,0.005647479556500912
10.0,0.005227416288107634
11.0,0.004745586775243282
12.0,0.004451526794582605
13.0,0.004225351382046938
14.0,0.00408773822709918
15.0,0.003941620700061321
16.0,0.003851314540952444
18.0,0.0036082491278648376
20.0,0.003331629326567054
22.0,0.0030475235544145107
24.0,0.0027895160019397736
26.0,0.0025635836645960808
28.0,0.002411657478660345
30.0,0.002153568435460329
32.0,0.001871790154837072
36.0,0.0015952433459460735
40.0,0.0014250560197979212
44.0,0.0013423431664705276
48.0,0.001147512812167406
52.0,0.0009741813992150128
56.0,0.0008566741598770022
60.0,0.0006659709615632892
64.0,0.00026775020523928106
72.0,0.0001231787318829447
80.0,9.039627184392884e-05
88.0,9.05848792172037e-05
96.0,0.00025493200519122183
104.0,1.819702811189927e-05
112.0,-5.2014929678989574e-05
120.0,-0.00015477598935831338
128.0,-0.0002926032757386565
144.0,-0.00038495927583426237
160.0,-0.0005048756138421595
176.0,-4.2394353840791155e-06
192.0,-0.00034370156936347485
208.0,-0.0002668137021828443
224.0,-0.00012109790986869484
240.0,-0.0001106266281567514
256.0,-0.0002375037147430703
288.0,-0.0002329883282072842
320.0,-0.00014642674068454653
352.0,-0.0002161335141863674
384.0,-0.0004263603768777102
416.0,-0.0006964792846702039
448.0,-0.0003428420750424266
480.0,0.0004211026825942099
512.0,-5.871880421182141e-05
576.0,5.332028740667738e-05
640.0,0.0003731299948412925
704.0,-3.233350071241148e-05
768.0,-0.00021210918202996254
832.0,0.0002987182524520904
896.0,0.00010826540528796613
960.0,-0.0001473750453442335
1024.0,0.00026418239576742053
1152.0,-7.555764022981748e-05
1280.0,1.1781467947002966e-05
1408.0,-0.00036129800719209015
1536.0,6.569734250660986e-05
1664.0,-0.00030282806255854666
1792.0,-8.755082671996206e-05
1920.0,-1.877709109976422e-05
2048.0,0.0003147535608150065
2304.0,-1.5476221960852854e-05
2560.0,0.0003937328001484275
2816.0,-0.00033728452399373055
3072.0,8.228247315855697e-05
3328.0,0.00022986061230767518
3584.0,-0.0002632155374158174
3840.0,-0.00015424781304318458
4096.0,-1.953378705366049e-05
4608.0,-2.353255513298791e-05
5120.0,1.1485319191706367e-05
5632.0,-0.0001025163583108224
6144.0,-0.00013256697275210172
6656.0,0.00011358705523889512
7168.0,-6.978824967518449e-05
7680.0,-2.9188393455115147e-05
8192.0,-0.00019465485820546746
9216.0,6.47271954221651e-05
10240.0,2.392199166934006e-05
11264.0,-0.00019402593898121268
12288.0,-6.209096227394184e-06
13312.0,8.078433893388137e-05
14336.0,1.3213802048994694e-05
end
