version,3.0
numOfCh,1
type,point
parent_name,10-cuts
ch_type,1_1
kcount,1
numberNandB,1
brightnessNandB,1
carpet pos,0
pc,0
Time (ms),CH1 Auto-Correlation
1.0,0.01735827513039112
2.0,0.014425314962863922
3.0,0.012359571643173695
4.0,0.01068100892007351
5.0,0.00920761376619339
6.0,0.008121509104967117
7.0,0.007299983408302069
8.0,0.00674912054091692
9.0,0.006145792547613382
10.0,0.0056914351880550385
11.0,0.005247240420430899
12.0,0.004911229480057955
13.0,0.004614430945366621
14.0,0.004246055148541927
15.0,0.003969521261751652
16.0,0.0038144097197800875
18.0,0.0034853362012654543
20.0,0.0033307052217423916
22.0,0.003127811010926962
24.0,0.002805544761940837
26.0,0.0023123035207390785
28.0,0.0020941689144819975
30.0,0.0021300436928868294
32.0,0.002148222178220749
36.0,0.0018897049594670534
40.0,0.001653594896197319
44.0,0.0016887621022760868
48.0,0.0013953335583209991
52.0,0.0013242207933217287
56.0,0.0013046255335211754
60.0,0.0011108539765700698
64.0,0.0011016805656254292
72.0,0.000933268282096833
80.0,0.0007394040585495532
88.0,0.0006288225995376706
96.0,0.0002873073681257665
104.0,0.0006999350734986365
112.0,0.0008361851214431226
120.0,0.0006428638007491827
128.0,0.0009928194340318441
144.0,0.0009504092740826309
160.0,0.0004362399340607226
176.0,0.0001535936607979238
192.0,2.5086194000323303e-05
208.0,-0.00027943914756178856
224.0,-0.00016409120871685445
240.0,0.00031321702408604324
256.0,0.0003707740397658199
288.0,-0.0001117410502047278
320.0,-0.0003104287607129663
352.0,-0.0001828434906201437
384.0,-0.00028992004808969796
416.0,-0.0003691946913022548
448.0,-0.0002268699463456869
480.0,-1.6087420590338297e-05
512.0,0.00042658764868974686
576.0,-5.669548045261763e-05
640.0,0.0002760961651802063
704.0,5.0275750254513696e-05
768.0,-5.784596942248754e-05
832.0,0.00012402571155689657
896.0,3.3207634260179475e-05
960.0,-0.0002684732899069786
1024.0,-0.00011482990521471947
1152.0,0.00023407670960295945
1280.0,0.0002040937397396192
1408.0,0.00035517002106644213
1536.0,0.00017586347530595958
1664.0,-9.145465446636081e-05
1792.0,-0.0001489644928369671
1920.0,-0.0004991191090084612
2048.0,-0.0003956077853217721
2304.0,-0.00017229403601959348
2560.0,-3.758144202947733e-06
2816.0,0.0006470315274782479
3072.0,-2.6435853214934468e-05
3328.0,-0.0003713293408509344
3584.0,-4.34141511505004e-05
3840.0,0.00022048564278520644
4096.0,0.0005326547543518245
4608.0,0.00016969433636404574
5120.0,-0.00015099049778655171
5632.0,-1.4740609003638383e-05
6144.0,-0.0006287343567237258
6656.0,0.0001398660970153287
7168.0,0.00015727459685876966
7680.0,0.000352677860064432
8192.0,0.0001366201468044892
9216.0,-2.9313008781173266e-05
10240.0,-5.1207385695306584e-05
11264.0,-0.00015108716615941375
12288.0,-0.0001600192772457376
13312.0,-0.0009842031868174672
14336.0,-0.00023292421246878803
end
