version,3.0
numOfCh,1
type,point
parent_name,10-cuts
ch_type,1_1
kcount,1
numberNandB,1
brightnessNandB,1
carpet pos,0
pc,0
Time (ms),CH1 Auto-Correlation
1.0,0.026710934937000275
2.0,0.021791787818074226
3.0,0.01830989308655262
4.0,0.015901144593954086
5.0,0.0141025735065341
6.0,0.012600244022905827
7.0,0.011288733221590519
8.0,0.010382386855781078
9.0,0.009603341110050678
10.0,0.00885063223540783
11.0,0.008010928519070148
12.0,0.007214346434921026
13.0,0.0064354632049798965
14.0,0.0061144051142036915
15.0,0.005706027615815401
16.0,0.005405117757618427
18.0,0.004986920859664679
20.0,0.004530113656073809
22.0,0.0041234311647713184
24.0,0.004068685695528984
26.0,0.003650788450613618
28.0,0.0030717109329998493
30.0,0.002675731899216771
32.0,0.0023129978217184544
36.0,0.0020125105511397123
40.0,0.0017404287355020642
44.0,0.0013583688996732235
48.0,0.0005601437296718359
52.0,0.000466630095615983
56.0,0.0003890318621415645
60.0,6.43904713797383e-05
64.0,-0.0001930743601405993
72.0,-0.00026571203488856554
80.0,-0.0010811741231009364
88.0,-0.0009008641936816275
96.0,-2.8093318178434856e-05
104.0,0.00100328482221812
112.0,0.0013627090957015753
120.0,0.0017564055742695928
128.0,0.0010528659913688898
144.0,0.001098940963856876
160.0,0.0007860857876949012
176.0,0.0005816788761876523
192.0,-0.0006134492577984929
208.0,-0.0001887062389869243
224.0,0.00014411906886380166
240.0,-0.00023899284133221954
256.0,0.0005880818935111165
288.0,0.0004462235083337873
320.0,0.0004974802141077816
352.0,-0.00021558992739301175
384.0,-1.3164491974748671e-05
416.0,0.00022720506240148097
448.0,-0.00023069769667927176
480.0,-0.0008243556367233396
512.0,-0.0007737764390185475
576.0,-0.0004195437068119645
640.0,0.0003064699994865805
704.0,0.00013350136578083038
768.0,0.0007554824114777148
832.0,0.00012507601059041917
896.0,0.0005566816544160247
960.0,0.0005003787227906287
1024.0,2.2417860236600973e-05
1152.0,0.000493151368573308
1280.0,-0.00010652505443431437
1408.0,0.00020728624076582491
1536.0,-0.000267576688202098
1664.0,0.00027270015561953187
1792.0,0.00013263292203191668
1920.0,-0.0005739424959756434
2048.0,-0.00016670493641868234
2304.0,-0.0003059868176933378
2560.0,-0.0005480214022099972
2816.0,-0.0001663283328525722
3072.0,-2.765031240414828e-05
3328.0,-0.00025483706849627197
3584.0,-0.00043870104127563536
3840.0,-0.00029319815803319216
4096.0,0.00010181646212004125
4608.0,-0.0001078080094885081
5120.0,0.0001636094384593889
5632.0,0.00023698247969150543
6144.0,-2.420247437839862e-05
6656.0,-0.00022282544523477554
7168.0,-0.00018986094801221043
7680.0,-0.00038858267362229526
8192.0,-7.586064020870253e-05
9216.0,0.00030991988023743033
10240.0,0.00011355583410477266
11264.0,-0.00011248472583247349
12288.0,4.4149841414764524e-05
13312.0,-0.00018301454838365316
14336.0,0.00042897919774986804
end
