version,3.0
numOfCh,1
type,point
parent_name,10-cuts
ch_type,1_1
kcount,1
numberNandB,1
brightnessNandB,1
carpet pos,0
pc,0
Time (ms),CH1 Auto-Correlation
1.0,0.015818078070878983
2.0,0.012991233728826046
3.0,0.011053979396820068
4.0,0.009652906097471714
5.0,0.008496114984154701
6.0,0.007572110276669264
7.0,0.006874839309602976
8.0,0.006330545525997877
9.0,0.005827029701322317
10.0,0.005415202584117651
11.0,0.005143376998603344
12.0,0.004788911901414394
13.0,0.004548896569758654
14.0,0.004249304533004761
15.0,0.004081870894879103
16.0,0.003906519152224064
18.0,0.0035936455242335796
20.0,0.003132003592327237
22.0,0.002567530842497945
24.0,0.002221879316493869
26.0,0.0020646105986088514
28.0,0.0019134811591356993
30.0,0.001745055429637432
32.0,0.0016747015761211514
36.0,0.0013692622305825353
40.0,0.0011595247779041529
44.0,0.0009897351264953613
48.0,0.0009703122195787728
52.0,0.0007980699301697314
56.0,0.0006927713402546942
60.0,0.0005848059081472456
64.0,0.0006067255162633955
72.0,0.0005550347850658
80.0,0.00021045401808805764
88.0,0.00037675665225833654
96.0,0.000664329796563834
104.0,0.0005311293061822653
112.0,0.0002664813073351979
120.0,0.00010599674715194851
128.0,4.6556611778214574e-05
144.0,0.00026748108211904764
160.0,0.00033418170642107725
176.0,8.291918493341655e-05
192.0,-0.00018225875101052225
208.0,-0.00040429376531392336
224.0,-0.00030401471303775907
240.0,-0.0003533360722940415
256.0,-3.26010886055883e-05
288.0,0.0003124913782812655
320.0,5.629661973216571e-05
352.0,-0.00016104285896290094
384.0,-0.0002575906692072749
416.0,7.558077049907297e-05
448.0,-0.00012645311653614044
480.0,1.6633902077956009e-06
512.0,0.0002520393463782966
576.0,0.0005300762131810188
640.0,0.0001719173596939072
704.0,-0.00018023316806647927
768.0,-5.098713154438883e-05
832.0,6.709939771099016e-05
896.0,0.00018682179506868124
960.0,-0.0002368983841734007
1024.0,0.0001685083407210186
1152.0,-5.096461973153055e-05
1280.0,0.00013154704356566072
1408.0,0.00017462094547227025
1536.0,8.225780766224489e-05
1664.0,-0.00018567392544355243
1792.0,0.00010248953913105652
1920.0,-2.5580769943189807e-05
2048.0,3.862464291159995e-05
2304.0,-4.244717274559662e-05
2560.0,0.00018828042084351182
2816.0,0.00044941154192201793
3072.0,4.610836913343519e-05
3328.0,0.00030622477061115205
3584.0,-0.0001620591792743653
3840.0,0.00015690497821196914
4096.0,-0.0001658773107919842
4608.0,-5.836305717821233e-05
5120.0,-0.0002844197442755103
5632.0,7.904136145953089e-05
6144.0,-0.00015311143943108618
6656.0,6.416472751880065e-05
7168.0,-0.0002581611624918878
7680.0,-0.0003249906003475189
8192.0,-0.00013888230023439974
9216.0,-0.0002802283561322838
10240.0,5.058427177573321e-06
11264.0,-5.738686377299018e-05
12288.0,-0.00020743219647556543
13312.0,0.00023911141033750027
14336.0,-3.5643039154820144e-05
end
