version,3.0
numOfCh,1
type,point
parent_name,10-cuts
ch_type,1_1
kcount,1
numberNandB,1
brightnessNandB,1
carpet pos,0
pc,0
Time (ms),CH1 Auto-Correlation
1.0,0.026838257908821106
2.0,0.022184638306498528
3.0,0.018907012417912483
4.0,0.016507482156157494
5.0,0.014600114896893501
6.0,0.012988139875233173
7.0,0.011606387794017792
8.0,0.01067325472831726
9.0,0.010034848935902119
10.0,0.009255172684788704
11.0,0.008565934374928474
12.0,0.007846774533390999
13.0,0.007238405756652355
14.0,0.006934010423719883
15.0,0.006604501511901617
16.0,0.0061003719456493855
18.0,0.00523369200527668
20.0,0.004658353049308062
22.0,0.004097728990018368
24.0,0.0036221605259925127
26.0,0.0033469523768872023
28.0,0.0029354505240917206
30.0,0.0027171564288437366
32.0,0.0025447173975408077
36.0,0.0019748660270124674
40.0,0.00156386848539114
44.0,0.001035534543916583
48.0,0.0008673433330841362
52.0,0.0010807231301441789
56.0,0.0011758535401895642
60.0,0.000776437227614224
64.0,0.00035803989158011973
72.0,0.0005055737565271556
80.0,0.0006713783368468285
88.0,-0.00020998233230784535
96.0,-0.00039099541027098894
104.0,-0.0006885839393362403
112.0,-0.0009534347336739302
120.0,-0.0006136737065389752
128.0,-0.0010498389601707458
144.0,-0.00022347569756675512
160.0,-0.0002994731767103076
176.0,0.00013521520304493606
192.0,0.0007312424131669104
208.0,0.0005436600185930729
224.0,0.000845764297991991
240.0,0.00043886483763344586
256.0,-0.00013603038678411394
288.0,0.0004452182911336422
320.0,-0.0006067932117730379
352.0,-0.0004017080063931644
384.0,-0.00033771496964618564
416.0,-0.00014207852655090392
448.0,0.00015442536096088588
480.0,-0.0007809076923877001
512.0,0.00016464221698697656
576.0,-0.0003042712341994047
640.0,0.0001874961017165333
704.0,-0.0008656872669234872
768.0,0.0005584449972957373
832.0,0.0008314138394780457
896.0,0.00021441724675241858
960.0,0.00020343385403975844
1024.0,0.0006952642579562962
1152.0,-0.0005113390507176518
1280.0,0.0003448143252171576
1408.0,-0.000150282823597081
1536.0,-0.0002540122077334672
1664.0,0.0005707081872969866
1792.0,0.0005125368479639292
1920.0,-0.0004422853235155344
2048.0,0.0007618613308295608
2304.0,0.00011694972636178136
2560.0,-0.00038362338091246784
2816.0,-0.00039743570960126817
3072.0,-1.5137829905143008e-05
3328.0,8.73504759510979e-05
3584.0,6.163178477436304e-05
3840.0,-0.00045155343832448125
4096.0,0.001216332777403295
4608.0,7.706668156970409e-07
5120.0,-5.1458217058097944e-05
5632.0,0.00026127530145458877
6144.0,-0.00021759308583568782
6656.0,-7.030773122096434e-05
7168.0,-0.0004728403000626713
7680.0,0.00020439487707335502
8192.0,-8.988391346065328e-05
9216.0,-0.00032307335641235113
10240.0,-4.5229928218759596e-05
11264.0,3.9409049350069836e-05
12288.0,-0.0001835752627812326
13312.0,3.871120497933589e-05
14336.0,-0.00012112913827877492
end
