version,3.0
numOfCh,1
type,point
parent_name,10-cuts
ch_type,1_1
kcount,1
numberNandB,1
brightnessNandB,1
carpet pos,0
pc,0
Time (ms),CH1 Auto-Correlation
1.0,0.015661193057894707
2.0,0.012870005331933498
3.0,0.01083381287753582
4.0,0.009261712431907654
5.0,0.00809558853507042
6.0,0.007153701037168503
7.0,0.006297636311501265
8.0,0.005517307203263044
9.0,0.004919756669551134
10.0,0.004425245802849531
11.0,0.003930957522243261
12.0,0.003550154622644186
13.0,0.0031982429791241884
14.0,0.002760004485026002
15.0,0.0024495713878422976
16.0,0.00225607817992568
18.0,0.0019191110040992498
20.0,0.001833749352954328
22.0,0.0018208784749731421
24.0,0.0017247815849259496
26.0,0.0014773559523746371
28.0,0.0010883496142923832
30.0,0.0008335532038472593
32.0,0.0007881625788286328
36.0,0.00031645194394513965
40.0,0.00033838971285149455
44.0,0.0004468872502911836
48.0,0.0004563556576613337
52.0,0.0004966824199073017
56.0,0.00031238613883033395
60.0,0.0003646667755674571
64.0,0.00012190394045319408
72.0,7.620377436978742e-05
80.0,-0.0004205178120173514
88.0,-0.0009087254875339568
96.0,-0.000635225442238152
104.0,-0.0005262874765321612
112.0,-0.0005877619259990752
120.0,-0.0006122548365965486
128.0,-0.0002845627604983747
144.0,-0.0005647445796057582
160.0,-1.7095846487791277e-05
176.0,0.0003857189731206745
192.0,0.0003709714801516384
208.0,0.00038100327947176993
224.0,0.0004969805595465004
240.0,0.00047747688950039446
256.0,6.834574014646932e-05
288.0,-0.00016391331155318767
320.0,-0.0003014002286363393
352.0,1.7311804185737856e-06
384.0,0.0003556916199158877
416.0,0.000505843956489116
448.0,0.00038273032987490296
480.0,-0.0001622080453671515
512.0,-0.0005352912703529
576.0,-5.9164289268665016e-05
640.0,-0.00014982228458393365
704.0,-0.00027515424881130457
768.0,-0.00032002871739678085
832.0,-0.0002697533054742962
896.0,0.00016006182704586536
960.0,0.00019264619913883507
1024.0,-0.00026507163420319557
1152.0,-0.00013401234173215926
1280.0,0.00011031111353076994
1408.0,-0.0001529848959762603
1536.0,-1.8200211343355477e-05
1664.0,-5.5948337831068784e-05
1792.0,-0.00014939533139113337
1920.0,0.00015476929547730833
2048.0,-0.00026681178133003414
2304.0,0.00018034213280770928
2560.0,0.0001183686763397418
2816.0,-2.105623389070388e-05
3072.0,-0.00023374895681627095
3328.0,8.787539263721555e-05
3584.0,0.00010184987331740558
3840.0,5.579488060902804e-05
4096.0,-0.00016657658852636814
4608.0,-9.815403609536588e-05
5120.0,-9.427857730770484e-05
5632.0,-8.325186354340985e-05
6144.0,0.00012600717309396714
6656.0,-2.3812568542780355e-05
7168.0,0.0002376401680521667
7680.0,-0.00016192848852369934
8192.0,0.00019655952928587794
9216.0,-2.394621515122708e-05
10240.0,-2.6688680009101517e-05
11264.0,-2.703449354157783e-05
12288.0,0.00012871842773165554
13312.0,-0.00031871104147285223
14336.0,0.0001390511606587097
end
