version,3.0
numOfCh,1
type,point
parent_name,10-cuts
ch_type,1_1
kcount,1
numberNandB,1
brightnessNandB,1
carpet pos,0
pc,0
Time (ms),CH1 Auto-Correlation
1.0,0.01626509428024292
2.0,0.013376765884459019
3.0,0.011385427787899971
4.0,0.009913797490298748
5.0,0.008727115578949451
6.0,0.0077460953034460545
7.0,0.007070343475788832
8.0,0.006487129256129265
9.0,0.005966864060610533
10.0,0.0055745807476341724
11.0,0.005275229923427105
12.0,0.0050607705488801
13.0,0.004721133038401604
14.0,0.004475509747862816
15.0,0.004241853952407837
16.0,0.003968673758208752
18.0,0.003493523458018899
20.0,0.0030700259376317263
22.0,0.0027849930338561535
24.0,0.002530834171921015
26.0,0.0022520278580486774
28.0,0.0020155864767730236
30.0,0.0018468407215550542
32.0,0.0017632415983825922
36.0,0.001774679170921445
40.0,0.0015046916669234633
44.0,0.0012353991623967886
48.0,0.0010186301078647375
52.0,0.0007339490693993866
56.0,0.0006104064523242414
60.0,0.00023621438595000654
64.0,0.00021639109763782471
72.0,0.0006254069157876074
80.0,0.0011028627632185817
88.0,0.001046910067088902
96.0,0.0010382328182458878
104.0,0.0009590761037543416
112.0,0.0007730245124548674
120.0,0.0007645615260116756
128.0,0.00021057785488665104
144.0,-0.00024839298566803336
160.0,-0.00024677879991941154
176.0,-7.073557935655117e-05
192.0,-0.00019849225645884871
208.0,-0.0002214254200225696
224.0,-6.0844531617476605e-06
240.0,-9.366626909468323e-05
256.0,-9.355181828141212e-05
288.0,-3.1815357942832634e-05
320.0,-0.0006140171317383647
352.0,-0.0002712236891966313
384.0,-0.00013556396879721433
416.0,3.0090859581832774e-05
448.0,0.0001955930347321555
480.0,0.000303114065900445
512.0,-1.4933952115825377e-05
576.0,-0.00011748909309972078
640.0,-0.0003390709753148258
704.0,-0.0010734664974734187
768.0,0.00014894096239004284
832.0,-0.0001466216053813696
896.0,0.00015106520731933415
960.0,-3.8239944842644036e-05
1024.0,0.0002989541389979422
1152.0,-0.0006484190234914422
1280.0,-0.00015651505964342505
1408.0,-0.0003612819127738476
1536.0,-0.0003970318066421896
1664.0,-0.00047097832430154085
1792.0,-9.091389074455947e-05
1920.0,-0.00038274467806331813
2048.0,0.0006146937375888228
2304.0,0.0002739467308856547
2560.0,-0.00028420344460755587
2816.0,0.00013820422464050353
3072.0,0.0005631479434669018
3328.0,-0.0003484651679173112
3584.0,0.00030935046379454434
3840.0,-0.0004351360839791596
4096.0,0.00045625842176377773
4608.0,-0.000223344934056513
5120.0,-6.872105586808175e-05
5632.0,-0.00015899105346761644
6144.0,0.00025126402033492923
6656.0,9.242884698323905e-05
7168.0,4.559822627925314e-05
7680.0,-0.0003501146857161075
8192.0,0.00017367053078487515
9216.0,5.340562711353414e-05
10240.0,-6.200784810062032e-06
11264.0,4.744645411847159e-05
12288.0,-0.00014457890938501805
13312.0,0.0002783556701615453
14336.0,-7.599894161103293e-05
end
