version,3.0
numOfCh,1
type,point
parent_name,10-cuts
ch_type,1_1
kcount,1
numberNandB,1
brightnessNandB,1
carpet pos,0
pc,0
Time (ms),CH1 Auto-Correlation
1.0,0.015725519508123398
2.0,0.012899515219032764
3.0,0.010829538106918335
4.0,0.009322919882833958
5.0,0.0080552464351058
6.0,0.007214782759547234
7.0,0.006446392275393009
8.0,0.005808307323604822
9.0,0.00533103384077549
10.0,0.004760513082146645
11.0,0.004392045550048351
12.0,0.004039030522108078
13.0,0.0036879144608974457
14.0,0.003390990663319826
15.0,0.0031471571419388056
16.0,0.0029506527353078127
18.0,0.002657481236383319
20.0,0.002345399232581258
22.0,0.002134533366188407
24.0,0.001969520468264818
26.0,0.001774656237103045
28.0,0.0016571155283600092
30.0,0.0015435782261192799
32.0,0.001552424393594265
36.0,0.001265931990928948
40.0,0.0011320330668240786
44.0,0.0009091684478335083
48.0,0.0005039832904003561
52.0,0.00022998618078418076
56.0,0.00019635414355434477
60.0,0.000341725506586954
64.0,0.0004677852848544717
72.0,0.0002114991075359285
80.0,-6.447394298447762e-06
88.0,-4.488242484512739e-05
96.0,-0.00010759117867564783
104.0,0.0004376523429527879
112.0,0.000488029996631667
120.0,0.0001385611540172249
128.0,8.03151706350036e-05
144.0,0.0007307454361580312
160.0,0.0008370321593247354
176.0,0.0005151743534952402
192.0,0.0004535681800916791
208.0,0.0003392190847080201
224.0,5.3159379604039714e-05
240.0,-0.00018753338372334838
256.0,-0.00014098700194153935
288.0,9.610544657334685e-05
320.0,0.0001729474897729233
352.0,0.00012861449795309454
384.0,0.00011032866314053535
416.0,-0.00015677613555453718
448.0,0.000186989112989977
480.0,0.0004504372482188046
512.0,-0.0002617702994029969
576.0,-0.00039971322985365987
640.0,0.00025735225062817335
704.0,0.00011355408787494525
768.0,-0.0006314748316071928
832.0,-0.00032585792359896004
896.0,-0.0005828494904562831
960.0,-0.0004278874257579446
1024.0,3.704765185830183e-05
1152.0,-0.000364271312719211
1280.0,-0.0003141957859043032
1408.0,-0.00010771808592835441
1536.0,-0.0003120265027973801
1664.0,0.00031385046895593405
1792.0,0.00028212391771376133
1920.0,-1.974928454728797e-05
2048.0,0.0002568205236457288
2304.0,-0.00014035850472282618
2560.0,4.237025495967828e-05
2816.0,-0.0002566468610893935
3072.0,0.00026882148813456297
3328.0,0.00012883335875812918
3584.0,-0.0001144845227827318
3840.0,-2.8341883080429398e-05
4096.0,-0.00012370604963507503
4608.0,-1.7307387679466046e-05
5120.0,7.056960021145642e-05
5632.0,1.3493723827195936e-06
6144.0,-0.0001289143256144598
6656.0,6.24755266471766e-05
7168.0,7.437883596139727e-06
7680.0,8.755322778597474e-05
8192.0,-0.00035144976573064923
9216.0,0.0001469765993533656
10240.0,-0.00023304991191253066
11264.0,0.00016172033792827278
12288.0,9.825168672250584e-05
13312.0,0.00024134309205692261
14336.0,-0.00019829667871817946
end
