version,3.0
numOfCh,1
type,point
parent_name,10-cuts
ch_type,1_1
kcount,1
numberNandB,1
brightnessNandB,1
carpet pos,0
pc,0
Time (ms),CH1 Auto-Correlation
1.0,0.015272947028279305
2.0,0.012475257739424706
3.0,0.010592788457870483
4.0,0.009160583838820457
5.0,0.008041917346417904
6.0,0.007250127848237753
7.0,0.006543488707393408
8.0,0.005975075997412205
9.0,0.005471259821206331
10.0,0.005042803939431906
11.0,0.0047111171297729015
12.0,0.004314519464969635
13.0,0.003937976434826851
14.0,0.003625642741099
15.0,0.0033395926002413034
16.0,0.003077826229855418
18.0,0.002639555372297764
20.0,0.002197020221501589
22.0,0.0017611734801903367
24.0,0.0016493238508701324
26.0,0.0014660190790891647
28.0,0.0014398073544725776
30.0,0.0012942675966769457
32.0,0.0011817940976470709
36.0,0.0010739532299339771
40.0,0.0010656291851773858
44.0,0.0009608807158656418
48.0,0.0010112759191542864
52.0,0.0011168322525918484
56.0,0.001061912509612739
60.0,0.0008687631343491375
64.0,0.0006948183290660381
72.0,0.00042472154018469155
80.0,0.0005425644922070205
88.0,0.0004962828243151307
96.0,0.00042069118353538215
104.0,2.802869857987389e-05
112.0,-0.00018113634723704308
120.0,-0.0004657231329474598
128.0,-0.00031757474062033
144.0,-0.0003116489388048649
160.0,-0.00011932154302485287
176.0,-2.387872154940851e-05
192.0,0.00032670542714186013
208.0,0.0002465075231157243
224.0,3.687704520416446e-05
240.0,-0.0003296295180916786
256.0,2.3163067453424446e-05
288.0,-0.0003721766988746822
320.0,-0.000294478697469458
352.0,-0.00012749285087920725
384.0,0.00044125018757767975
416.0,0.0003532340924721211
448.0,0.0003241994127165526
480.0,0.0002607554488349706
512.0,-5.456543294712901e-05
576.0,-0.00022561817604582757
640.0,0.0001295013789786026
704.0,0.0003524495114106685
768.0,-0.00022899101895745844
832.0,-0.00048795415204949677
896.0,-8.350943971890956e-05
960.0,7.519905193476006e-05
1024.0,-0.00011979665578110144
1152.0,0.0001412382407579571
1280.0,-0.0001930434664245695
1408.0,-0.00030754468753002584
1536.0,-0.00016176365897990763
1664.0,-1.8584130884846672e-05
1792.0,7.595562055939808e-05
1920.0,-3.688575088744983e-05
2048.0,-0.00020393887825775892
2304.0,7.171653851401061e-05
2560.0,-0.00028095621382817626
2816.0,-6.302551628323272e-05
3072.0,0.00013288504851516336
3328.0,0.0002234192070318386
3584.0,7.099311915226281e-05
3840.0,0.0003636648179963231
4096.0,-4.7299821744672954e-05
4608.0,-6.203780503710732e-05
5120.0,-0.00013778604625258595
5632.0,-7.313927198993042e-05
6144.0,-3.5176475648768246e-05
6656.0,-6.0878024669364095e-05
7168.0,0.00012856863031629473
7680.0,0.0001531131420051679
8192.0,9.117279114434496e-05
9216.0,-0.0002319185878150165
10240.0,-0.00015800596156623214
11264.0,5.890768807148561e-05
12288.0,1.7640953956288286e-05
13312.0,-0.00010019791079685092
14336.0,-0.00010905689850915223
end
