version,3.0
numOfCh,1
type,point
parent_name,10-cuts
ch_type,1_1
kcount,1
numberNandB,1
brightnessNandB,1
carpet pos,0
pc,0
Time (ms),CH1 Auto-Correlation
1.0,0.01763956807553768
2.0,0.014625264331698418
3.0,0.01240925956517458
4.0,0.010758866555988789
5.0,0.009546075016260147
6.0,0.008588537573814392
7.0,0.007772406563162804
8.0,0.007004344370216131
9.0,0.006404868792742491
10.0,0.005747867748141289
11.0,0.00530241709202528
12.0,0.004899478983134031
13.0,0.00444414746016264
14.0,0.004081014543771744
15.0,0.0038098092190921307
16.0,0.0035094607155770063
18.0,0.003178594633936882
20.0,0.002909278031438589
22.0,0.0027401556726545095
24.0,0.0024498815182596445
26.0,0.0021324879489839077
28.0,0.001999941188842058
30.0,0.0019400781020522118
32.0,0.0018371772021055222
36.0,0.0015681714285165071
40.0,0.0014647471252828836
44.0,0.0017166666220873594
48.0,0.0015794173814356327
52.0,0.0012271335581317544
56.0,0.0009700397495180368
60.0,0.0009749899036251009
64.0,0.0009792435448616743
72.0,0.0013098913477733731
80.0,0.001041272422298789
88.0,0.0008455776842311025
96.0,0.0005984174204058945
104.0,0.0005550544010475278
112.0,0.0004886927199549973
120.0,0.00042703913641162217
128.0,0.0008693153504282236
144.0,0.0007801420870237052
160.0,0.00048523349687457085
176.0,0.0003530165704432875
192.0,0.00022495067969430238
208.0,-4.656402234104462e-05
224.0,3.0695398891111836e-05
240.0,-0.00010043084330391139
256.0,0.0003424878523219377
288.0,0.00018624380754772574
320.0,-0.0003809533372987062
352.0,0.00010690394265111536
384.0,-0.0001755597477313131
416.0,-0.00018585416546557099
448.0,0.0003175483725499362
480.0,0.000603451335337013
512.0,0.00029805462691001594
576.0,4.670782436733134e-05
640.0,0.0003834048693533987
704.0,-1.2933031939610373e-05
768.0,0.00017486041178926826
832.0,0.0005580974975600839
896.0,9.069748193724081e-05
960.0,0.0002051704068435356
1024.0,-0.00023255095584318042
1152.0,-0.000290155119728297
1280.0,-0.00022629392333328724
1408.0,-0.0005005218554288149
1536.0,0.00022074162552598864
1664.0,-0.00010363598266849294
1792.0,0.0002686839725356549
1920.0,-0.0001755307021085173
2048.0,-0.0004484924429561943
2304.0,0.00036111651570536196
2560.0,6.605529506487073e-06
2816.0,-3.32197014358826e-05
3072.0,4.8467125452589244e-05
3328.0,0.00017713525448925793
3584.0,-0.00015872536459937692
3840.0,-4.49067447334528e-05
4096.0,0.000544377660844475
4608.0,-0.00021014196681790054
5120.0,-0.0001599364768480882
5632.0,0.00012201924982946366
6144.0,0.0005338685587048531
6656.0,3.304002893855795e-05
7168.0,-0.0003019479336217046
7680.0,-0.0005245886277407408
8192.0,-0.00017137186659965664
9216.0,0.0002910039620473981
10240.0,-0.00024360025417990983
11264.0,-0.0005042959819547832
12288.0,8.303934009745717e-05
13312.0,-0.00021844102593604475
14336.0,-0.00031252444023266435
end
