version,3.0
numOfCh,1
type,point
parent_name,10-cuts
ch_type,1_1
kcount,1
numberNandB,1
brightnessNandB,1
carpet pos,0
pc,0
Time (ms),CH1 Auto-Correlation
1.0,0.017710864543914795
2.0,0.014726435765624046
3.0,0.012637054547667503
4.0,0.010977434925734997
5.0,0.00963528361171484
6.0,0.008600563742220402
7.0,0.007826132699847221
8.0,0.00725547643378377
9.0,0.006798464804887772
10.0,0.006400636397302151
11.0,0.006071100011467934
12.0,0.0057261488400399685
13.0,0.005489490460604429
14.0,0.005201234482228756
15.0,0.004987571854144335
16.0,0.004836327396333218
18.0,0.004605131223797798
20.0,0.004390682093799114
22.0,0.004163609817624092
24.0,0.0038611660711467266
26.0,0.003520446363836527
28.0,0.0030271406285464764
30.0,0.0027927549090236425
32.0,0.002577661769464612
36.0,0.0021948411595076323
40.0,0.0022020319011062384
44.0,0.0019710715860128403
48.0,0.0015896172262728214
52.0,0.001101466827094555
56.0,0.0013427945086732507
60.0,0.0013497329782694578
64.0,0.0012301778187975287
72.0,0.0009413572843186557
80.0,0.0010357049759477377
88.0,0.0008852892206050456
96.0,0.0005104574956931174
104.0,0.0003467209462542087
112.0,0.0004401915648486465
120.0,0.00036729895509779453
128.0,0.00026848280685953796
144.0,0.0003557392628863454
160.0,0.0003569758264347911
176.0,0.000350289570633322
192.0,0.00019562389934435487
208.0,0.00021009905321989208
224.0,-0.00020249299996066839
240.0,-0.0005374123575165868
256.0,-0.0003051560779567808
288.0,0.0005335097666829824
320.0,0.000591967545915395
352.0,-0.00015057054406497627
384.0,-0.0003476330894045532
416.0,-5.824345862492919e-05
448.0,-0.00013759598368778825
480.0,0.0004688182089012116
512.0,-0.0002748202532529831
576.0,-2.342229890928138e-05
640.0,0.0001306990598095581
704.0,-0.00027769349981099367
768.0,-0.0001931441220222041
832.0,-0.0004249784687999636
896.0,-2.960083475045394e-05
960.0,0.0004463504010345787
1024.0,0.0003980011388193816
1152.0,0.0005398152861744165
1280.0,8.781693031778559e-05
1408.0,-0.00020413851598277688
1536.0,-0.00016086378309410065
1664.0,-0.000151631364133209
1792.0,-0.0005382850649766624
1920.0,-0.0010782635072246194
2048.0,-0.0006371844210661948
2304.0,-3.794566146098077e-05
2560.0,-0.00017989556363318115
2816.0,-0.00011168852506671101
3072.0,-0.0007247775793075562
3328.0,8.039231033762917e-06
3584.0,8.321593486471102e-05
3840.0,0.0001890760031528771
4096.0,-0.00033993576653301716
4608.0,0.00010355302219977602
5120.0,0.0003022377786692232
5632.0,0.00011036951036658138
6144.0,0.00018794361676555127
6656.0,-1.3029361980443355e-05
7168.0,-0.0001959047222044319
7680.0,-0.00038106224383227527
8192.0,0.00016722131113056093
9216.0,-5.853988113813102e-05
10240.0,0.00017047449364326894
11264.0,0.00047064918908290565
12288.0,0.00017559895059093833
13312.0,-0.0006479882868006825
14336.0,3.579152325983159e-05
end
