version,3.0
numOfCh,1
type,point
parent_name,10-cuts
ch_type,1_1
kcount,1
numberNandB,1
brightnessNandB,1
carpet pos,0
pc,0
Time (ms),CH1 Auto-Correlation
1.0,0.0164865180850029
2.0,0.01367382425814867
3.0,0.011721965856850147
4.0,0.010291066952049732
5.0,0.009098538197577
6.0,0.008132502436637878
7.0,0.007404339499771595
8.0,0.006721903569996357
9.0,0.006067303940653801
10.0,0.0055094207637012005
11.0,0.0049759154208004475
12.0,0.00453610997647047
13.0,0.0041675022803246975
14.0,0.0038320308085530996
15.0,0.003609775798395276
16.0,0.003348344238474965
18.0,0.002809919184073806
20.0,0.002444325713440776
22.0,0.0020479506347328424
24.0,0.0018915424589067698
26.0,0.001882100128568709
28.0,0.0017769025871530175
30.0,0.0016908403486013412
32.0,0.0016440285835415125
36.0,0.0013582129031419754
40.0,0.0011052658082917333
44.0,0.0010323288151994348
48.0,0.0010832959087565541
52.0,0.0010226670419797301
56.0,0.0007550086593255401
60.0,0.0008050930337049067
64.0,0.0008330317214131355
72.0,0.0009353021159768105
80.0,0.0006037393468432128
88.0,0.0005240333848632872
96.0,0.00044156023068353534
104.0,0.0003474164695944637
112.0,0.0005127615877427161
120.0,0.0004391508118715137
128.0,0.0003390659694559872
144.0,0.0002852689940482378
160.0,-0.00011756449384847656
176.0,-7.817022378731053e-06
192.0,0.00024115282576531172
208.0,0.00012088070070603862
224.0,0.00026941983378492296
240.0,0.0002102550643030554
256.0,1.1905475730600301e-05
288.0,-4.763247852679342e-05
320.0,7.72548301029019e-05
352.0,-0.00035989718162454665
384.0,-0.0003606000100262463
416.0,-0.0005352915031835437
448.0,8.723276550881565e-05
480.0,-0.000300307001452893
512.0,-6.476717680925503e-05
576.0,0.0005422157701104879
640.0,0.0005341979558579624
704.0,-0.0001411573903169483
768.0,0.0004093188908882439
832.0,-0.0002456305956002325
896.0,-0.0006468003848567605
960.0,-0.0005925806472077966
1024.0,1.3863849744666368e-05
1152.0,-0.00014672982797492296
1280.0,-7.227997411973774e-05
1408.0,3.265529448981397e-05
1536.0,-0.00012127324589528143
1664.0,-1.2008315934508573e-05
1792.0,-0.0001784552587196231
1920.0,6.069239316275343e-05
2048.0,-0.00045430654427036643
2304.0,-0.00012162329949205741
2560.0,0.00037475713179446757
2816.0,0.00025826835189945996
3072.0,-4.7774147304835424e-08
3328.0,0.0006291604368016124
3584.0,9.64109058259055e-05
3840.0,-9.778182720765471e-05
4096.0,-4.0817478293320164e-05
4608.0,-0.0002925681765191257
5120.0,-0.00012621257337741554
5632.0,4.249304038239643e-05
6144.0,0.00029534741770476103
6656.0,4.01767720177304e-05
7168.0,-4.868432370130904e-05
7680.0,-0.0005628974176943302
8192.0,0.00012294802581891418
9216.0,8.194602560251951e-05
10240.0,-0.0003086939686909318
11264.0,4.8251717089442536e-05
12288.0,7.762047607684508e-05
13312.0,-0.000256733619607985
14336.0,-0.00010890280827879906
end
