version,3.0
numOfCh,1
type,point
parent_name,10-cuts
ch_type,1_1
kcount,1
numberNandB,1
brightnessNandB,1
carpet pos,0
pc,0
Time (ms),CH1 Auto-Correlation
1.0,0.02734951488673687
2.0,0.02252815105021
3.0,0.019014740362763405
4.0,0.016444427892565727
5.0,0.014508328400552273
6.0,0.013024280779063702
7.0,0.011745375581085682
8.0,0.010962020605802536
9.0,0.010134757496416569
10.0,0.009331907145678997
11.0,0.008534995838999748
12.0,0.007917129434645176
13.0,0.007263978477567434
14.0,0.0067922635935246944
15.0,0.006441452074795961
16.0,0.006205322220921516
18.0,0.006036229897290468
20.0,0.005588712636381388
22.0,0.00519833667203784
24.0,0.004784699063748121
26.0,0.004129699431359768
28.0,0.0036814657505601645
30.0,0.003678783541545272
32.0,0.0038827722892165184
36.0,0.00373526057228446
40.0,0.0034470430109649897
44.0,0.0028230014722794294
48.0,0.0019909183029085398
52.0,0.0018086701165884733
56.0,0.0021521043963730335
60.0,0.0020897765643894672
64.0,0.0022935557644814253
72.0,0.002485692035406828
80.0,0.002687679370865226
88.0,0.0021997347939759493
96.0,0.001243645790964365
104.0,0.000811857171356678
112.0,0.0008013154729269445
120.0,0.00037710086326114833
128.0,0.0003081838076468557
144.0,-0.0001280235592275858
160.0,0.0005389958387240767
176.0,0.00020797790784854442
192.0,-1.7221118469024077e-05
208.0,-0.000953234382905066
224.0,-0.0015963301993906498
240.0,-0.0009294796618632972
256.0,-0.0008679404854774475
288.0,-0.0006724559352733195
320.0,-0.000291306059807539
352.0,-0.0008087476016953588
384.0,0.0001655688975006342
416.0,-0.00041739983134903014
448.0,2.808319368341472e-05
480.0,0.00043580433703027666
512.0,0.0009217087063007057
576.0,9.382448479300365e-05
640.0,-7.828133675502613e-05
704.0,-3.767572343349457e-05
768.0,-0.0002922076964750886
832.0,-0.0004391655675135553
896.0,0.0010865741642192006
960.0,3.861090590362437e-05
1024.0,-0.0003880993463099003
1152.0,-0.00032553818891756237
1280.0,4.8975289246300235e-05
1408.0,-0.0004674759693443775
1536.0,-0.0012700476218014956
1664.0,-0.0008475725771859288
1792.0,0.00015018682461231947
1920.0,-0.0001914673630381003
2048.0,-9.19745652936399e-05
2304.0,4.535015614237636e-05
2560.0,-6.823670264566317e-05
2816.0,0.00045754495658911765
3072.0,0.0004007076204288751
3328.0,0.00044816595618613064
3584.0,0.0007318748394027352
3840.0,-0.0004960775841027498
4096.0,-3.285463753854856e-05
4608.0,-0.00048266869271174073
5120.0,-0.0003912822576239705
5632.0,-0.00011236098362132907
6144.0,0.00046141823986545205
6656.0,4.536577398539521e-05
7168.0,0.00011557640391401947
7680.0,-0.0006715698982588947
8192.0,-0.00012944734771735966
9216.0,0.00010723924060584977
10240.0,-1.5296000128728338e-05
11264.0,-0.00043563570943661034
12288.0,0.00022385557531379163
13312.0,0.00033931274083442986
14336.0,0.00012735753261949867
end
