version,3.0
numOfCh,1
type,point
parent_name,10-cuts
ch_type,1_1
kcount,1
numberNandB,1
brightnessNandB,1
carpet pos,0
pc,0
Time (ms),CH1 Auto-Correlation
1.0,0.01586940698325634
2.0,0.012913359329104424
3.0,0.01081814244389534
4.0,0.009269575588405132
5.0,0.008080870844423771
6.0,0.007206288632005453
7.0,0.006592534948140383
8.0,0.0060179587453603745
9.0,0.00557964202016592
10.0,0.0051599727012217045
11.0,0.004768173210322857
12.0,0.004388762172311544
13.0,0.004069312941282988
14.0,0.003651699284091592
15.0,0.003336818888783455
16.0,0.003065476194024086
18.0,0.0028732907958328724
20.0,0.0025392507668584585
22.0,0.0022898854222148657
24.0,0.0020007265266031027
26.0,0.0018351715989410877
28.0,0.0017652605893090367
30.0,0.0016949333949014544
32.0,0.0015477801207453012
36.0,0.0012726440327242017
40.0,0.001113796723075211
44.0,0.0011402708478271961
48.0,0.0008667197544127703
52.0,0.0006960339960642159
56.0,0.0006760009564459324
60.0,0.0007106344564817846
64.0,0.0008105493616312742
72.0,0.0003352693747729063
80.0,0.00027822371339425445
88.0,0.00019859508029185236
96.0,0.00038448398117907345
104.0,0.00047291532973758876
112.0,0.00014940195251256227
120.0,3.801656566793099e-05
128.0,0.0001609345927136019
144.0,2.61390541709261e-05
160.0,7.662050484213978e-05
176.0,0.0004163664416410029
192.0,0.0007064286037348211
208.0,-3.0219060136005282e-05
224.0,-0.0006262402748689055
240.0,-0.00042714065057225525
256.0,-0.00013021010090596974
288.0,-0.0005795693723484874
320.0,-0.0006532779661938548
352.0,-0.00045028896420262754
384.0,5.6734515965217724e-05
416.0,0.00036134355468675494
448.0,0.0002784720272757113
480.0,0.00019671005429700017
512.0,0.0002625631168484688
576.0,0.0003872780653182417
640.0,0.0005413548205979168
704.0,-0.00012276036432012916
768.0,0.0002110411151079461
832.0,2.043425411102362e-05
896.0,-7.439999171765521e-05
960.0,0.00024973423569463193
1024.0,0.00023821058857720345
1152.0,-4.194368011667393e-05
1280.0,0.0002620658779051155
1408.0,0.00023311206314247102
1536.0,0.00019459950271993876
1664.0,0.0004203313437756151
1792.0,-0.00016873324057087302
1920.0,0.00020582602883223444
2048.0,-0.0004252821090631187
2304.0,0.0003331625775899738
2560.0,-0.00022637088841293007
2816.0,-6.0568188928300515e-05
3072.0,-8.06842672318453e-06
3328.0,-3.023355566256214e-05
3584.0,-9.574897558195516e-05
3840.0,0.000471543928142637
4096.0,-0.00047478300984948874
4608.0,0.00010809975356096402
5120.0,-8.155632531270385e-05
5632.0,-0.00034368294291198254
6144.0,-7.899144111433998e-05
6656.0,-0.0003329057071823627
7168.0,-0.00032476012711413205
7680.0,-0.00018113180703949183
8192.0,-0.0002014248020714149
9216.0,3.682574242702685e-05
10240.0,1.7517080777906813e-05
11264.0,-0.00011634107067948207
12288.0,6.955520802875981e-05
13312.0,0.00038878247141838074
14336.0,0.00035380813642404974
end
