version,3.0
numOfCh,1
type,point
parent_name,10-cuts
ch_type,1_1
kcount,1
numberNandB,1
brightnessNandB,1
carpet pos,0
pc,0
Time (ms),CH1 Auto-Correlation
1.0,0.016828743740916252
2.0,0.013810348697006702
3.0,0.011666901409626007
4.0,0.010058938525617123
5.0,0.008717150427401066
6.0,0.007540823891758919
7.0,0.00656548049300909
8.0,0.005838013254106045
9.0,0.005309182684868574
10.0,0.0048765079118311405
11.0,0.00447147386148572
12.0,0.004104128573089838
13.0,0.0038204726297408342
14.0,0.0036046048626303673
15.0,0.003358259564265609
16.0,0.003107780823484063
18.0,0.002667039167135954
20.0,0.002465710509568453
22.0,0.002207990735769272
24.0,0.002047155750915408
26.0,0.0017775786109268665
28.0,0.0014718109741806984
30.0,0.0012637553736567497
32.0,0.0011067470768466592
36.0,0.00109962304122746
40.0,0.0010810606181621552
44.0,0.0013668123865500093
48.0,0.0016577178612351418
52.0,0.0016273469664156437
56.0,0.0014445874840021133
60.0,0.00132642756216228
64.0,0.001181093160994351
72.0,0.0010861953487619758
80.0,0.0012275358894839883
88.0,0.0009489537333138287
96.0,0.0006011564400978386
104.0,0.00032596031087450683
112.0,-3.9413475860783365e-06
120.0,-0.00036217994056642056
128.0,5.3756906709168106e-05
144.0,0.00031905659125186503
160.0,0.0004919152706861496
176.0,0.00011943161371164024
192.0,-0.00012741023965645581
208.0,0.00013195800420362502
224.0,-0.000137026232550852
240.0,0.0002186228084610775
256.0,0.00045255947043187916
288.0,9.725705240271054e-06
320.0,-9.44016792345792e-05
352.0,0.00018078702851198614
384.0,-0.00022551434813067317
416.0,-0.00014206950436346233
448.0,-0.0006921204039826989
480.0,-0.0004453575820662081
512.0,-4.0525454096496105e-05
576.0,-0.0003111153782811016
640.0,-0.00014776825264561921
704.0,2.2872913177707233e-05
768.0,0.00010640659456839785
832.0,-1.551117020426318e-05
896.0,0.00021556088177021593
960.0,-0.00022580641962122172
1024.0,0.000256378116318956
1152.0,0.0002066133893094957
1280.0,0.0002995324903167784
1408.0,-0.00018415287195239216
1536.0,0.0002104663144564256
1664.0,-7.4661597864178475e-06
1792.0,-7.3220121521444526e-06
1920.0,-4.781192183145322e-05
2048.0,-0.0001089393044821918
2304.0,0.0004014871083199978
2560.0,-0.0003362261049915105
2816.0,-6.610135460505262e-05
3072.0,-0.00017789893900044262
3328.0,0.00031733556534163654
3584.0,0.000123470977996476
3840.0,-0.0005490505136549473
4096.0,0.00013759925786871463
4608.0,-9.968846370611573e-07
5120.0,-6.245071563171223e-05
5632.0,-0.0002302868670085445
6144.0,-0.00010732503869803622
6656.0,0.00015824221190996468
7168.0,-0.00015538593288511038
7680.0,-0.00021364606800489128
8192.0,-1.4498985365207773e-05
9216.0,-0.0003290953754913062
10240.0,-0.00029689891380257905
11264.0,-4.56265224784147e-05
12288.0,6.232641317183152e-05
13312.0,0.00023594620870426297
14336.0,0.00040411154623143375
end
