version,3.0
numOfCh,1
type,point
parent_name,10-cuts
ch_type,1_1
kcount,1
numberNandB,1
brightnessNandB,1
carpet pos,0
pc,0
Time (ms),CH1 Auto-Correlation
1.0,0.015780102461576462
2.0,0.012970346957445145
3.0,0.010864860378205776
4.0,0.009353556670248508
5.0,0.008113211020827293
6.0,0.007100725080817938
7.0,0.006343760062009096
8.0,0.0056024170480668545
9.0,0.005134013015776873
10.0,0.004686011932790279
11.0,0.00442933477461338
12.0,0.00420563155785203
13.0,0.003934336360543966
14.0,0.0037389749195426702
15.0,0.003485306166112423
16.0,0.003312382148578763
18.0,0.002988148247823119
20.0,0.0027348811272531748
22.0,0.0023554780054837465
24.0,0.0021384665742516518
26.0,0.002048318274319172
28.0,0.0018755286000669003
30.0,0.0017154935048893094
32.0,0.0014526498271152377
36.0,0.0012839712435379624
40.0,0.001309580635279417
44.0,0.001342524541541934
48.0,0.0014897793298587203
52.0,0.0014676903374493122
56.0,0.001399186672642827
60.0,0.0013670922489836812
64.0,0.0014232913963496685
72.0,0.0011882331455126405
80.0,0.0009168440592475235
88.0,0.0007004994549788535
96.0,0.0005182034219615161
104.0,0.00033589324448257685
112.0,7.88217075751163e-05
120.0,-0.0002503280120436102
128.0,-0.0002378582867095247
144.0,-1.4463743355008774e-05
160.0,-0.00010024691437138245
176.0,-0.00013301039871294051
192.0,7.744094909867272e-05
208.0,-2.4909120838856325e-05
224.0,-0.00021482726151589304
240.0,-0.00035093407495878637
256.0,-6.512715481221676e-05
288.0,-0.0004874408768955618
320.0,-0.00026988732861354947
352.0,-0.0001977788342628628
384.0,-0.0001683002628851682
416.0,-7.401315542665543e-06
448.0,-0.0001242161961272359
480.0,0.00015312609320972115
512.0,0.000270817952696234
576.0,5.7800648392003495e-06
640.0,7.361991447396576e-05
704.0,-0.00020142961875535548
768.0,-0.00026690325466915965
832.0,-0.0003947483783122152
896.0,-0.0002725133381318301
960.0,-7.8601275163237e-05
1024.0,-6.714151822961867e-05
1152.0,-1.2786326806235593e-05
1280.0,9.451132063986734e-05
1408.0,0.00017900971579365432
1536.0,0.0002831981983035803
1664.0,-6.290480314419256e-07
1792.0,0.00010427900269860402
1920.0,-0.0007273080409504473
2048.0,-7.491475844290107e-05
2304.0,-0.00014125494635663927
2560.0,0.00025544274831190705
2816.0,-4.300994623918086e-05
3072.0,0.00024977358407340944
3328.0,1.1132702638860792e-05
3584.0,-0.00015672841982450336
3840.0,-2.6954152417602018e-05
4096.0,-0.00016406035865657032
4608.0,-0.00026156794046983123
5120.0,-6.391642091330141e-05
5632.0,-7.156047649914399e-05
6144.0,0.0003014528192579746
6656.0,-0.00015568659000564367
7168.0,7.172631012508646e-05
7680.0,-7.744744652882218e-05
8192.0,-5.372590385377407e-05
9216.0,0.0002603407483547926
10240.0,-4.1448005504207686e-05
11264.0,-3.858897980535403e-05
12288.0,8.795045141596347e-05
13312.0,-0.0002468123857397586
14336.0,-7.36854417482391e-05
end
