version,3.0
numOfCh,1
type,point
parent_name,10-cuts
ch_type,1_1
kcount,1
numberNandB,1
brightnessNandB,1
carpet pos,0
pc,0
Time (ms),CH1 Auto-Correlation
1.0,0.02613321878015995
2.0,0.021017538383603096
3.0,0.01738365739583969
4.0,0.014738542027771473
5.0,0.01273519080132246
6.0,0.011081709526479244
7.0,0.009842009283602238
8.0,0.00883561372756958
9.0,0.00818881019949913
10.0,0.007540877442806959
11.0,0.0071715302765369415
12.0,0.006763181649148464
13.0,0.0065017747692763805
14.0,0.006204239558428526
15.0,0.005920482333749533
16.0,0.005512021481990814
18.0,0.005002669990062714
20.0,0.0043677398934960365
22.0,0.003668214427307248
24.0,0.0031710572075098753
26.0,0.00282969418913126
28.0,0.002533257007598877
30.0,0.002340272068977356
32.0,0.0022618945222347975
36.0,0.002296340186148882
40.0,0.0018414660589769483
44.0,0.0018868634942919016
48.0,0.0023220579605549574
52.0,0.0025491139385849237
56.0,0.0020232372917234898
60.0,0.0016719766426831484
64.0,0.001658606925047934
72.0,0.0017055148491635919
80.0,0.0015785305295139551
88.0,0.001516212709248066
96.0,0.001325989025644958
104.0,0.001159743987955153
112.0,0.00046376168029382825
120.0,0.0006871548248454928
128.0,0.001006212318316102
144.0,0.00015435366367455572
160.0,1.0246016245218925e-05
176.0,0.0005963568692095578
192.0,-5.205638080951758e-05
208.0,-0.0002349147544009611
224.0,0.00042030675103887916
240.0,0.0010075528407469392
256.0,0.0012072902172803879
288.0,5.6913817388704047e-05
320.0,0.0006681120139546692
352.0,7.336468115681782e-05
384.0,0.00037948956014588475
416.0,-0.0002579172723926604
448.0,-0.00017013891192618757
480.0,2.186111123592127e-05
512.0,-0.0005723760114051402
576.0,9.132947161560878e-05
640.0,0.0006293097394518554
704.0,0.00028200625092722476
768.0,0.000496899476274848
832.0,0.0011725444346666336
896.0,0.0009852699004113674
960.0,0.0015644450904801488
1024.0,0.0005783975357189775
1152.0,0.00039167917566373944
1280.0,0.0006884732283651829
1408.0,-4.789115337189287e-05
1536.0,-0.0004986103740520775
1664.0,-0.0003851250803563744
1792.0,0.000523936643730849
1920.0,-4.2548312194412574e-05
2048.0,0.0003919048176612705
2304.0,-0.00018088846991304308
2560.0,-0.0009332260233350098
2816.0,-0.0002953455550596118
3072.0,-0.00011189301585545763
3328.0,-0.00046033895341679454
3584.0,-0.000924070191103965
3840.0,-0.000851516961120069
4096.0,-0.000130332846310921
4608.0,-0.0007137329084798694
5120.0,9.8443626484368e-05
5632.0,-0.0006949114031158388
6144.0,0.0005669850506819785
6656.0,-0.00011086968152085319
7168.0,0.000543387548532337
7680.0,-0.0001519289507996291
8192.0,0.0005536143435165286
9216.0,-3.7439131119754165e-05
10240.0,-0.0005847004358656704
11264.0,0.00037124688969925046
12288.0,-6.06543653702829e-05
13312.0,0.0005178251885809004
14336.0,0.0010075095342472196
end
