version,3.0
numOfCh,1
type,point
parent_name,10-cuts
ch_type,1_1
kcount,1
numberNandB,1
brightnessNandB,1
carpet pos,0
pc,0
Time (ms),CH1 Auto-Correlation
1.0,0.015565336681902409
2.0,0.01253010705113411
3.0,0.010508826933801174
4.0,0.00897417962551117
5.0,0.007839899510145187
6.0,0.006949417293071747
7.0,0.006273957435041666
8.0,0.005649547092616558
9.0,0.0052663241513073444
10.0,0.004894688725471497
11.0,0.004567756783217192
12.0,0.004233683459460735
13.0,0.003950932063162327
14.0,0.0037667725700885057
15.0,0.003496682969853282
16.0,0.003321101889014244
18.0,0.0029191963840276003
20.0,0.002726690610870719
22.0,0.002534815575927496
24.0,0.0022675907239317894
26.0,0.0020741582848131657
28.0,0.0017893832409754395
30.0,0.0016378075815737247
32.0,0.0015796443913131952
36.0,0.001647306140512228
40.0,0.0016885129734873772
44.0,0.0017791533609852195
48.0,0.0017745769582688808
52.0,0.0015802399720996618
56.0,0.0014649506192654371
60.0,0.001686822739429772
64.0,0.0016887325327843428
72.0,0.0012756825890392065
80.0,0.0013241786509752274
88.0,0.0009815222583711147
96.0,0.0004669665067922324
104.0,0.0003720395907294005
112.0,0.00023266766220331192
120.0,0.0002828469150699675
128.0,0.0006449481588788331
144.0,0.000933543429709971
160.0,0.000727783830370754
176.0,0.0002884030109271407
192.0,0.0002883443085011095
208.0,0.00025677759549580514
224.0,0.00044961771345697343
240.0,-5.038265589973889e-05
256.0,9.489223884884268e-05
288.0,0.00023129819601308554
320.0,0.0002029331080848351
352.0,0.0007087421254254878
384.0,0.000807694683317095
416.0,0.00045510323252528906
448.0,0.0006494185654446483
480.0,0.00035832944558933377
512.0,0.0005885077407583594
576.0,-0.0002997196570504457
640.0,0.00020728219533339143
704.0,0.00019261646957602352
768.0,0.00045655679423362017
832.0,9.749158925842494e-05
896.0,-5.8282181271351874e-05
960.0,-0.00010058037878479809
1024.0,0.0004717318224720657
1152.0,0.00024613781715743244
1280.0,-0.00037179701030254364
1408.0,-0.00019366078777238727
1536.0,0.000211764796404168
1664.0,0.00012325654097367078
1792.0,9.954394772648811e-05
1920.0,0.0003849465574603528
2048.0,-9.953104745363817e-05
2304.0,1.6356138075934723e-05
2560.0,0.00016009814862627536
2816.0,0.00012576607696246356
3072.0,0.00013394563575275242
3328.0,-8.643630167171068e-07
3584.0,-0.00044189952313899994
3840.0,-0.00042188240331597626
4096.0,-4.812759652850218e-05
4608.0,-0.00011534171062521636
5120.0,-5.066679932497209e-06
5632.0,-0.0003315545036457479
6144.0,-0.00017662777099758387
6656.0,0.00020387589756865054
7168.0,-0.00026484605041332543
7680.0,-0.00042268773540854454
8192.0,-0.0004025836242362857
9216.0,-0.00026302956393919885
10240.0,-0.00031152094015851617
11264.0,0.0005797517951577902
12288.0,0.00010373492114013061
13312.0,0.0008103259024210274
14336.0,0.0003332515771035105
end
