version,3.0
numOfCh,1
type,point
parent_name,10-cuts
ch_type,1_1
kcount,1
numberNandB,1
brightnessNandB,1
carpet pos,0
pc,0
Time (ms),CH1 Auto-Correlation
1.0,0.026336954906582832
2.0,0.021470751613378525
3.0,0.018143020570278168
4.0,0.015597965568304062
5.0,0.013792982324957848
6.0,0.012411010451614857
7.0,0.011224310845136642
8.0,0.010193170048296452
9.0,0.009353064931929111
10.0,0.008519005961716175
11.0,0.007792721502482891
12.0,0.0071779340505599976
13.0,0.006437781732529402
14.0,0.005882116034626961
15.0,0.005216093268245459
16.0,0.004670566879212856
18.0,0.003867301158607006
20.0,0.0033045420423150063
22.0,0.0029478776268661022
24.0,0.0028434540145099163
26.0,0.002661939477548003
28.0,0.002543072449043393
30.0,0.0022668838500976562
32.0,0.00195488054305315
36.0,0.0020420020446181297
40.0,0.001862517325207591
44.0,0.0016720561543479562
48.0,0.0012665684334933758
52.0,0.0009936376009136438
56.0,0.0008645896450616419
60.0,0.0006942931795492768
64.0,0.0007475942256860435
72.0,0.0008115365053527057
80.0,0.0003410591743886471
88.0,-0.00026734182029031217
96.0,-0.0006528832600452006
104.0,0.0003206953115295619
112.0,0.0009392292704433203
120.0,0.000610637420322746
128.0,0.0003251845482736826
144.0,0.00020045321434736252
160.0,0.00035952305188402534
176.0,0.0010180172976106405
192.0,0.0010441590566188097
208.0,0.0009749949676916003
224.0,0.0008748514228500426
240.0,0.0007669004844501615
256.0,0.00036210636608302593
288.0,0.0003469754883553833
320.0,8.733278809813783e-05
352.0,-0.0004755257978104055
384.0,0.00018351853941567242
416.0,0.00013462398783303797
448.0,0.0001346679200651124
480.0,0.0001657874818192795
512.0,0.00023533261264674366
576.0,0.0006046055932529271
640.0,-0.00042454939102753997
704.0,-0.00042741885408759117
768.0,-4.425711085787043e-05
832.0,0.000268084550043568
896.0,0.0002479643444530666
960.0,-8.177199788406142e-07
1024.0,0.0007344188052229583
1152.0,0.0002821469388436526
1280.0,0.000557760416995734
1408.0,0.0002401787060080096
1536.0,0.0003071546962019056
1664.0,-0.0002349185961065814
1792.0,-0.0002894736535381526
1920.0,6.522231706185266e-05
2048.0,-8.279772737296298e-05
2304.0,-0.0002356537152081728
2560.0,-0.00014706655929330736
2816.0,-0.00017138499242719263
3072.0,-6.381614366546273e-05
3328.0,0.000550788885448128
3584.0,-0.00014915385690983385
3840.0,-0.00012435791722964495
4096.0,-0.000709302315954119
4608.0,-0.00014093494974076748
5120.0,-0.000536067527718842
5632.0,-0.0004177305963821709
6144.0,-0.0005593462265096605
6656.0,-9.414608939550817e-05
7168.0,-0.00018936199194286019
7680.0,7.576454663649201e-05
8192.0,-8.783628436503932e-05
9216.0,1.4819381249253638e-05
10240.0,0.00013883861538488418
11264.0,0.00020394126477185637
12288.0,0.000283065193798393
13312.0,-0.0003247034619562328
14336.0,-0.0002681904297787696
end
