version,3.0
numOfCh,1
type,point
parent_name,10-cuts
ch_type,1_1
kcount,1
numberNandB,1
brightnessNandB,1
carpet pos,0
pc,0
Time (ms),CH1 Auto-Correlation
1.0,0.015186612494289875
2.0,0.012196884490549564
3.0,0.010104721412062645
4.0,0.008751249872148037
5.0,0.00753208389505744
6.0,0.00657546054571867
7.0,0.005867682863026857
8.0,0.005208561196923256
9.0,0.004639119375497103
10.0,0.004171004984527826
11.0,0.0037574036978185177
12.0,0.0034333139192312956
13.0,0.0032087028957903385
14.0,0.003066013567149639
15.0,0.0029291785322129726
16.0,0.002800550078973174
18.0,0.0023595336824655533
20.0,0.0021119238808751106
22.0,0.001860590884461999
24.0,0.001740586245432496
26.0,0.0015869969502091408
28.0,0.0014419631334021688
30.0,0.0013761869631707668
32.0,0.0011566231260076165
36.0,0.0010295729152858257
40.0,0.0010268812766298652
44.0,0.0009355160291306674
48.0,0.0008734235889278352
52.0,0.0009245362016372383
56.0,0.0007034321315586567
60.0,0.0005121665890328586
64.0,0.0003485636261757463
72.0,0.0001571898174006492
80.0,-0.00031740646227262914
88.0,-0.00034869631053879857
96.0,-9.796307858778164e-05
104.0,0.0001371104590361938
112.0,9.151878475677222e-05
120.0,3.346772791701369e-05
128.0,-0.00028879044111818075
144.0,8.049570169532672e-06
160.0,0.00016876563313417137
176.0,6.217572808964178e-05
192.0,6.472443783422932e-05
208.0,-0.00010724191088229418
224.0,-0.00025755222304724157
240.0,-0.00010332350939279422
256.0,-0.0004961848026141524
288.0,-0.0002812059537973255
320.0,-0.00019087812688667327
352.0,0.00044293509563431144
384.0,0.00026914733462035656
416.0,9.507065988145769e-05
448.0,-0.00020703054906334728
480.0,-4.173727211309597e-05
512.0,-1.646194141358137e-05
576.0,0.00011623932368820533
640.0,0.0003434225218370557
704.0,0.0004615261859726161
768.0,-6.454786489484832e-05
832.0,0.00033197514130733907
896.0,0.00024828792084008455
960.0,0.00015639408957213163
1024.0,0.00038199397386051714
1152.0,-0.00018738997459877282
1280.0,8.390961011173204e-05
1408.0,0.00017543521244078875
1536.0,-1.7640435544308275e-05
1664.0,5.583525853580795e-05
1792.0,-0.00010483952792128548
1920.0,-0.0001228456967510283
2048.0,-0.00010302969167241827
2304.0,-0.00018951042147818953
2560.0,0.0001842890924308449
2816.0,-5.570651774178259e-05
3072.0,-0.00021218525944277644
3328.0,9.35991047299467e-05
3584.0,0.00024445116287097335
3840.0,-0.00014978795661590993
4096.0,2.853599471563939e-05
4608.0,7.1008225859259255e-06
5120.0,6.308652245934354e-06
5632.0,-4.322844324633479e-05
6144.0,0.0001532600581413135
6656.0,5.155680810275953e-06
7168.0,0.0001050851060426794
7680.0,-0.00018711203301791102
8192.0,-0.00038832981954328716
9216.0,-0.000274601363344118
10240.0,-2.401433084742166e-05
11264.0,-3.9440361433662474e-05
12288.0,-6.836277316324413e-05
13312.0,0.00011980988347204402
14336.0,-7.693377119721845e-05
end
