version,3.0
numOfCh,1
type,point
parent_name,10-cuts
ch_type,1_1
kcount,1
numberNandB,1
brightnessNandB,1
carpet pos,0
pc,0
Time (ms),CH1 Auto-Correlation
1.0,0.015139501541852951
2.0,0.012258319184184074
3.0,0.010203850455582142
4.0,0.00866200402379036
5.0,0.007617076858878136
6.0,0.00668964721262455
7.0,0.006023126654326916
8.0,0.005383394192904234
9.0,0.004887215327471495
10.0,0.004401888698339462
11.0,0.004036464728415012
12.0,0.0036930926144123077
13.0,0.0033985923510044813
14.0,0.0030641912017017603
15.0,0.0029306106735020876
16.0,0.0027120274025946856
18.0,0.002377006458118558
20.0,0.0021994789130985737
22.0,0.002154774032533169
24.0,0.0019104144303128123
26.0,0.0015669477870687842
28.0,0.001352903200313449
30.0,0.001225670101121068
32.0,0.0012733453186228871
36.0,0.001189409289509058
40.0,0.0011089895851910114
44.0,0.0009158442844636738
48.0,0.0009022650774568319
52.0,0.0009323777630925179
56.0,0.000821498513687402
60.0,0.0005110434140078723
64.0,0.0007001617341302335
72.0,0.0009405830060131848
80.0,0.0010673439828678966
88.0,0.0007403799099847674
96.0,0.00043738953536376357
104.0,0.00020626644254662097
112.0,0.00016395717102568597
120.0,0.000163558594067581
128.0,-0.00011024518607882783
144.0,7.900009950390086e-05
160.0,2.9999305297678802e-06
176.0,0.00011842075036838651
192.0,-8.215323032345623e-05
208.0,0.00010161507816519588
224.0,7.729132630629465e-05
240.0,-0.00016378503642044961
256.0,0.00015019753482192755
288.0,0.00024125166237354279
320.0,0.00017216996639035642
352.0,5.58085048396606e-05
384.0,-0.0003327604499645531
416.0,-0.00019745981262531132
448.0,0.00021863632719032466
480.0,0.0006217249319888651
512.0,0.0003038425638806075
576.0,0.00016741984291002154
640.0,-4.966533015249297e-05
704.0,0.00016260081611108035
768.0,-1.6669871911290102e-05
832.0,-0.0004643684660550207
896.0,-0.0001758364960551262
960.0,-1.6806277926662005e-05
1024.0,0.000294280907837674
1152.0,-0.00036422512494027615
1280.0,-0.00013282430882100016
1408.0,-0.00030759393121115863
1536.0,-4.354724660515785e-05
1664.0,-0.0001734205288812518
1792.0,-0.00038811456761322916
1920.0,-0.0002273147983942181
2048.0,6.686657798127271e-06
2304.0,-0.00011044237180612981
2560.0,1.2670539945247583e-05
2816.0,0.00034586639958433807
3072.0,0.0001327853969996795
3328.0,0.000314323726342991
3584.0,-0.00019664369756355882
3840.0,-5.9055678320873994e-06
4096.0,-9.942066390067339e-05
4608.0,-0.0001215691736433655
5120.0,-8.439393423032016e-05
5632.0,0.000179207359906286
6144.0,0.00010399949678685516
6656.0,-0.0002260290930280462
7168.0,-0.00021311012096703053
7680.0,0.00010227179154753685
8192.0,0.00014619575813412666
9216.0,-0.00010850452963495627
10240.0,6.283455149969086e-05
11264.0,0.0002399400109425187
12288.0,-0.00038641097489744425
13312.0,5.9677581702999305e-06
14336.0,0.0003493753320071846
end
