version,3.0
numOfCh,1
type,point
parent_name,10-cuts
ch_type,1_1
kcount,1
numberNandB,1
brightnessNandB,1
carpet pos,0
pc,0
Time (ms),CH1 Auto-Correlation
1.0,0.027560589835047722
2.0,0.022876452654600143
3.0,0.01944328472018242
4.0,0.01705162227153778
5.0,0.015053796581923962
6.0,0.013432367704808712
7.0,0.01206550095230341
8.0,0.011070623062551022
9.0,0.010060463100671768
10.0,0.009293805807828903
11.0,0.008728651329874992
12.0,0.008160065859556198
13.0,0.007548929657787085
14.0,0.007017829455435276
15.0,0.006621748208999634
16.0,0.006284510251134634
18.0,0.005598663352429867
20.0,0.004902494605630636
22.0,0.004223959054797888
24.0,0.003624818753451109
26.0,0.0031751105561852455
28.0,0.0028435224667191505
30.0,0.0025095660239458084
32.0,0.0024720083456486464
36.0,0.0022717383690178394
40.0,0.0019236986991018057
44.0,0.0016599125228822231
48.0,0.0019022406777366996
52.0,0.0019218025263398886
56.0,0.0017849374562501907
60.0,0.0016013114945963025
64.0,0.0013238793471828103
72.0,0.0009806763846427202
80.0,0.0012173047289252281
88.0,0.001103476039133966
96.0,0.0011837377678602934
104.0,0.0007989813457243145
112.0,7.866017404012382e-05
120.0,3.408795237191953e-05
128.0,-6.721272802678868e-05
144.0,-7.800398452673107e-05
160.0,8.949361654231325e-05
176.0,0.0004502826777752489
192.0,0.0007533517782576382
208.0,0.0005135003011673689
224.0,-0.00018213079601991922
240.0,-0.0005133583908900619
256.0,4.165354312135605e-06
288.0,-0.0003199302591383457
320.0,0.00038053237949498
352.0,-0.00020954823412466794
384.0,-0.0006035761325620115
416.0,-9.870131179923192e-05
448.0,-0.0004388267989270389
480.0,-0.0005600829608738422
512.0,-0.00025534385349601507
576.0,0.00041050021536648273
640.0,0.0009492433164268732
704.0,7.543793344666483e-06
768.0,-8.850657468428835e-05
832.0,0.00010819015733432025
896.0,-3.6365370760904625e-05
960.0,0.0005857596406713128
1024.0,0.00010387317888671532
1152.0,0.00015615935262758285
1280.0,1.2943045476276893e-05
1408.0,-0.0007813465781509876
1536.0,-0.00033545750193297863
1664.0,-0.00022164777328725904
1792.0,0.00019848591182380915
1920.0,-0.0001265731843886897
2048.0,-0.0005596239352598786
2304.0,-0.00030680911731906235
2560.0,-0.0007590626482851803
2816.0,-0.00021503113384824246
3072.0,-0.0003006573533639312
3328.0,-0.0003571815905161202
3584.0,-0.00011812078446382657
3840.0,-0.000520274683367461
4096.0,-0.00018613136489875615
4608.0,0.0002873688645195216
5120.0,0.00019156557391397655
5632.0,0.000406403501983732
6144.0,-0.00010364963964093477
6656.0,0.00013050447159912437
7168.0,-0.0001201178238261491
7680.0,-3.094084968324751e-05
8192.0,0.00034676125505939126
9216.0,0.0002264569338876754
10240.0,-0.000352406786987558
11264.0,-0.0007039993652142584
12288.0,0.00033478770637884736
13312.0,0.00055992032866925
14336.0,-0.00014656211715191603
end
