version,3.0
numOfCh,1
type,point
parent_name,10-cuts
ch_type,1_1
kcount,1
numberNandB,1
brightnessNandB,1
carpet pos,0
pc,0
Time (ms),CH1 Auto-Correlation
1.0,0.02603643573820591
2.0,0.021158618852496147
3.0,0.01769324392080307
4.0,0.01511431485414505
5.0,0.013183562085032463
6.0,0.011636141687631607
7.0,0.01020257081836462
8.0,0.009093791246414185
9.0,0.008184357546269894
10.0,0.007496289908885956
11.0,0.0069544329307973385
12.0,0.006615051068365574
13.0,0.006368613336235285
14.0,0.005996035877615213
15.0,0.005683663301169872
16.0,0.005430609453469515
18.0,0.004974640905857086
20.0,0.00449632341042161
22.0,0.004148194100707769
24.0,0.003747755428776145
26.0,0.003311495529487729
28.0,0.0031680839601904154
30.0,0.0030352785252034664
32.0,0.0027092467062175274
36.0,0.002434398978948593
40.0,0.002334601478651166
44.0,0.002213934436440468
48.0,0.0018261619843542576
52.0,0.0015778264496475458
56.0,0.0012951651588082314
60.0,0.0009974587010219693
64.0,0.0010393790435045958
72.0,0.0011143432930111885
80.0,0.0007055921596474946
88.0,0.0007056649192236364
96.0,0.0009160168119706213
104.0,0.000739165348932147
112.0,0.0005053424974903464
120.0,0.0002606470661703497
128.0,-2.457481241435744e-05
144.0,0.0003076302236877382
160.0,0.00019999830692540854
176.0,0.0009742163820192218
192.0,0.0005065699806436896
208.0,-0.00018205013475380838
224.0,0.0003424051101319492
240.0,0.0005125743336975574
256.0,4.050425559398718e-05
288.0,-0.0003940222959499806
320.0,-0.0004697647818829864
352.0,-2.823294562404044e-05
384.0,-0.00012970557145308703
416.0,-0.0001508032437413931
448.0,0.0007686523604206741
480.0,0.0005773076554760337
512.0,-3.3111264201579615e-05
576.0,0.0001845505612436682
640.0,7.102319068508223e-05
704.0,-0.00017342950741294771
768.0,-0.0002771741710603237
832.0,0.00010694751108530909
896.0,5.330546628101729e-05
960.0,2.1488760467036627e-05
1024.0,-0.0007237754762172699
1152.0,-0.0008226398495025933
1280.0,-0.0001652976352488622
1408.0,-5.491509000421502e-05
1536.0,0.0004052124568261206
1664.0,0.00019009651441592723
1792.0,-0.000134635076392442
1920.0,0.00026407119003124535
2048.0,0.00035741497413255274
2304.0,1.8492723029339686e-05
2560.0,0.00012201175559312105
2816.0,-0.00022400870511773974
3072.0,-0.00020816952746827155
3328.0,-0.00012356971274130046
3584.0,-0.00024099790607579052
3840.0,-0.00010144046973437071
4096.0,7.513850141549483e-05
4608.0,0.00017855684563983232
5120.0,-0.0004187990562058985
5632.0,-0.000501173606608063
6144.0,0.00031793289235793054
6656.0,0.0003530709655024111
7168.0,-0.0002866883878596127
7680.0,-0.00013736195978708565
8192.0,0.00017017341451719403
9216.0,-0.00016154404147528112
10240.0,7.59698887122795e-05
11264.0,4.4847278331872076e-05
12288.0,-5.656237044604495e-05
13312.0,0.00012654495367314667
14336.0,4.591332617565058e-05
end
