version,3.0
numOfCh,1
type,point
parent_name,10-cuts
ch_type,1_1
kcount,1
numberNandB,1
brightnessNandB,1
carpet pos,0
pc,0
Time (ms),CH1 Auto-Correlation
1.0,0.016167551279067993
2.0,0.013289578258991241
3.0,0.011332378722727299
4.0,0.009950635023415089
5.0,0.008814740926027298
6.0,0.007905087433755398
7.0,0.007183948997408152
8.0,0.006477345246821642
9.0,0.00590919703245163
10.0,0.00541940750554204
11.0,0.004981327336281538
12.0,0.00461172591894865
13.0,0.004238028544932604
14.0,0.0039442447014153
15.0,0.0037328226026147604
16.0,0.003564758924767375
18.0,0.0032527416478842497
20.0,0.0029612949583679438
22.0,0.002567542949691415
24.0,0.002324633300304413
26.0,0.002093604300171137
28.0,0.0019412781111896038
30.0,0.0017616760451346636
32.0,0.0016281508142128587
36.0,0.0013600436504930258
40.0,0.0011846849229186773
44.0,0.0009430652135051787
48.0,0.0008754273294471204
52.0,0.0008456346695311368
56.0,0.0007566410349681973
60.0,0.0005863080732524395
64.0,0.0006399056874215603
72.0,0.0005571263609454036
80.0,0.0004672103968914598
88.0,0.0003741850086953491
96.0,-7.06127830198966e-05
104.0,-0.0004866357776336372
112.0,-0.0002482635318301618
120.0,-4.966036067344248e-05
128.0,-0.00039121194276958704
144.0,-0.0006015243125148118
160.0,-0.00039959349669516087
176.0,-0.00020125416631344706
192.0,-0.0005064174183644354
208.0,-0.0002916291996371001
224.0,-0.0003834605449810624
240.0,-0.00022255796648096293
256.0,-0.0001702597364783287
288.0,-0.00018701254157349467
320.0,-5.134489038027823e-05
352.0,-9.235013567376882e-05
384.0,-0.00026865198742598295
416.0,-0.0004198267124593258
448.0,-0.0003255506162531674
480.0,1.1565677596081514e-05
512.0,-0.0002115025563398376
576.0,0.00028484014910645783
640.0,-0.0001843860518420115
704.0,-3.18666388920974e-05
768.0,4.984450788469985e-05
832.0,0.00028670011670328677
896.0,0.00042601770837791264
960.0,-0.00033589123631827533
1024.0,-0.00027741314261220396
1152.0,-0.00016331064398400486
1280.0,0.00011582708975765854
1408.0,-0.0003269152657594532
1536.0,-1.6015226719900966e-05
1664.0,0.00043528282549232244
1792.0,-0.0006406328175216913
1920.0,-6.730288441758603e-05
2048.0,2.3407055778079666e-05
2304.0,0.0003005402395501733
2560.0,-0.00029356175218708813
2816.0,-0.00032257745624519885
3072.0,-2.688273525564e-05
3328.0,0.00028347855550237
3584.0,6.942195614101365e-05
3840.0,7.382363401120529e-05
4096.0,-0.0001265033206436783
4608.0,4.3727348383981735e-05
5120.0,8.336050814250484e-05
5632.0,0.00018114734848495573
6144.0,2.1511745217139833e-05
6656.0,-5.742794201069046e-06
7168.0,-0.00015238599735312164
7680.0,-3.736424696398899e-05
8192.0,-0.00019243011774960905
9216.0,-5.2132276323391125e-05
10240.0,9.366043377667665e-05
11264.0,-3.212635647287243e-06
12288.0,-0.0001126382194343023
13312.0,-2.0292251065257005e-05
14336.0,-3.2848786304384703e-06
end
