version,3.0
numOfCh,1
type,point
parent_name,10-cuts
ch_type,1_1
kcount,1
numberNandB,1
brightnessNandB,1
carpet pos,0
pc,0
Time (ms),CH1 Auto-Correlation
1.0,0.015702085569500923
2.0,0.01285751722753048
3.0,0.011005033738911152
4.0,0.009561113081872463
5.0,0.008381816558539867
6.0,0.0075322664342820644
7.0,0.00671719666570425
8.0,0.006079322192817926
9.0,0.005580957513302565
10.0,0.005087811965495348
11.0,0.004561585374176502
12.0,0.0041255224496126175
13.0,0.0037865610793232918
14.0,0.003479529172182083
15.0,0.0032343321945518255
16.0,0.0030470751225948334
18.0,0.002777490997686982
20.0,0.002372702118009329
22.0,0.002089018700644374
24.0,0.0018369946628808975
26.0,0.0016164472326636314
28.0,0.0014004354598000646
30.0,0.001183212036266923
32.0,0.0011065654689446092
36.0,0.0011659301817417145
40.0,0.001099154818803072
44.0,0.0011615577386692166
48.0,0.0009280475787818432
52.0,0.0009383601136505604
56.0,0.0007594137568958104
60.0,0.0008184624603018165
64.0,0.000555936829186976
72.0,0.00022999067732598633
80.0,0.00025209379964508116
88.0,-9.246812987839803e-05
96.0,-0.0003491740790195763
104.0,2.5463981728535146e-05
112.0,0.00018371404439676553
120.0,0.00031440090970136225
128.0,0.00041629542829468846
144.0,9.086413774639368e-05
160.0,-0.00019377347780391574
176.0,-9.438482084078714e-05
192.0,0.00010427810047985986
208.0,0.0008321846835315228
224.0,0.000933253497350961
240.0,0.000261805864283815
256.0,-0.00018291881133336574
288.0,0.0002762542280834168
320.0,0.0002992279187310487
352.0,0.0007536444463767111
384.0,0.0003480831510387361
416.0,0.0002760253846645355
448.0,0.00024450800265185535
480.0,0.0003178943588864058
512.0,0.00020247098291292787
576.0,4.1746345232240856e-05
640.0,6.661672523478046e-05
704.0,0.000121021039376501
768.0,5.767415132140741e-05
832.0,-3.4535190934548154e-05
896.0,4.1941610106732696e-05
960.0,-0.00026203918969258666
1024.0,0.00013759332068730146
1152.0,-0.000423479825258255
1280.0,-0.0002854200138244778
1408.0,1.781028913683258e-05
1536.0,-0.0006723169353790581
1664.0,-0.0006699926452711225
1792.0,-0.00012537051225081086
1920.0,-0.00023054357734508812
2048.0,-0.00030175820575095713
2304.0,2.8864469641121104e-05
2560.0,1.3785331248072907e-05
2816.0,0.00025925575755536556
3072.0,8.877912478055805e-05
3328.0,0.00015983164485078305
3584.0,-9.850321657722816e-05
3840.0,4.418633761815727e-05
4096.0,-0.00021429544722195715
4608.0,3.2500051020178944e-05
5120.0,1.6188621884793974e-05
5632.0,0.00025178040959872305
6144.0,-0.00016734798555262387
6656.0,-8.560544665670022e-05
7168.0,-0.00017030433809850365
7680.0,0.00023143069120123982
8192.0,0.0001486912660766393
9216.0,-0.0002594596880953759
10240.0,0.0002409532607998699
11264.0,-0.00011726148659363389
12288.0,-0.0006491955718956888
13312.0,0.00035863000084646046
14336.0,0.0006706424173898995
end
