version,3.0
numOfCh,1
type,point
parent_name,10-cuts
ch_type,1_1
kcount,1
numberNandB,1
brightnessNandB,1
carpet pos,0
pc,0
Time (ms),CH1 Auto-Correlation
1.0,0.016069505363702774
2.0,0.013217478059232235
3.0,0.011132287792861462
4.0,0.009578286670148373
5.0,0.008477238938212395
6.0,0.0076156374998390675
7.0,0.0067684706300497055
8.0,0.006122197490185499
9.0,0.005644829012453556
10.0,0.005206279922276735
11.0,0.0048874858766794205
12.0,0.004634771961718798
13.0,0.004324688576161861
14.0,0.004070025868713856
15.0,0.003827105276286602
16.0,0.003588445484638214
18.0,0.0032472421880811453
20.0,0.0029840816278010607
22.0,0.0027545474004000425
24.0,0.0023683509789407253
26.0,0.0018919168505817652
28.0,0.0016946416581049562
30.0,0.0017062810948118567
32.0,0.0017572419019415975
36.0,0.0018788736779242754
40.0,0.0018652575090527534
44.0,0.0016549729043617845
48.0,0.0015369983157142997
52.0,0.0016512310830876231
56.0,0.0013876546872779727
60.0,0.0012441006256267428
64.0,0.0011413434986025095
72.0,0.0006395439268089831
80.0,0.00035501268575899303
88.0,0.0004738293937407434
96.0,0.0004922119551338255
104.0,0.000294834200758487
112.0,6.954905984457582e-05
120.0,-0.00011127732432214543
128.0,2.1948222638457082e-05
144.0,0.00012933251855429262
160.0,-6.4014939198386855e-06
176.0,-0.0004229490295983851
192.0,-0.00016433594282716513
208.0,-0.00031180461519397795
224.0,-0.00010317648411728442
240.0,-0.0003332180785946548
256.0,-0.00042626669164747
288.0,7.487179391318932e-05
320.0,5.2923143812222406e-05
352.0,7.552777969976887e-05
384.0,-3.483701220829971e-05
416.0,-0.0001401632180204615
448.0,-0.00048288892139680684
480.0,-0.0006116789299994707
512.0,-0.00021475001994986087
576.0,-0.00012266155681572855
640.0,-0.0005129032069817185
704.0,1.7033675248967484e-05
768.0,-0.00017076039512176067
832.0,-0.00016065109230112284
896.0,7.473398000001907e-05
960.0,-9.902569581754506e-05
1024.0,-0.0001578887167852372
1152.0,-0.00030694279121235013
1280.0,-0.0001626122248126194
1408.0,9.904004400596023e-05
1536.0,0.00023794604931026697
1664.0,8.244789205491543e-05
1792.0,0.0005254975403659046
1920.0,0.00014421826926991343
2048.0,-3.447528570177383e-06
2304.0,3.992762231064262e-06
2560.0,0.00015648322005290538
2816.0,-0.00027691430295817554
3072.0,-0.0001400349719915539
3328.0,-0.0002701226039789617
3584.0,-1.7225640476681292e-05
3840.0,0.00010224917787127197
4096.0,0.00033045007148757577
4608.0,8.068013266893104e-05
5120.0,-0.00015782447007950395
5632.0,8.252044062828645e-05
6144.0,-0.00015871100185904652
6656.0,8.451095345662907e-05
7168.0,-2.7691805371432565e-05
7680.0,-0.00011361803626641631
8192.0,-0.00017428048886358738
9216.0,2.5209723389707506e-05
10240.0,2.4547816792619415e-05
11264.0,8.797324699116871e-05
12288.0,-6.77693824400194e-05
13312.0,-6.032140663592145e-05
14336.0,-6.889756605232833e-06
end
