version,3.0
numOfCh,1
type,point
parent_name,10-cuts
ch_type,1_1
kcount,1
numberNandB,1
brightnessNandB,1
carpet pos,0
pc,0
Time (ms),CH1 Auto-Correlation
1.0,0.029711686074733734
2.0,0.024890907108783722
3.0,0.021486850455403328
4.0,0.01889589987695217
5.0,0.01682421937584877
6.0,0.015109616331756115
7.0,0.013767983764410019
8.0,0.012557723559439182
9.0,0.01159377209842205
10.0,0.010799957439303398
11.0,0.010130916722118855
12.0,0.009522802196443081
13.0,0.008791846223175526
14.0,0.00818033516407013
15.0,0.007780788466334343
16.0,0.007276386022567749
18.0,0.006539627909660339
20.0,0.006160286255180836
22.0,0.0054254913702607155
24.0,0.004820108879357576
26.0,0.004736029077321291
28.0,0.004763409029692411
30.0,0.004628466442227364
32.0,0.004344902001321316
36.0,0.004180868621915579
40.0,0.0037890509702265263
44.0,0.003344201250001788
48.0,0.0032399194315075874
52.0,0.0027261425275355577
56.0,0.002481752075254917
60.0,0.002031741663813591
64.0,0.0011344993254169822
72.0,0.0012714342446997762
80.0,0.0013032275019213557
88.0,0.0012250355212017894
96.0,0.0005868770531378686
104.0,0.0005938255926594138
112.0,0.0002972613729070872
120.0,-0.000994988135062158
128.0,-0.001681386842392385
144.0,-0.0011773287551477551
160.0,-0.000339974561939016
176.0,0.00012894780957140028
192.0,0.00022118912602309138
208.0,0.0015252940356731415
224.0,0.0013023549690842628
240.0,0.0008591552032157779
256.0,0.0009749605669640005
288.0,0.0004450855194590986
320.0,-0.0005895798676647246
352.0,-0.00038110019522719085
384.0,-0.0006510476232506335
416.0,-0.001413785619661212
448.0,-0.0005310839624144137
480.0,-0.00016352554666809738
512.0,2.2318326955428347e-05
576.0,-0.0013812020188197494
640.0,-0.0004503312520682812
704.0,0.000830677046906203
768.0,-0.0001462373766116798
832.0,-0.0013890935806557536
896.0,0.0002575872640591115
960.0,0.00019196241919416934
1024.0,0.00034847090137191117
1152.0,0.00016128509014379233
1280.0,3.169553019688465e-05
1408.0,0.00047506889677606523
1536.0,0.0007426036172546446
1664.0,0.0005560037679970264
1792.0,0.00012552758562378585
1920.0,-0.00016292682266794145
2048.0,-0.0007543928804807365
2304.0,0.00037813757080584764
2560.0,0.0001331556122750044
2816.0,0.000735374225769192
3072.0,0.0002618328726384789
3328.0,-0.0006759733660146594
3584.0,-0.00048417813377454877
3840.0,0.00044719153083860874
4096.0,-0.00014639015716966242
4608.0,0.00015877508849371225
5120.0,-0.00014132213254924864
5632.0,0.00035933186882175505
6144.0,-0.00042600426240824163
6656.0,0.0001985777198569849
7168.0,-1.8615435692481697e-05
7680.0,-0.00045901641715317965
8192.0,0.0002879816747736186
9216.0,-5.999212953611277e-05
10240.0,-0.00023764163779560477
11264.0,1.2813572539016604e-05
12288.0,-0.0006530400714837015
13312.0,-0.0005090046906843781
14336.0,-0.0006689135334454477
end
