version,3.0
numOfCh,1
type,point
parent_name,10-cuts
ch_type,1_1
kcount,1
numberNandB,1
brightnessNandB,1
carpet pos,0
pc,0
Time (ms),CH1 Auto-Correlation
1.0,0.027354339137673378
2.0,0.022435562685132027
3.0,0.019022895023226738
4.0,0.016747357323765755
5.0,0.014948269352316856
6.0,0.013557281345129013
7.0,0.012360855005681515
8.0,0.01120747346431017
9.0,0.0102324727922678
10.0,0.009717107750475407
11.0,0.009054006077349186
12.0,0.00845289696007967
13.0,0.007955262437462807
14.0,0.007423851173371077
15.0,0.007025942672044039
16.0,0.006791905499994755
18.0,0.006285856477916241
20.0,0.006063302978873253
22.0,0.005762400105595589
24.0,0.0053013949654996395
26.0,0.00494844326749444
28.0,0.004821465816348791
30.0,0.004533157218247652
32.0,0.004421290475875139
36.0,0.0039026616141200066
40.0,0.0035147713497281075
44.0,0.0029322258196771145
48.0,0.0024084066972136497
52.0,0.0019180908566340804
56.0,0.0017933121416717768
60.0,0.0014369236305356026
64.0,0.0011276594595983624
72.0,0.0008840159280225635
80.0,0.0006106789223849773
88.0,0.00012126718502258882
96.0,0.00045844001579098403
104.0,0.00060152483638376
112.0,0.0005384241230785847
120.0,0.000975458009634167
128.0,0.0015755421482026577
144.0,0.0011917785741388798
160.0,0.0010390302632004023
176.0,0.0013726401375606656
192.0,0.0005041543627157807
208.0,-0.0005264341598376632
224.0,-0.0012222533114254475
240.0,-0.00045918571413494647
256.0,-0.0004332117969170213
288.0,-0.0005138577544130385
320.0,-0.0008140192949213088
352.0,-0.0005602383171208203
384.0,4.1594335925765336e-05
416.0,0.0003636499459389597
448.0,0.0009886067127808928
480.0,0.0017916462384164333
512.0,0.0013399934396147728
576.0,-1.0134202966582961e-05
640.0,0.0002175128465751186
704.0,0.0003936842258553952
768.0,-0.00039788600406609476
832.0,-0.00029070055461488664
896.0,0.0005229130620136857
960.0,0.00038057920755818486
1024.0,-0.0001822150661610067
1152.0,-0.00021034959354437888
1280.0,-0.0004432406567502767
1408.0,0.00014890037709847093
1536.0,-4.652183997677639e-05
1664.0,-1.5544974303338677e-05
1792.0,-0.00025012841797433794
1920.0,-0.0005106381722725928
2048.0,0.00013793563994113356
2304.0,-0.0003063080075662583
2560.0,0.00012160553160356358
2816.0,-0.0008011955651454628
3072.0,-0.00028720806585624814
3328.0,-0.0008564908639527857
3584.0,0.0005248438683338463
3840.0,-0.0005857856012880802
4096.0,-3.0255272577051073e-05
4608.0,-0.0001544095139252022
5120.0,-0.0004618527600541711
5632.0,0.00020232840324752033
6144.0,0.0007328601786866784
6656.0,0.00034560851054266095
7168.0,7.432795246131718e-05
7680.0,0.0004077324992977083
8192.0,0.0005757117760367692
9216.0,-0.0004714631359092891
10240.0,-0.0005772337899543345
11264.0,-0.0005351038416847587
12288.0,-1.3961422155261971e-05
13312.0,0.0004028046678286046
14336.0,0.0006955614662729204
end
