version,3.0
numOfCh,1
type,point
parent_name,10-cuts
ch_type,1_1
kcount,1
numberNandB,1
brightnessNandB,1
carpet pos,0
pc,0
Time (ms),CH1 Auto-Correlation
1.0,0.017382878810167313
2.0,0.014354133978486061
3.0,0.012222331017255783
4.0,0.010702128522098064
5.0,0.009553414769470692
6.0,0.008570710197091103
7.0,0.00771233020350337
8.0,0.007040937896817923
9.0,0.006553175859153271
10.0,0.006104067899286747
11.0,0.005740792490541935
12.0,0.005478717852383852
13.0,0.0052384682931005955
14.0,0.0049921125173568726
15.0,0.0046296692453324795
16.0,0.004306248389184475
18.0,0.003839815966784954
20.0,0.003575648181140423
22.0,0.0032386763487011194
24.0,0.0030171850230544806
26.0,0.0030275387689471245
28.0,0.002953500021249056
30.0,0.0028378635179251432
32.0,0.0028134137392044067
36.0,0.0024460924323648214
40.0,0.0025109818670898676
44.0,0.002259256783872843
48.0,0.0021026672329753637
52.0,0.0019055699231103063
56.0,0.0017218147404491901
60.0,0.0020815348252654076
64.0,0.002076859585940838
72.0,0.001652961946092546
80.0,0.001408204436302185
88.0,0.0013495428720489144
96.0,0.001123599475249648
104.0,0.0010485249804332852
112.0,0.0005493321223184466
120.0,0.000389236694900319
128.0,0.00047629381879232824
144.0,0.0008658415172249079
160.0,0.0005229647504165769
176.0,9.175718878395855e-05
192.0,0.00018518207070883363
208.0,-0.00036445853766053915
224.0,-4.309766154619865e-05
240.0,-1.878933653642889e-05
256.0,-0.0001870323612820357
288.0,3.6282559449318796e-05
320.0,5.4478692618431523e-05
352.0,-0.00034005995257757604
384.0,2.5409377485630102e-05
416.0,9.671778116171481e-07
448.0,6.618923362111673e-05
480.0,0.0002316102763870731
512.0,-5.851115929544903e-05
576.0,-0.0002576025726739317
640.0,8.176351002475712e-06
704.0,0.00031012026011012495
768.0,7.629823812749237e-06
832.0,-0.0004951158189214766
896.0,-0.0006507056532427669
960.0,-0.0002520714479032904
1024.0,0.0005774733726866543
1152.0,0.0005242026527412236
1280.0,0.00033722311491146684
1408.0,0.0002862647525034845
1536.0,-3.979165285272757e-06
1664.0,2.2224552594707347e-05
1792.0,-1.993682781176176e-05
1920.0,0.00038276283885352314
2048.0,-0.0002291884447913617
2304.0,-0.0003659668145701289
2560.0,1.5228503798425663e-05
2816.0,-0.00011954578076256439
3072.0,0.000231062454986386
3328.0,0.00027263417723588645
3584.0,-1.3016964658163488e-05
3840.0,-5.783331653219648e-05
4096.0,-0.0007336426060646772
4608.0,-5.702376438421197e-05
5120.0,3.5597691748989746e-05
5632.0,-0.00015094023547135293
6144.0,0.00029824432567693293
6656.0,0.00010200305405305699
7168.0,-0.00026415259344503284
7680.0,-0.000508846074808389
8192.0,-9.022587619256228e-05
9216.0,7.347980135818943e-05
10240.0,-0.0002811547601595521
11264.0,0.0001337645953753963
12288.0,-0.00012136687291786075
13312.0,-7.799433660693467e-05
14336.0,4.733521564048715e-05
end
