version,3.0
numOfCh,1
type,point
parent_name,10-cuts
ch_type,1_1
kcount,1
numberNandB,1
brightnessNandB,1
carpet pos,0
pc,0
Time (ms),CH1 Auto-Correlation
1.0,0.026323415338993073
2.0,0.021369988098740578
3.0,0.017965225502848625
4.0,0.015500904992222786
5.0,0.014028440229594707
6.0,0.012749421410262585
7.0,0.011405402794480324
8.0,0.010404661297798157
9.0,0.00949784368276596
10.0,0.008834072388708591
11.0,0.008212268352508545
12.0,0.007525727152824402
13.0,0.00701317610219121
14.0,0.006446991115808487
15.0,0.006052028853446245
16.0,0.00593619653955102
18.0,0.005463265348225832
20.0,0.005083438474684954
22.0,0.0046640681102871895
24.0,0.0041878907941281796
26.0,0.003807142609730363
28.0,0.0037357895635068417
30.0,0.003626299323514104
32.0,0.0035373512655496597
36.0,0.002441881923004985
40.0,0.001886623678728938
44.0,0.0014296090230345726
48.0,0.0008772851433604956
52.0,0.00038562685949727893
56.0,0.0004088880668859929
60.0,0.00019976664043497294
64.0,0.0003838616830762476
72.0,0.000826953153591603
80.0,0.000330822920659557
88.0,0.0002497315581422299
96.0,0.0005601226002909243
104.0,0.0007168001029640436
112.0,0.0002909526228904724
120.0,0.0004633533535525203
128.0,0.000360536330845207
144.0,-0.0005300784832797945
160.0,-0.0005109237390570343
176.0,0.00017544034926686436
192.0,0.0004956336924806237
208.0,0.0007115243352018297
224.0,0.0006013927632011473
240.0,0.0007620652322657406
256.0,0.00012442746083252132
288.0,-0.00031185525585897267
320.0,-0.00047262152656912804
352.0,0.0005524632870219648
384.0,0.00018001279386226088
416.0,0.0005556780961342156
448.0,-3.908683083864162e-06
480.0,-0.0007734509417787194
512.0,-0.0004161075339652598
576.0,0.0004538287757895887
640.0,0.0005091583007015288
704.0,-0.0008999320561997592
768.0,0.0006402336875908077
832.0,-0.00020157037943135947
896.0,0.0005743675283156335
960.0,0.0005461837281472981
1024.0,0.0003988114185631275
1152.0,-0.00012916364357806742
1280.0,-0.00040995547897182405
1408.0,9.829083865042776e-06
1536.0,-1.8489172362023965e-05
1664.0,0.00017304124776273966
1792.0,-8.445716957794502e-05
1920.0,-0.000763465475756675
2048.0,-2.5150640794890933e-05
2304.0,-0.00012814300134778023
2560.0,1.6913614672375843e-05
2816.0,-0.0006514356937259436
3072.0,-0.00047776338760741055
3328.0,-0.00043319619726389647
3584.0,-0.00048470348701812327
3840.0,-0.0006514700362458825
4096.0,-0.00040978670585900545
4608.0,0.00015093911497388035
5120.0,0.00033110970980487764
5632.0,0.0002780544164124876
6144.0,-3.3404499845346436e-05
6656.0,0.0002485032600816339
7168.0,0.0003182736109010875
7680.0,-0.00011639764852588996
8192.0,-0.0004209445614833385
9216.0,-6.728609878337011e-05
10240.0,0.00025981635553762317
11264.0,9.540266182739288e-05
12288.0,-7.7641570896958e-06
13312.0,-0.00021892713266424835
14336.0,8.196945418603718e-05
end
