version,3.0
numOfCh,1
type,point
parent_name,10-cuts
ch_type,1_1
kcount,1
numberNandB,1
brightnessNandB,1
carpet pos,0
pc,0
Time (ms),CH1 Auto-Correlation
1.0,0.027581334114074707
2.0,0.022691473364830017
3.0,0.01934453286230564
4.0,0.01692882925271988
5.0,0.015133856795728207
6.0,0.013653460890054703
7.0,0.01260337233543396
8.0,0.011724211275577545
9.0,0.01072923094034195
10.0,0.009808453731238842
11.0,0.008826138451695442
12.0,0.008176608011126518
13.0,0.0077902101911604404
14.0,0.007306857965886593
15.0,0.007006433326750994
16.0,0.006859636399894953
18.0,0.006174339447170496
20.0,0.00567301269620657
22.0,0.0051329066045582294
24.0,0.004371677525341511
26.0,0.0039769685827195644
28.0,0.0036931722424924374
30.0,0.0034181945957243443
32.0,0.003208781825378537
36.0,0.0028288427274674177
40.0,0.002243731403723359
44.0,0.0017680271994322538
48.0,0.0016083726659417152
52.0,0.001503150211647153
56.0,0.001516805961728096
60.0,0.0016175387427210808
64.0,0.0015562342014163733
72.0,0.0011983808362856507
80.0,0.0007008378743194044
88.0,0.0004717734700534493
96.0,0.0006359082763083279
104.0,0.00044781152973882854
112.0,0.0011136269895359874
120.0,0.0014707825612276793
128.0,0.0012019786518067122
144.0,0.0011576872784644365
160.0,0.0017488754820078611
176.0,0.0010827117366716266
192.0,0.0007069188286550343
208.0,0.00028358594863675535
224.0,0.00046624126844108105
240.0,0.0006321516702882946
256.0,0.0007259759586304426
288.0,-0.00029352199635468423
320.0,0.000746019184589386
352.0,0.00047506371629424393
384.0,0.00036140013253316283
416.0,0.00022420835739467293
448.0,0.0005810282309539616
480.0,0.0008234895649366081
512.0,-2.6687561330618337e-05
576.0,0.00017718800518196076
640.0,0.0002518974943086505
704.0,0.00017635726544540375
768.0,0.0007183724665082991
832.0,8.445097046205774e-05
896.0,0.0002957067918032408
960.0,0.00015029878704808652
1024.0,0.00040316313970834017
1152.0,0.0002164049947168678
1280.0,-0.0008950534393079579
1408.0,-0.0005612954264506698
1536.0,0.0001392187550663948
1664.0,1.4446958402913879e-06
1792.0,9.512208634987473e-05
1920.0,-0.00023422330559697002
2048.0,-0.0003123623027931899
2304.0,6.131087866378948e-05
2560.0,-0.0006293770275078714
2816.0,-0.00019673863425850868
3072.0,0.0004468999395612627
3328.0,8.595710096415132e-05
3584.0,-0.0001431099808542058
3840.0,0.0007399645983241498
4096.0,0.0005329328123480082
4608.0,4.7114048356888816e-05
5120.0,7.709628698648885e-05
5632.0,-0.0006071786629036069
6144.0,-0.0008110984927043319
6656.0,-0.000314514763886109
7168.0,0.00045253688585944474
7680.0,-8.696473378222436e-05
8192.0,0.0004785784403793514
9216.0,-0.0003243774699512869
10240.0,-0.0004481158684939146
11264.0,8.412326860707253e-05
12288.0,-0.00036586791975423694
13312.0,-0.0004272841033525765
14336.0,-0.0005197811406105757
end
