version,3.0
numOfCh,1
type,point
parent_name,10-cuts
ch_type,1_1
kcount,1
numberNandB,1
brightnessNandB,1
carpet pos,0
pc,0
Time (ms),CH1 Auto-Correlation
1.0,0.01669144630432129
2.0,0.013764852657914162
3.0,0.01175741944462061
4.0,0.010269318707287312
5.0,0.009158625267446041
6.0,0.008206658065319061
7.0,0.007380909752100706
8.0,0.006622507702559233
9.0,0.0061370860785245895
10.0,0.005805124994367361
11.0,0.0053319367580115795
12.0,0.004918333608657122
13.0,0.004669134970754385
14.0,0.004345349967479706
15.0,0.004134734161198139
16.0,0.003915269393473864
18.0,0.003528717439621687
20.0,0.0032652250956743956
22.0,0.003109693294391036
24.0,0.0029473495669662952
26.0,0.0029212788213044405
28.0,0.0028794303070753813
30.0,0.002602230291813612
32.0,0.0023760427720844746
36.0,0.0020871234592050314
40.0,0.0021619396284222603
44.0,0.0020326292142271996
48.0,0.0017810752615332603
52.0,0.0013507615076377988
56.0,0.0007473999867215753
60.0,0.0005915855872444808
64.0,0.0005380994407460093
72.0,0.0008639650768600404
80.0,0.0005509143811650574
88.0,0.00023090351896826178
96.0,0.0004183545825071633
104.0,0.0005055340006947517
112.0,0.0003194185555912554
120.0,0.0002567003248259425
128.0,6.285547715378925e-05
144.0,0.0002027527807513252
160.0,0.00033283341326750815
176.0,0.0002234884159406647
192.0,0.00012221504584886134
208.0,-0.00022896188602317125
224.0,-0.00014822845696471632
240.0,-0.00013981627125758678
256.0,-8.599091961514205e-05
288.0,0.00028236093930900097
320.0,-0.00021629124239552766
352.0,-0.0007609390304423869
384.0,-0.0007522739470005035
416.0,-0.0004274634411558509
448.0,-0.0003013139357790351
480.0,-0.00043713991180993617
512.0,-0.0004757570568472147
576.0,-0.0007749063079245389
640.0,-0.0003934391133952886
704.0,-7.156158244470134e-05
768.0,-0.00011308767716400325
832.0,0.00019459992472548038
896.0,0.0005348613485693932
960.0,0.0006768565508536994
1024.0,0.00010234412184217945
1152.0,0.00017026100249495357
1280.0,-0.0009427879122085869
1408.0,-0.0004709019558504224
1536.0,-0.00030862438143230975
1664.0,1.1906688087037764e-05
1792.0,0.0006359152030199766
1920.0,0.00014868046855553985
2048.0,2.6228033675579354e-05
2304.0,-0.00017311116971541196
2560.0,3.9574770198669285e-05
2816.0,-9.003215382108465e-05
3072.0,-0.00029485556297004223
3328.0,6.445904728025198e-05
3584.0,0.0004741306183859706
3840.0,-0.0002020990796154365
4096.0,4.885575981461443e-05
4608.0,0.00020769232651218772
5120.0,-0.00020687232608906925
5632.0,-8.687053923495114e-05
6144.0,3.117978849331848e-05
6656.0,0.00014357187319546938
7168.0,0.0003533636627253145
7680.0,-0.00034839531872421503
8192.0,3.3138683647848666e-05
9216.0,-0.00020072537881787866
10240.0,5.97402140556369e-05
11264.0,0.0001464122033212334
12288.0,-0.00015707897546235472
13312.0,-5.2992996643297374e-05
14336.0,4.229055411997251e-05
end
