version,3.0
numOfCh,1
type,point
parent_name,10-cuts
ch_type,1_1
kcount,1
numberNandB,1
brightnessNandB,1
carpet pos,0
pc,0
Time (ms),CH1 Auto-Correlation
1.0,0.028202341869473457
2.0,0.023293960839509964
3.0,0.019714614376425743
4.0,0.01695440709590912
5.0,0.014846990816295147
6.0,0.013131767511367798
7.0,0.011712062172591686
8.0,0.01052485965192318
9.0,0.009482011198997498
10.0,0.008588162250816822
11.0,0.007834062911570072
12.0,0.0071544162929058075
13.0,0.006770587060600519
14.0,0.0065122973173856735
15.0,0.006152234971523285
16.0,0.0057739997282624245
18.0,0.005247325170785189
20.0,0.00449264794588089
22.0,0.00386860896833241
24.0,0.003601511474698782
26.0,0.0030961367301642895
28.0,0.0028710789047181606
30.0,0.002805182943120599
32.0,0.002484851283952594
36.0,0.002012388315051794
40.0,0.0016869341488927603
44.0,0.001172061893157661
48.0,0.0014155777171254158
52.0,0.00131089030764997
56.0,0.00095189712010324
60.0,0.0010943550150841475
64.0,0.0010841003386303782
72.0,0.000739318726118654
80.0,0.0007730627548880875
88.0,0.0003543926286511123
96.0,0.0007010847912169993
104.0,0.0010980636579915881
112.0,0.001123090274631977
120.0,0.0010843720519915223
128.0,0.0007058955379761755
144.0,0.000507192627992481
160.0,0.0006951766554266214
176.0,0.00127622508443892
192.0,0.001080792280845344
208.0,0.0006044194451533258
224.0,0.00014164080494083464
240.0,0.00013203815615270287
256.0,-0.0006023532478138804
288.0,-7.586779247503728e-05
320.0,0.0005552980583161116
352.0,0.0013342371676117182
384.0,-0.0011505561415106058
416.0,-0.0004932597512379289
448.0,0.0002756125177256763
480.0,0.0005441286484710872
512.0,0.00011904311395483091
576.0,-0.0004348958609625697
640.0,-0.0005456501967273653
704.0,0.0005028452142141759
768.0,-0.0006083030602894723
832.0,-0.0008925053989514709
896.0,5.568007327383384e-05
960.0,-0.00015726970741525292
1024.0,-0.00012855402019340545
1152.0,-0.0004499804344959557
1280.0,2.797353226924315e-05
1408.0,0.00018216308671981096
1536.0,0.00028659345116466284
1664.0,0.00024394967476837337
1792.0,-0.0003045694320462644
1920.0,-0.00012970944226253778
2048.0,-0.00028619825025089085
2304.0,-0.00015013366646599025
2560.0,-6.98081566952169e-05
2816.0,-0.00041555651114322245
3072.0,-0.00026378140319138765
3328.0,-0.00025957662728615105
3584.0,-0.0005165638285689056
3840.0,0.0006231454317457974
4096.0,0.00029190562781877816
4608.0,9.892441448755562e-05
5120.0,-0.0003533679118845612
5632.0,0.00021409642067737877
6144.0,9.69859684119001e-05
6656.0,-0.00022955167514737695
7168.0,-0.00017839984502643347
7680.0,-0.00025437321164645255
8192.0,7.877264579292387e-05
9216.0,-0.000146513877552934
10240.0,6.589090480701998e-05
11264.0,0.0003720612439792603
12288.0,-0.000278419756796211
13312.0,0.00035939959343522787
14336.0,-0.0005156879778951406
end
