version,3.0
numOfCh,1
type,point
parent_name,10-cuts
ch_type,1_1
kcount,1
numberNandB,1
brightnessNandB,1
carpet pos,0
pc,0
Time (ms),CH1 Auto-Correlation
1.0,0.016530588269233704
2.0,0.01369570754468441
3.0,0.011673799715936184
4.0,0.010013132356107235
5.0,0.008753782138228416
6.0,0.007842428982257843
7.0,0.007100705523043871
8.0,0.0065651084296405315
9.0,0.006015423685312271
10.0,0.005685089156031609
11.0,0.005446860566735268
12.0,0.005180959589779377
13.0,0.004987337626516819
14.0,0.0048654028214514256
15.0,0.004660764709115028
16.0,0.004405555315315723
18.0,0.003842337755486369
20.0,0.003410437610000372
22.0,0.0031543984077870846
24.0,0.0029922209214419127
26.0,0.002905659144744277
28.0,0.0027600328903645277
30.0,0.00274113891646266
32.0,0.0025514999870210886
36.0,0.001868435530923307
40.0,0.0018542505567893386
44.0,0.0016786076594144106
48.0,0.0012926121708005667
52.0,0.0011851274175569415
56.0,0.001333144144155085
60.0,0.000922535196878016
64.0,0.0008116081007756293
72.0,0.0008667202200740576
80.0,0.00045190745731815696
88.0,0.00030853209318593144
96.0,0.0003011368098668754
104.0,0.0004005759838037193
112.0,0.0004101607482880354
120.0,0.0005628902581520379
128.0,0.0005494822980836034
144.0,0.0003267361898906529
160.0,0.00019641986000351608
176.0,0.0001590716710779816
192.0,4.5938752009533346e-05
208.0,0.00016668146417941898
224.0,-2.2930591512704268e-05
240.0,8.721851918380708e-05
256.0,0.0003360318369232118
288.0,0.00015772930055391043
320.0,4.8432289077027235e-06
352.0,5.3707473853137344e-05
384.0,0.0003567613021004945
416.0,-0.0005708174430765212
448.0,-1.2560378308990039e-05
480.0,-0.00013481616042554379
512.0,-0.00010343398753320798
576.0,-0.00036731004365719855
640.0,-0.0002467494341544807
704.0,-0.00017471573664806783
768.0,-0.0001117642386816442
832.0,3.3509350032545626e-05
896.0,4.029581305076135e-06
960.0,-0.00017564461450092494
1024.0,7.561783422715962e-05
1152.0,0.00021846158779226243
1280.0,0.0001322625030297786
1408.0,0.0001827606902224943
1536.0,0.00022162841924000531
1664.0,0.0002121991419699043
1792.0,0.00018932457896880805
1920.0,7.637070666532964e-05
2048.0,0.00012027332559227943
2304.0,0.00012043888273183256
2560.0,-7.82053975854069e-05
2816.0,1.3990719480716507e-06
3072.0,-7.86942255217582e-05
3328.0,-7.673443178646266e-05
3584.0,-0.00017343448416795582
3840.0,1.9455014808045235e-06
4096.0,-0.00014297261077445
4608.0,2.7623145797406323e-05
5120.0,-9.60931574809365e-05
5632.0,-0.0005023129633627832
6144.0,-0.00018210355483461171
6656.0,-0.00019826403877232224
7168.0,-0.00013519171625375748
7680.0,-0.00020642598974518478
8192.0,-3.549813845893368e-05
9216.0,0.00021597716840915382
10240.0,-0.0001586238358868286
11264.0,0.00015852719661779702
12288.0,6.438655691454187e-05
13312.0,-4.007254119642312e-06
14336.0,2.580143882369157e-05
end
