version,3.0
numOfCh,1
type,point
parent_name,10-cuts
ch_type,1_1
kcount,1
numberNandB,1
brightnessNandB,1
carpet pos,0
pc,0
Time (ms),CH1 Auto-Correlation
1.0,0.027618413791060448
2.0,0.022865500301122665
3.0,0.01940794102847576
4.0,0.016779564321041107
5.0,0.014802898280322552
6.0,0.013252047821879387
7.0,0.011943327262997627
8.0,0.010873744264245033
9.0,0.009971036575734615
10.0,0.009151816368103027
11.0,0.008542616851627827
12.0,0.007911927998065948
13.0,0.007501896470785141
14.0,0.006991032976657152
15.0,0.0066353860311210155
16.0,0.006286039017140865
18.0,0.005652882624417543
20.0,0.0053603677079081535
22.0,0.005190775729715824
24.0,0.0047621154226362705
26.0,0.004419773817062378
28.0,0.0042709363624453545
30.0,0.0037966975942254066
32.0,0.003141849534586072
36.0,0.0029558674432337284
40.0,0.0024786649737507105
44.0,0.002271532081067562
48.0,0.0016830512322485447
52.0,0.0015709868166595697
56.0,0.0018834768561646342
60.0,0.0018507832428440452
64.0,0.001708409981802106
72.0,0.0013102574739605188
80.0,0.00039342863601632416
88.0,0.00026254498516209424
96.0,0.00039729554555378854
104.0,8.519602124579251e-05
112.0,-0.00033981219166889787
120.0,-0.0004337845020927489
128.0,-0.000981401070021093
144.0,-0.0009770536562427878
160.0,-0.0005156163242645562
176.0,-0.00015564876957796514
192.0,-0.0005216699209995568
208.0,-0.0007999310619197786
224.0,-0.0011703820200636983
240.0,-0.0015840139240026474
256.0,-0.0009585504303686321
288.0,0.0007754040998406708
320.0,0.00103851780295372
352.0,0.0010510263964533806
384.0,-0.0003336145309731364
416.0,0.0002409771113889292
448.0,0.001098977169021964
480.0,0.0005019665113650262
512.0,-0.00012059437722200528
576.0,-0.0005559577257372439
640.0,-0.00028787300107069314
704.0,0.0003185223613400012
768.0,0.0010571472812443972
832.0,0.0002679874887689948
896.0,-0.0002804136020131409
960.0,-0.0002684254723135382
1024.0,-2.7380347091821022e-05
1152.0,-0.00025906163500621915
1280.0,-0.0003324003191664815
1408.0,-8.48269191919826e-05
1536.0,-0.0001499244972364977
1664.0,-0.0003360390255693346
1792.0,-7.408052169921575e-06
1920.0,0.0007130930898711085
2048.0,0.0005387145793065429
2304.0,7.883120269980282e-05
2560.0,6.582203786820173e-05
2816.0,0.0005065072327852249
3072.0,-0.0006396782118827105
3328.0,-6.550624675583094e-05
3584.0,3.852224472211674e-05
3840.0,-5.611215965473093e-05
4096.0,0.00026652688393369317
4608.0,-0.00027744367253035307
5120.0,0.0003832568763755262
5632.0,1.7491280232206918e-05
6144.0,-0.0002758822520263493
6656.0,-0.00019866114598698914
7168.0,-0.0003654701868072152
7680.0,-0.0001450473500881344
8192.0,-3.442126035224646e-05
9216.0,-0.0001523506361991167
10240.0,-1.6619971574982628e-05
11264.0,-0.0005372683517634869
12288.0,-0.00026815274031832814
13312.0,0.0001264921302208677
14336.0,0.001066810917109251
end
