version,3.0
numOfCh,1
type,point
parent_name,10-cuts
ch_type,1_1
kcount,1
numberNandB,1
brightnessNandB,1
carpet pos,0
pc,0
Time (ms),CH1 Auto-Correlation
1.0,0.016300512477755547
2.0,0.013220267370343208
3.0,0.011098610237240791
4.0,0.009662742726504803
5.0,0.008627285249531269
6.0,0.0077186026610434055
7.0,0.007006112020462751
8.0,0.006378668826073408
9.0,0.005783691070973873
10.0,0.005211608484387398
11.0,0.004704637452960014
12.0,0.004353429190814495
13.0,0.003929988946765661
14.0,0.0035990923643112183
15.0,0.003330852370709181
16.0,0.003072667634114623
18.0,0.00271398457698524
20.0,0.0022941860370337963
22.0,0.0019737447146326303
24.0,0.0017634783871471882
26.0,0.0015348180895671248
28.0,0.0014608582714572549
30.0,0.0011890922905877233
32.0,0.0008716390002518892
36.0,0.0007638537208549678
40.0,0.0007300402503460646
44.0,0.0006665216060355306
48.0,0.0006791765918023884
52.0,0.0007237508543767035
56.0,0.0007407033117488027
60.0,0.0006008315831422806
64.0,0.0006052408134564757
72.0,0.0001713555830065161
80.0,-0.00018794200150296092
88.0,-0.00036608034861274064
96.0,-0.0004241370188537985
104.0,-0.0001573013432789594
112.0,0.00010961251973640174
120.0,7.336789713008329e-05
128.0,3.2922216632869095e-06
144.0,-0.0004825113283004612
160.0,-0.0006581799825653434
176.0,4.0632730815559626e-05
192.0,0.00014898482186254114
208.0,0.0004931847797706723
224.0,0.0008606923511251807
240.0,0.0009181092027574778
256.0,0.00036524361348710954
288.0,0.0005959278787486255
320.0,0.00029851446743123233
352.0,5.587777559412643e-05
384.0,0.00023111044720280915
416.0,3.9521892176708207e-05
448.0,0.00018777421792037785
480.0,-0.00011592347436817363
512.0,0.00019332478404976428
576.0,0.0001678502158029005
640.0,0.00025689532049000263
704.0,-0.00018038233974948525
768.0,-0.00020862746168859303
832.0,7.995062333066016e-06
896.0,4.264727249392308e-05
960.0,0.00037891490501351655
1024.0,0.00025157371419481933
1152.0,-0.00024148018565028906
1280.0,5.993005106574856e-05
1408.0,-0.00022094949963502586
1536.0,-0.00012208444240968674
1664.0,7.000678306212649e-05
1792.0,-0.0006501725292764604
1920.0,0.0003665722324512899
2048.0,-0.00022695562802255154
2304.0,-0.00016193484771065414
2560.0,0.00011051011097151786
2816.0,4.1420535126235336e-05
3072.0,5.0800128519767895e-05
3328.0,4.3822965380968526e-05
3584.0,9.241249244951177e-06
3840.0,-0.00010369246592745185
4096.0,-0.00015335617354139686
4608.0,-0.0003583387879189104
5120.0,-0.00015753021580167115
5632.0,-9.99344320007367e-06
6144.0,1.7490237951278687e-05
6656.0,-7.527957495767623e-05
7168.0,-0.00017956196097657084
7680.0,-0.0002059898542938754
8192.0,-0.00021438792464323342
9216.0,0.0002611182862892747
10240.0,0.000126355211250484
11264.0,5.525300730369054e-05
12288.0,0.00029061108944006264
13312.0,-0.00012918694119434804
14336.0,-0.0004349599767010659
end
