version,3.0
numOfCh,1
type,point
parent_name,10-cuts
ch_type,1_1
kcount,1
numberNandB,1
brightnessNandB,1
carpet pos,0
pc,0
Time (ms),CH1 Auto-Correlation
1.0,0.0157152246683836
2.0,0.012880589812994003
3.0,0.010826677083969116
4.0,0.009377389214932919
5.0,0.008247301913797855
6.0,0.007326167542487383
7.0,0.006606191396713257
8.0,0.00602327287197113
9.0,0.005586393643170595
10.0,0.005189063958823681
11.0,0.004715288989245892
12.0,0.004375154618173838
13.0,0.004072666168212891
14.0,0.00375247816555202
15.0,0.0035262538585811853
16.0,0.003393403021618724
18.0,0.00317680137231946
20.0,0.00293465843424201
22.0,0.0026826912071555853
24.0,0.002446617465466261
26.0,0.002181962365284562
28.0,0.002018751809373498
30.0,0.001769858063198626
32.0,0.001652499195188284
36.0,0.0012923924950882792
40.0,0.001423394656740129
44.0,0.001494325464591384
48.0,0.0013898643665015697
52.0,0.0014733137795701623
56.0,0.0017865346744656563
60.0,0.0015908995410427451
64.0,0.001072924118489027
72.0,0.000497442320920527
80.0,0.0004301670996937901
88.0,0.00045068832696415484
96.0,0.0006870214128866792
104.0,0.00038534463965334
112.0,0.00010861008922802284
120.0,-2.600635298222187e-06
128.0,-8.904654532670975e-05
144.0,-9.073757973965257e-05
160.0,-0.00031460108584724367
176.0,-0.0004483343509491533
192.0,-0.00012190563575131819
208.0,-0.0005284027429297566
224.0,-0.0005724523216485977
240.0,-0.00045938126277178526
256.0,-0.00024175469297915697
288.0,-0.0004138723888900131
320.0,0.0003289958694949746
352.0,0.00036413647467270494
384.0,0.0003213265154045075
416.0,-4.3442672904348e-05
448.0,-0.00019963359227403998
480.0,-9.711658640298992e-05
512.0,-0.00019354115647729486
576.0,0.0003443386231083423
640.0,-1.9887516828021035e-05
704.0,-0.00016061175847426057
768.0,-0.00016952291480265558
832.0,-0.00036860728869214654
896.0,-0.00047799720778129995
960.0,-2.028094786510337e-05
1024.0,-0.0005098709370940924
1152.0,0.00014099909458309412
1280.0,0.00022563467791769654
1408.0,-0.0003503924235701561
1536.0,-0.00017016548372339457
1664.0,0.0002857707440853119
1792.0,0.00022089875710662454
1920.0,-0.00028894247952848673
2048.0,-8.500128024024889e-05
2304.0,-8.923492714529857e-05
2560.0,6.984858919167891e-05
2816.0,0.00018113176338374615
3072.0,0.00010762723832158372
3328.0,0.00010559565998846665
3584.0,4.316194826969877e-05
3840.0,-0.00041469361167401075
4096.0,-9.471365046920255e-05
4608.0,-0.00014349607226904482
5120.0,-9.744831186253577e-05
5632.0,2.265228977194056e-05
6144.0,0.00017434752953704447
6656.0,0.0001272408990189433
7168.0,-9.490864613326266e-05
7680.0,1.2365334441710729e-05
8192.0,-0.00022810926020611078
9216.0,8.081029955064878e-05
10240.0,-6.190535350469872e-05
11264.0,-0.00011172671656822786
12288.0,0.00019546097610145807
13312.0,2.4410064725088887e-05
14336.0,-4.661390994442627e-05
end
