version,3.0
numOfCh,1
type,point
parent_name,10-cuts
ch_type,1_1
kcount,1
numberNandB,1
brightnessNandB,1
carpet pos,0
pc,0
Time (ms),CH1 Auto-Correlation
1.0,0.014871850609779358
2.0,0.01202231366187334
3.0,0.010081793181598186
4.0,0.008656729944050312
5.0,0.007593527901917696
6.0,0.006637128069996834
7.0,0.005963844712823629
8.0,0.005377762019634247
9.0,0.004778321832418442
10.0,0.0042729564011096954
11.0,0.003892696462571621
12.0,0.0035669298376888037
13.0,0.0032912970054894686
14.0,0.0031301837880164385
15.0,0.0028818342834711075
16.0,0.00273964018560946
18.0,0.0024709913413971663
20.0,0.00229960517026484
22.0,0.001960206078365445
24.0,0.0016159636434167624
26.0,0.0012157170567661524
28.0,0.0012123128399252892
30.0,0.0012727566063404083
32.0,0.0011417557252570987
36.0,0.0010388646041974425
40.0,0.0008672282565385103
44.0,0.000817698601167649
48.0,0.0006646169349551201
52.0,0.0006358938990160823
56.0,0.00045690336264669895
60.0,0.00013715680688619614
64.0,2.4020269847824238e-05
72.0,0.00018997183360625058
80.0,0.00010027964890468866
88.0,0.00010743622988229617
96.0,8.737593452678993e-05
104.0,-3.164365989505313e-05
112.0,0.0002324911329196766
120.0,0.00015558455197606236
128.0,-1.6711057469365187e-05
144.0,-0.0002968310145661235
160.0,-0.00020707921066787094
176.0,-0.00034674457856453955
192.0,-0.0007233855430968106
208.0,-0.001168886898085475
224.0,-0.0006466573686338961
240.0,0.00016540626529604197
256.0,0.00017054750060196966
288.0,0.00038251871592365205
320.0,0.00048065526061691344
352.0,0.0003890126827172935
384.0,0.00011999130947515368
416.0,3.937445944757201e-05
448.0,-5.6654971558600664e-05
480.0,-0.00045042502461001277
512.0,-0.00019843244808726013
576.0,0.00010187260340899229
640.0,4.383838313515298e-05
704.0,0.0005381909431889653
768.0,0.00038072120514698327
832.0,-1.7933516573975794e-05
896.0,0.00016329457866959274
960.0,0.00025384468608535826
1024.0,5.6314962421311066e-05
1152.0,0.00025136975455097854
1280.0,5.062430500402115e-05
1408.0,0.00017912170733325183
1536.0,-5.2959945605834946e-05
1664.0,9.702423994895071e-05
1792.0,0.0002445231657475233
1920.0,0.0003958136949222535
2048.0,0.0002682640333659947
2304.0,-8.101852290565148e-05
2560.0,9.910822700476274e-05
2816.0,0.00024866906460374594
3072.0,-0.00032819900661706924
3328.0,0.00029063207330182195
3584.0,-0.0002468035963829607
3840.0,-6.529467646032572e-05
4096.0,0.0002946220338344574
4608.0,2.2809032088844106e-05
5120.0,-0.00021258735796436667
5632.0,-0.00014179569552652538
6144.0,3.874596950481646e-05
6656.0,-0.00014007597928866744
7168.0,-6.249283615034074e-05
7680.0,-0.000340320315444842
8192.0,-8.619314758107066e-05
9216.0,-0.00022766971960663795
10240.0,-0.00016071120626293123
11264.0,-0.00015871188952587545
12288.0,6.839837442385033e-05
13312.0,0.00024081548326648772
14336.0,0.0001459858613088727
end
