version,3.0
numOfCh,1
type,point
parent_name,10-cuts
ch_type,1_1
kcount,1
numberNandB,1
brightnessNandB,1
carpet pos,0
pc,0
Time (ms),CH1 Auto-Correlation
1.0,0.015604901127517223
2.0,0.012564016506075859
3.0,0.010383511893451214
4.0,0.008817348629236221
5.0,0.007625185884535313
6.0,0.0066231973469257355
7.0,0.005906080361455679
8.0,0.0054153758101165295
9.0,0.0050082434900105
10.0,0.004728764295578003
11.0,0.004477370996028185
12.0,0.004187040496617556
13.0,0.0038310440722852945
14.0,0.0034677768126130104
15.0,0.0031351109500974417
16.0,0.002763335360214114
18.0,0.002218130510300398
20.0,0.001945800380781293
22.0,0.0017746859230101109
24.0,0.0016651031328365207
26.0,0.0015183084178715944
28.0,0.001506542437709868
30.0,0.001419744687154889
32.0,0.0013385639758780599
36.0,0.0012195802992209792
40.0,0.0010600873501971364
44.0,0.0008034753263927996
48.0,0.0006507012294605374
52.0,0.0005530018243007362
56.0,0.00032226776238530874
60.0,0.0005677097360603511
64.0,0.0006642004591412842
72.0,0.0005537835531868041
80.0,0.0003195591561961919
88.0,0.00021764505072496831
96.0,0.0007448280230164528
104.0,0.0009959519375115633
112.0,0.0006523634074255824
120.0,-1.5093771253305022e-05
128.0,9.987880912376568e-05
144.0,0.00016630844038445503
160.0,-0.00014117434329818934
176.0,-0.0002939857658930123
192.0,-0.00032539249514229596
208.0,-0.00034107398823834956
224.0,-0.0004782199684996158
240.0,8.71936026669573e-06
256.0,-0.00017368087719660252
288.0,-0.00016167850117199123
320.0,-0.00053769676014781
352.0,-0.0001714713143883273
384.0,-0.00046678955550305545
416.0,-0.0002945783780887723
448.0,-0.0003675014595501125
480.0,2.9468332286342047e-05
512.0,-0.0002035283687291667
576.0,8.82069070939906e-05
640.0,0.0006361852283589542
704.0,0.0004413496353663504
768.0,0.0003679061192087829
832.0,0.0001989359298022464
896.0,-0.00022314787202049047
960.0,1.006475599751866e-06
1024.0,-0.00033747704583220184
1152.0,-0.0004678273689933121
1280.0,-0.00018386839656159282
1408.0,-7.685143646085635e-05
1536.0,-4.873887155554257e-05
1664.0,-0.0001686558243818581
1792.0,-0.0001973105245269835
1920.0,-5.619736839435063e-05
2048.0,-0.0001017707254504785
2304.0,-0.00011876292410306633
2560.0,0.00018531827663537115
2816.0,7.284786261152476e-05
3072.0,-0.00016168059664778411
3328.0,5.373400199459866e-05
3584.0,0.00029724082560278475
3840.0,-0.00013044211664237082
4096.0,8.913208148442209e-05
4608.0,-0.00017192358791362494
5120.0,0.00016252599016297609
5632.0,-6.307143485173583e-05
6144.0,-0.00012797776435036212
6656.0,-0.0001382238115184009
7168.0,2.0952740669599734e-05
7680.0,7.343578909058124e-05
8192.0,-0.00012722538667730987
9216.0,-2.5194834961439483e-05
10240.0,-0.00025340309366583824
11264.0,7.868806278565899e-05
12288.0,0.00010668503091437742
13312.0,-7.77091336203739e-05
14336.0,6.290344026638195e-05
end
