version,3.0
numOfCh,1
type,point
parent_name,10-cuts
ch_type,1_1
kcount,1
numberNandB,1
brightnessNandB,1
carpet pos,0
pc,0
Time (ms),CH1 Auto-Correlation
1.0,0.025602180510759354
2.0,0.020882191136479378
3.0,0.01762547716498375
4.0,0.015175682492554188
5.0,0.013245631940662861
6.0,0.011783797293901443
7.0,0.010513857007026672
8.0,0.009558532387018204
9.0,0.008915606886148453
10.0,0.008343392983078957
11.0,0.007743618451058865
12.0,0.007097925990819931
13.0,0.006485176272690296
14.0,0.005924138706177473
15.0,0.005473243072628975
16.0,0.0050875162705779076
18.0,0.004591736476868391
20.0,0.003896281821653247
22.0,0.0034038061276078224
24.0,0.0031470879912376404
26.0,0.0028108314145356417
28.0,0.002549404976889491
30.0,0.0025749618653208017
32.0,0.0026846963446587324
36.0,0.00238025956787169
40.0,0.002204139018431306
44.0,0.002040343126282096
48.0,0.0016611034516245127
52.0,0.0012916455743834376
56.0,0.0011449585435912013
60.0,0.0009047305211424828
64.0,0.000735036563128233
72.0,0.000616924895439297
80.0,0.0004433218273334205
88.0,0.0007398801972158253
96.0,0.0005394146428443491
104.0,0.0009047634666785598
112.0,0.0014408323913812637
120.0,0.001492299372330308
128.0,0.0011583935702219605
144.0,0.000816296087577939
160.0,0.00036870449548587203
176.0,0.0004135474737267941
192.0,0.00031698972452431917
208.0,0.0003793229116126895
224.0,0.00042479889816604555
240.0,0.0008259353344328701
256.0,0.0012044488685205579
288.0,5.6493830925319344e-05
320.0,7.661854760954157e-05
352.0,-0.00015604526561219245
384.0,-0.0003580701013561338
416.0,0.0007363540353253484
448.0,0.000555860111489892
480.0,-0.0005842203390784562
512.0,-0.0003020292497240007
576.0,0.0003457364218775183
640.0,0.00050173862837255
704.0,0.0006281303940340877
768.0,-0.0001620205002836883
832.0,-8.418886864092201e-05
896.0,-0.000427881081122905
960.0,-0.00020272993424441665
1024.0,0.00048666144721210003
1152.0,0.00010474142618477345
1280.0,-0.0006305936258286238
1408.0,-0.0006501576863229275
1536.0,-0.00033676737803034484
1664.0,-0.00015639036428183317
1792.0,0.0005366947734728456
1920.0,0.00034386434708721936
2048.0,-0.00029479031218215823
2304.0,-0.0001475128228776157
2560.0,0.0002963473671115935
2816.0,-0.0005850516026839614
3072.0,-0.00030894510564394295
3328.0,-0.0004277817206457257
3584.0,-0.0001545139675727114
3840.0,5.080729806650197e-06
4096.0,9.580163896316662e-05
4608.0,0.0003569873806554824
5120.0,0.0003212162700947374
5632.0,0.0003479653678368777
6144.0,4.489543698582565e-06
6656.0,-0.00015731241728644818
7168.0,-0.0003162443172186613
7680.0,-0.0006828886107541621
8192.0,-0.00042210231185890734
9216.0,0.0001964230032172054
10240.0,0.00017203707830049098
11264.0,0.00024838215904310346
12288.0,-0.0003973997081629932
13312.0,-0.0005097551038488746
14336.0,0.0003521149337757379
end
