version,3.0
numOfCh,1
type,point
parent_name,10-cuts
ch_type,1_1
kcount,1
numberNandB,1
brightnessNandB,1
carpet pos,0
pc,0
Time (ms),CH1 Auto-Correlation
1.0,0.02667146362364292
2.0,0.021960237994790077
3.0,0.018852926790714264
4.0,0.016328930854797363
5.0,0.014416254125535488
6.0,0.012919927947223186
7.0,0.011466938070952892
8.0,0.010255278088152409
9.0,0.009349108673632145
10.0,0.008524279110133648
11.0,0.0079276654869318
12.0,0.007437482476234436
13.0,0.006944562774151564
14.0,0.0066605787724256516
15.0,0.006313440389931202
16.0,0.00609316723421216
18.0,0.0055181533098220825
20.0,0.005246379412710667
22.0,0.004884718451648951
24.0,0.004595022648572922
26.0,0.004314851015806198
28.0,0.004103821702301502
30.0,0.00365197891369462
32.0,0.0032998663373291492
36.0,0.0028560725040733814
40.0,0.002954456489533186
44.0,0.0030828923918306828
48.0,0.0029259829316288233
52.0,0.002747607184574008
56.0,0.0025641226675361395
60.0,0.0020199152640998363
64.0,0.0019865892827510834
72.0,0.0021179767791181803
80.0,0.0018136538565158844
88.0,0.0015637219185009599
96.0,0.0017712910193949938
104.0,0.002364494139328599
112.0,0.0018523394828662276
120.0,0.0010204873979091644
128.0,0.00012496986892074347
144.0,0.0009039631695486605
160.0,0.0006360154366120696
176.0,0.0006467009079642594
192.0,0.0002430498570902273
208.0,0.0007194381323643029
224.0,0.0005455740611068904
240.0,0.0010981049854308367
256.0,0.0005012037581764162
288.0,0.0008272056002169847
320.0,0.0011037166696041822
352.0,0.0009977511363103986
384.0,0.00027371698524802923
416.0,-0.00021057882986497134
448.0,-0.0006820240523666143
480.0,-0.0006294795894064009
512.0,0.0003420904104132205
576.0,0.00026080175302922726
640.0,-0.0006200121133588254
704.0,-0.0010482707293704152
768.0,-0.0001719822466839105
832.0,-0.0005689485114999115
896.0,-5.999923450872302e-05
960.0,-0.00094870530301705
1024.0,-2.92136592179304e-05
1152.0,-2.835667874023784e-05
1280.0,0.000528504082467407
1408.0,0.0004921455401927233
1536.0,9.364964353153482e-05
1664.0,0.00023824551317375153
1792.0,-0.000665168568957597
1920.0,0.0002785100368782878
2048.0,0.0002551463549025357
2304.0,-2.0942834453308024e-05
2560.0,7.71093400544487e-05
2816.0,-0.0005388939171098173
3072.0,-0.0005020477110520005
3328.0,-0.00011917119263671339
3584.0,9.346792467113119e-06
3840.0,-0.0003266952116973698
4096.0,-0.00051959662232548
4608.0,0.00011799256753874943
5120.0,0.0004994678893126547
5632.0,0.00030355455237440765
6144.0,1.8132095647160895e-05
6656.0,-0.00015942915342748165
7168.0,-0.00016627300647087395
7680.0,-0.00030086259357631207
8192.0,0.00028678704984486103
9216.0,-0.00011503763380460441
10240.0,-0.0005777195910923183
11264.0,-0.00020968455646652728
12288.0,-0.00046588428085669875
13312.0,-8.27044787001796e-05
14336.0,0.0010620380053296685
end
