version,3.0
numOfCh,1
type,point
parent_name,10-cuts
ch_type,1_1
kcount,1
numberNandB,1
brightnessNandB,1
carpet pos,0
pc,0
Time (ms),CH1 Auto-Correlation
1.0,0.025633016601204872
2.0,0.020757583901286125
3.0,0.017427481710910797
4.0,0.014852677471935749
5.0,0.012880886904895306
6.0,0.011432881467044353
7.0,0.010391983203589916
8.0,0.00962266605347395
9.0,0.008697718381881714
10.0,0.007815134711563587
11.0,0.007063078694045544
12.0,0.006499068345874548
13.0,0.005948953330516815
14.0,0.00551645876839757
15.0,0.004932897165417671
16.0,0.004571815486997366
18.0,0.003947657998651266
20.0,0.003530021058395505
22.0,0.0035171634517610073
24.0,0.0036619375459849834
26.0,0.003326413221657276
28.0,0.002822994254529476
30.0,0.002505262615159154
32.0,0.002147893887013197
36.0,0.001575932721607387
40.0,0.0011810772120952606
44.0,0.0012276602210476995
48.0,0.0009890913497656584
52.0,0.0007336215348914266
56.0,0.0008589740609750152
60.0,0.00035458290949463844
64.0,-0.0002558873384259641
72.0,0.00029026585980318487
80.0,0.0005434724153019488
88.0,0.0003444634785410017
96.0,-4.2262330680387095e-05
104.0,-0.00034446068457327783
112.0,-0.0009385980665683746
120.0,-0.00040564301889389753
128.0,5.993914601276629e-05
144.0,0.0002416348725091666
160.0,-0.00040097403689287603
176.0,-0.00042878923704847693
192.0,-0.0010124165564775467
208.0,-0.000564990914426744
224.0,-0.0005390603328123689
240.0,-0.00030012178467586637
256.0,0.00042290761484764516
288.0,0.00062246696325019
320.0,0.0005266643711365759
352.0,0.0005178527208045125
384.0,0.0004429286054801196
416.0,-9.123184281634167e-05
448.0,0.00020485631830524653
480.0,-0.0008397194324061275
512.0,-0.0007720174617134035
576.0,-0.0002959707344416529
640.0,-0.00011064482532674447
704.0,2.6150239591515856e-06
768.0,1.0065402420877945e-05
832.0,0.00023271697864402086
896.0,-0.0001979785447474569
960.0,-0.0006600712076760828
1024.0,0.00037826987681910396
1152.0,0.0002259895991301164
1280.0,-0.0003325440047774464
1408.0,-0.0006857238477095962
1536.0,-0.0003640993672888726
1664.0,-0.00030013362993486226
1792.0,0.0004950101138092577
1920.0,-0.00038520031375810504
2048.0,-0.00040002402965910733
2304.0,0.00021712767193093896
2560.0,-0.00044807547237724066
2816.0,-8.27460753498599e-05
3072.0,0.00039068920887075365
3328.0,0.000517331704031676
3584.0,-0.00031814101384952664
3840.0,-0.00027285554097034037
4096.0,0.0007248336914926767
4608.0,-0.000244844239205122
5120.0,-8.703667117515579e-05
5632.0,-0.0002722846402321011
6144.0,0.00022886825900059193
6656.0,0.00012855164823122323
7168.0,7.392890256596729e-05
7680.0,0.0001015349043882452
8192.0,-0.0005603640456683934
9216.0,0.00010373401892138645
10240.0,-0.00011192032252438366
11264.0,0.0002301488711964339
12288.0,-0.0003735185891855508
13312.0,0.0001246571628144011
14336.0,-0.00015679412172175944
end
