version,3.0
numOfCh,1
type,point
parent_name,10-cuts
ch_type,1_1
kcount,1
numberNandB,1
brightnessNandB,1
carpet pos,0
pc,0
Time (ms),CH1 Auto-Correlation
1.0,0.02715604566037655
2.0,0.02222083881497383
3.0,0.019010497257113457
4.0,0.016556009650230408
5.0,0.01460340991616249
6.0,0.013195076957345009
7.0,0.011822337284684181
8.0,0.010713928379118443
9.0,0.009595618583261967
10.0,0.008662184700369835
11.0,0.007915522903203964
12.0,0.007158205844461918
13.0,0.006533066742122173
14.0,0.006164955906569958
15.0,0.005788175389170647
16.0,0.005435591097921133
18.0,0.00502709299325943
20.0,0.0048499880358576775
22.0,0.00457523949444294
24.0,0.003911713138222694
26.0,0.0032545977737754583
28.0,0.003224383806809783
30.0,0.0032396484166383743
32.0,0.0027444467414170504
36.0,0.002516574924811721
40.0,0.0021886348258703947
44.0,0.002000854117795825
48.0,0.0014576169196516275
52.0,0.0008106875466182828
56.0,0.0008801555377431214
60.0,0.0006480060401372612
64.0,0.0004111254820600152
72.0,0.0001851936976891011
80.0,0.00018086731142830104
88.0,-8.759504271438345e-05
96.0,-0.00033167508081533015
104.0,0.000164749551913701
112.0,0.0007974463514983654
120.0,0.0007680190610699356
128.0,0.0004892753204330802
144.0,7.738204294582829e-05
160.0,0.0001589476887602359
176.0,-6.185965321492404e-05
192.0,2.153821878891904e-05
208.0,-8.562853327021003e-05
224.0,-0.000927335990127176
240.0,-0.000498511828482151
256.0,-0.001013648696243763
288.0,-0.001332186395302415
320.0,-0.0009460998699069023
352.0,-0.00021122858743183315
384.0,-0.00020904646953567863
416.0,-0.0005893217166885734
448.0,-0.000679591903463006
480.0,-0.0004783483745995909
512.0,-0.000660252757370472
576.0,0.0004427798558026552
640.0,0.0005529900081455708
704.0,0.0007560733356513083
768.0,-0.00032973691122606397
832.0,0.0007444836664944887
896.0,-0.0005199008737690747
960.0,-3.419482891331427e-05
1024.0,0.00038591024349443614
1152.0,-0.0005538795376196504
1280.0,-0.0002600712759885937
1408.0,-0.00024110169033519924
1536.0,0.00047912952140904963
1664.0,0.0004645126173272729
1792.0,-0.000663570303004235
1920.0,-0.00040954447467811406
2048.0,-0.00025376371922902763
2304.0,0.00024114179541356862
2560.0,0.0004582568071782589
2816.0,-0.0005192349781282246
3072.0,0.00031218232470564544
3328.0,-0.00019637694640550762
3584.0,-1.4188709428708535e-05
3840.0,-0.00010508044942980632
4096.0,-0.00035172930802218616
4608.0,5.3693762311013415e-05
5120.0,-6.553719867952168e-05
5632.0,4.050327333970927e-05
6144.0,-3.237227429053746e-05
6656.0,-2.8730957637890242e-05
7168.0,0.0004624317225534469
7680.0,3.738045415957458e-05
8192.0,-2.0992400095565245e-05
9216.0,-8.971997885964811e-05
10240.0,-0.00010413491690997034
11264.0,-0.000328917260048911
12288.0,-0.0001993588957702741
13312.0,2.275776023452636e-05
14336.0,3.142712375847623e-05
end
