version,3.0
numOfCh,1
type,point
parent_name,10-cuts
ch_type,1_1
kcount,1
numberNandB,1
brightnessNandB,1
carpet pos,0
pc,0
Time (ms),CH1 Auto-Correlation
1.0,0.016833223402500153
2.0,0.013899469748139381
3.0,0.01188273262232542
4.0,0.010456760413944721
5.0,0.009260499849915504
6.0,0.00827116146683693
7.0,0.007383180782198906
8.0,0.006743887905031443
9.0,0.00617533503100276
10.0,0.005700062494724989
11.0,0.005163282621651888
12.0,0.004734865855425596
13.0,0.00436392892152071
14.0,0.004034352954477072
15.0,0.003763631684705615
16.0,0.003533723531290889
18.0,0.0031127012334764004
20.0,0.0029870253056287766
22.0,0.002914994955062866
24.0,0.002814279869198799
26.0,0.0025156785268336535
28.0,0.002251050667837262
30.0,0.0020289039239287376
32.0,0.0017200997099280357
36.0,0.0012184912338852882
40.0,0.0010614858474582434
44.0,0.0010051097488030791
48.0,0.0007685489836148918
52.0,0.0003680293448269367
56.0,0.00026586433523334563
60.0,0.0001406645606039092
64.0,0.00031036490690894425
72.0,2.3446098566637374e-05
80.0,5.332629370968789e-06
88.0,1.8870521216740599e-06
96.0,3.7133511796128005e-05
104.0,0.0004303559544496238
112.0,0.0005101683200336993
120.0,0.0005537235992960632
128.0,0.0003183611261192709
144.0,0.0004887744435109198
160.0,2.4733975806157105e-05
176.0,0.00016509054694324732
192.0,0.00019370341033209115
208.0,0.0005394803010858595
224.0,0.0005331645952537656
240.0,0.00021599132742267102
256.0,-0.00013520204811356962
288.0,-7.753986574243754e-05
320.0,-0.0006288953591138124
352.0,-0.0005398552166298032
384.0,-0.0004068221023771912
416.0,2.6953910492011346e-05
448.0,0.00015185904339887202
480.0,-8.277147571789101e-05
512.0,4.008127507404424e-05
576.0,1.7794765199141693e-06
640.0,3.505450877128169e-05
704.0,0.00030034573865123093
768.0,-5.2912996579834726e-06
832.0,5.383541792980395e-05
896.0,-0.00020579293777700514
960.0,-0.00018148505478166044
1024.0,1.891376086859964e-05
1152.0,-6.905919872224331e-05
1280.0,9.579033212503418e-05
1408.0,-0.0003485176421236247
1536.0,-0.00020617948030121624
1664.0,0.0003983165370300412
1792.0,0.0003081034810747951
1920.0,-1.618112946744077e-05
2048.0,0.0003351587802171707
2304.0,-1.3853060409019236e-05
2560.0,-0.0001934175961650908
2816.0,0.0002541354624554515
3072.0,-0.00033018176327459514
3328.0,-0.00017586992180440575
3584.0,-0.0005001179524697363
3840.0,-0.00019124052778352052
4096.0,-0.00011455464118625969
4608.0,-0.00012066831550328061
5120.0,-0.00019824784249067307
5632.0,7.387071718767402e-07
6144.0,-1.534399234515149e-05
6656.0,0.0001479602069593966
7168.0,0.00011867459397763014
7680.0,0.0003093895211350173
8192.0,-4.7537054342683405e-05
9216.0,0.00013740795839112252
10240.0,-0.00012945996422786266
11264.0,-0.00024168835079763085
12288.0,-0.00015457850531674922
13312.0,-1.4060250350667047e-06
14336.0,0.00025466617080383003
end
