version,3.0
numOfCh,1
type,point
parent_name,10-cuts
ch_type,1_1
kcount,1
numberNandB,1
brightnessNandB,1
carpet pos,0
pc,0
Time (ms),CH1 Auto-Correlation
1.0,0.015877844765782356
2.0,0.013060705736279488
3.0,0.011224823072552681
4.0,0.0098488237708807
5.0,0.008761094883084297
6.0,0.0077781095169484615
7.0,0.006912342272698879
8.0,0.006175875663757324
9.0,0.005639619659632444
10.0,0.005146969575434923
11.0,0.00460307439789176
12.0,0.004135853610932827
13.0,0.003727976931259036
14.0,0.003446849063038826
15.0,0.003261817153543234
16.0,0.003067393321543932
18.0,0.002734940964728594
20.0,0.002609440591186285
22.0,0.0025955839082598686
24.0,0.002628600923344493
26.0,0.002552087651565671
28.0,0.0024551968090236187
30.0,0.002394318813458085
32.0,0.002339557046070695
36.0,0.002210235223174095
40.0,0.0018096825806424022
44.0,0.0014611281221732497
48.0,0.001350854872725904
52.0,0.001040698611177504
56.0,0.0007926917751319706
60.0,0.0005059833638370037
64.0,0.0002631235111039132
72.0,0.000410435808589682
80.0,0.0005673769628629088
88.0,0.00018782196275424212
96.0,-0.0002345139509998262
104.0,1.3527400369639508e-05
112.0,0.00040807583718560636
120.0,0.0003605104284361005
128.0,0.00026286495267413557
144.0,0.00026826863177120686
160.0,6.932156247785315e-05
176.0,0.00016308399790432304
192.0,-3.69482695532497e-05
208.0,0.00025256528169848025
224.0,0.0003801707352977246
240.0,7.458125764969736e-05
256.0,0.0005501524428837001
288.0,0.0005370713188312948
320.0,0.0004905534442514181
352.0,0.00032595443190075457
384.0,0.00021791581821162254
416.0,0.0002393718168605119
448.0,0.0001595011999597773
480.0,1.6916215827222914e-05
512.0,0.0002641670871526003
576.0,0.0003815579111687839
640.0,9.358476381748915e-05
704.0,-0.00034522637724876404
768.0,-0.00025645483401603997
832.0,0.00022851544781588018
896.0,0.00017999626288656145
960.0,0.0002800482034217566
1024.0,-0.000201972943614237
1152.0,0.00011450942110968754
1280.0,0.0006354624056257308
1408.0,0.00026297903968952596
1536.0,-0.000269953568931669
1664.0,-0.00013508927077054977
1792.0,-0.0005109608173370361
1920.0,-0.0004275039827916771
2048.0,-0.0006070726667530835
2304.0,-0.00019582365348469466
2560.0,-0.00010938461491605267
2816.0,-0.00014511559857055545
3072.0,-0.00024158314045052975
3328.0,-7.213321805465966e-05
3584.0,0.00021481298608705401
3840.0,4.973140312358737e-05
4096.0,0.00023592778597958386
4608.0,0.00023402468650601804
5120.0,-8.609828364569694e-05
5632.0,-3.431320146773942e-05
6144.0,-0.00015447732585016638
6656.0,-0.00044988852459937334
7168.0,0.00016005155339371413
7680.0,-8.954688382800668e-05
8192.0,0.00029481700039468706
9216.0,4.721314326161519e-05
10240.0,-0.0002950919733848423
11264.0,-0.0001026669197017327
12288.0,0.0002659861638676375
13312.0,0.00010013640712713823
14336.0,-0.0005515683442354202
end
