version,3.0
numOfCh,1
type,point
parent_name,10-cuts
ch_type,1_1
kcount,1
numberNandB,1
brightnessNandB,1
carpet pos,0
pc,0
Time (ms),CH1 Auto-Correlation
1.0,0.026754381135106087
2.0,0.02174106426537037
3.0,0.018216261640191078
4.0,0.015585491433739662
5.0,0.013768238946795464
6.0,0.012405782006680965
7.0,0.01114199310541153
8.0,0.010020522400736809
9.0,0.009195501916110516
10.0,0.008308733813464642
11.0,0.007595818489789963
12.0,0.007016903255134821
13.0,0.006525489967316389
14.0,0.006061200052499771
15.0,0.005482739303261042
16.0,0.005148913245648146
18.0,0.004517122637480497
20.0,0.004114436451345682
22.0,0.0038520912639796734
24.0,0.0034927474334836006
26.0,0.0030739675275981426
28.0,0.002621140331029892
30.0,0.0023860642686486244
32.0,0.002308567985892296
36.0,0.0020859865471720695
40.0,0.0018607535166665912
44.0,0.0015129961539059877
48.0,0.0012597115710377693
52.0,0.0009730909951031208
56.0,0.0006551930564455688
60.0,0.0007558577926829457
64.0,0.0008670593379065394
72.0,0.0010354609694331884
80.0,0.0010275044478476048
88.0,0.0010129519505426288
96.0,0.000977882998995483
104.0,0.0010604496346786618
112.0,0.0006227462436072528
120.0,0.0006069748778827488
128.0,0.0004674445663113147
144.0,0.00015618516772519797
160.0,-0.00010529129940550774
176.0,2.3088365196599625e-05
192.0,-0.0005530038033612072
208.0,0.00011647663632174954
224.0,-0.0008442006073892117
240.0,-0.00014116674719844013
256.0,-0.0002831727033481002
288.0,0.0001448409166187048
320.0,0.000503555522300303
352.0,0.0006381035782396793
384.0,0.0006930626695975661
416.0,7.841875776648521e-05
448.0,0.0005001372774131596
480.0,0.00039942460716702044
512.0,0.0003811962378676981
576.0,0.00017966753512155265
640.0,0.0001251524081453681
704.0,0.0004967693821527064
768.0,-2.9812435968779027e-05
832.0,0.0008709983667358756
896.0,0.00010382477921666577
960.0,0.0002578180283308029
1024.0,0.0006076329736970365
1152.0,0.00019805971533060074
1280.0,0.0002214660489698872
1408.0,0.00032320001628249884
1536.0,0.0007655435474589467
1664.0,-0.00040187203558161855
1792.0,-0.0008762296056374907
1920.0,-0.00019685193547047675
2048.0,0.00029016524786129594
2304.0,0.00021057449339423329
2560.0,1.1205467671970837e-05
2816.0,-0.00011262442421866581
3072.0,-0.0003270207962486893
3328.0,-9.632985893404111e-05
3584.0,2.9470747904269956e-05
3840.0,-0.0004585729038808495
4096.0,-0.00015303754480555654
4608.0,-0.00032131961779668927
5120.0,-0.0007447892567142844
5632.0,-0.00038577691884711385
6144.0,-0.0003426329931244254
6656.0,0.00018107914365828037
7168.0,-8.573287050239742e-05
7680.0,-0.000166232101037167
8192.0,-0.00013635234790854156
9216.0,0.00030025013256818056
10240.0,0.00036858796374872327
11264.0,-4.1394905565539375e-06
12288.0,-0.0003606319660320878
13312.0,-7.093677413649857e-05
14336.0,0.0001781025785021484
end
