version,3.0
numOfCh,1
type,point
parent_name,10-cuts
ch_type,1_1
kcount,1
numberNandB,1
brightnessNandB,1
carpet pos,0
pc,0
Time (ms),CH1 Auto-Correlation
1.0,0.016045020893216133
2.0,0.0130182895809412
3.0,0.011030063033103943
4.0,0.009487236849963665
5.0,0.008433278650045395
6.0,0.007621404714882374
7.0,0.006857084576040506
8.0,0.00618487223982811
9.0,0.005621806252747774
10.0,0.00511406222358346
11.0,0.0045676217414438725
12.0,0.004226675257086754
13.0,0.003871101653203368
14.0,0.003586488775908947
15.0,0.003379435045644641
16.0,0.0031647183932363987
18.0,0.0028759671840816736
20.0,0.0025875954888761044
22.0,0.002405548933893442
24.0,0.0023172274231910706
26.0,0.0023341740015894175
28.0,0.002176084788516164
30.0,0.0020515418145805597
32.0,0.0018934672698378563
36.0,0.001588233164511621
40.0,0.0013463739305734634
44.0,0.0011090545449405909
48.0,0.0006027797935530543
52.0,0.0003187946567777544
56.0,0.000496939173899591
60.0,0.0007432106067426503
64.0,0.0007532787276431918
72.0,0.0004420562763698399
80.0,0.00014028316945768893
88.0,-0.0001431748241884634
96.0,-0.00027061859145760536
104.0,-9.15884884307161e-05
112.0,-0.0003475737466942519
120.0,-0.00030406934092752635
128.0,-0.00038990008761174977
144.0,-0.00035439812927506864
160.0,-8.498010720359161e-05
176.0,-0.00040302445995621383
192.0,-1.2831505955546163e-05
208.0,-0.00024615373695269227
224.0,-0.0002762888325378299
240.0,-0.0006288785953074694
256.0,-0.0006708158762194216
288.0,-0.00020833456073887646
320.0,0.0002844344999175519
352.0,0.0001956303312908858
384.0,0.00019185052951797843
416.0,0.0001701648288872093
448.0,0.00012357255036477
480.0,7.853202259866521e-05
512.0,0.0004137244541198015
576.0,0.0003149580443277955
640.0,4.388090019347146e-05
704.0,0.00012890803918708116
768.0,0.00034631130984053016
832.0,-0.0001686709001660347
896.0,-1.5612453353242017e-05
960.0,0.0003296614740975201
1024.0,-0.00020626962941605598
1152.0,0.0003895871923305094
1280.0,-0.00026963319396600127
1408.0,-7.641554839210585e-05
1536.0,8.165409963112324e-05
1664.0,0.00021795013162773103
1792.0,-0.0008649675874039531
1920.0,2.586919981695246e-05
2048.0,0.00039517402183264494
2304.0,-0.0001567505969433114
2560.0,-0.0002736744354479015
2816.0,2.9036233172519132e-05
3072.0,-0.0002590107324067503
3328.0,5.6330300139961764e-05
3584.0,0.0002962482103612274
3840.0,-0.00020543127902783453
4096.0,0.00026241136947646737
4608.0,-0.00015287971473298967
5120.0,2.498732828826178e-05
5632.0,0.0002179811999667436
6144.0,-2.4050248612184078e-05
6656.0,-9.961305477190763e-05
7168.0,3.0400571631616913e-05
7680.0,-1.860223346739076e-05
8192.0,-0.00014759691839572042
9216.0,-7.65489530749619e-05
10240.0,8.483931196678896e-06
11264.0,-0.00022697639360558242
12288.0,-0.00012108426744816825
13312.0,0.0001248199841938913
14336.0,-5.853416587342508e-05
end
