version,3.0
numOfCh,1
type,point
parent_name,10-cuts
ch_type,1_1
kcount,1
numberNandB,1
brightnessNandB,1
carpet pos,0
pc,0
Time (ms),CH1 Auto-Correlation
1.0,0.01646619662642479
2.0,0.013541579246520996
3.0,0.011569084599614143
4.0,0.010035672225058079
5.0,0.008729059249162674
6.0,0.007753091398626566
7.0,0.007005785126239061
8.0,0.006392864044755697
9.0,0.005899274256080389
10.0,0.005495194345712662
11.0,0.005143979098647833
12.0,0.0048444755375385284
13.0,0.0045956699177622795
14.0,0.0042931209318339825
15.0,0.004007745999842882
16.0,0.0038186938036233187
18.0,0.003433146048337221
20.0,0.0030892696231603622
22.0,0.002721131080761552
24.0,0.0023630564101040363
26.0,0.001974991289898753
28.0,0.0017233622493222356
30.0,0.001664959010668099
32.0,0.0016529515851289034
36.0,0.0017491343896836042
40.0,0.0016056032618507743
44.0,0.001390526071190834
48.0,0.0011840332299470901
52.0,0.0007464242517016828
56.0,0.0006980764446780086
60.0,0.0006514987908303738
64.0,0.000678569485899061
72.0,0.0003803444269578904
80.0,0.000269305455731228
88.0,0.0005686540389433503
96.0,0.0005046419682912529
104.0,0.00046668777940794826
112.0,0.00041007602703757584
120.0,0.0005070931510999799
128.0,0.0003366117598488927
144.0,0.0005239975871518254
160.0,0.000726661121007055
176.0,0.0008307297830469906
192.0,0.00027127491193823516
208.0,0.0003125100920442492
224.0,0.0006122937193140388
240.0,0.0008634559926576912
256.0,0.0004421088087838143
288.0,0.00023653835523873568
320.0,0.0005101386341266334
352.0,0.0007941615185700357
384.0,0.0011246626963838935
416.0,0.0006131004774942994
448.0,0.000167224628967233
480.0,0.00014121545245870948
512.0,-3.1113315344555303e-05
576.0,-8.253499254351482e-05
640.0,0.00017561462300363928
704.0,0.00031020253663882613
768.0,0.0002718247997108847
832.0,0.0005426167044788599
896.0,0.0003991230623796582
960.0,-0.0001313846296397969
1024.0,0.0002723559446167201
1152.0,0.0002599248837213963
1280.0,-2.0305194993852638e-05
1408.0,-6.023611786076799e-05
1536.0,0.00012724795669782907
1664.0,-0.00025730032939463854
1792.0,-0.0003175851597916335
1920.0,-0.0002347848640056327
2048.0,-0.0003107501252088696
2304.0,-0.00016938704357016832
2560.0,-0.00041200732812285423
2816.0,-0.0004174441273789853
3072.0,1.316258840233786e-05
3328.0,-0.0002594479010440409
3584.0,-0.00032711707171984017
3840.0,-0.00012743139814119786
4096.0,0.0002432833716738969
4608.0,-0.00012388601317070425
5120.0,-0.00019555659673642367
5632.0,-0.00028635471244342625
6144.0,-0.0005358853959478438
6656.0,-3.369685146026313e-05
7168.0,0.0002792115556076169
7680.0,0.0004169280582573265
8192.0,0.0006378447869792581
9216.0,0.0002215761342085898
10240.0,-0.00013772715465165675
11264.0,-0.00015760990208946168
12288.0,-2.730334563239012e-05
13312.0,-4.332773096393794e-05
14336.0,-2.1317364371498115e-05
end
