version,3.0
numOfCh,1
type,point
parent_name,10-cuts
ch_type,1_1
kcount,1
numberNandB,1
brightnessNandB,1
carpet pos,0
pc,0
Time (ms),CH1 Auto-Correlation
1.0,0.025951506569981575
2.0,0.02102035842835903
3.0,0.01774453930556774
4.0,0.015315206721425056
5.0,0.013441874645650387
6.0,0.011919427663087845
7.0,0.010645117610692978
8.0,0.009738297201693058
9.0,0.008955880999565125
10.0,0.008409072645008564
11.0,0.008072659373283386
12.0,0.007594414986670017
13.0,0.007091403938829899
14.0,0.006697949953377247
15.0,0.006265489384531975
16.0,0.005814443342387676
18.0,0.005129800643771887
20.0,0.0046003577299416065
22.0,0.004167777020484209
24.0,0.003992277197539806
26.0,0.003962147980928421
28.0,0.003879529656842351
30.0,0.003586773294955492
32.0,0.0031429713126271963
36.0,0.0028409059159457684
40.0,0.0023367509711533785
44.0,0.0017966635059565306
48.0,0.002039975021034479
52.0,0.002142359036952257
56.0,0.002057973761111498
60.0,0.0017529379110783339
64.0,0.0014383322559297085
72.0,0.0012663983507081866
80.0,0.0014821073273196816
88.0,0.0012499539880082011
96.0,0.0010227953316643834
104.0,0.0005281145568005741
112.0,0.000488862453494221
120.0,0.0005781474174000323
128.0,0.0006947226938791573
144.0,0.0005011615576222539
160.0,-1.1518224710016511e-05
176.0,0.0005644932389259338
192.0,0.0009292416507378221
208.0,0.00045326139661483467
224.0,0.0003170135896652937
240.0,0.00014336749154608697
256.0,0.00024368311278522015
288.0,-0.00022729039483238012
320.0,2.824454531946685e-05
352.0,4.403361526783556e-05
384.0,-0.00065888452809304
416.0,-0.0011119472328573465
448.0,-0.00023841213260311633
480.0,-0.00018263148376718163
512.0,-0.00038796168519183993
576.0,-0.0005617678980343044
640.0,0.0003392627404537052
704.0,0.0005118090775795281
768.0,1.6116847518787836e-06
832.0,0.0007425017538480461
896.0,0.001027367659844458
960.0,0.0004510573926381767
1024.0,-0.00015861456631682813
1152.0,6.513389234896749e-05
1280.0,-0.0009588328539393842
1408.0,-0.0008174027898348868
1536.0,-3.780676343012601e-05
1664.0,0.00015471082588192075
1792.0,0.000537534651812166
1920.0,-0.0005025041755288839
2048.0,-0.0007328343926928937
2304.0,-0.00016364427574444562
2560.0,-0.0001890585117507726
2816.0,0.00039125297917053103
3072.0,0.00020089911413379014
3328.0,0.00023146939929574728
3584.0,-0.000554342579562217
3840.0,0.00020844776008743793
4096.0,0.0003163520887028426
4608.0,0.00016277350368909538
5120.0,0.0001534298644401133
5632.0,-8.023033296922222e-05
6144.0,-0.0002921303384937346
6656.0,-0.0005608999053947628
7168.0,-0.0004272453661542386
7680.0,-0.00018312466272618622
8192.0,0.00017403406673111022
9216.0,0.0002900752588175237
10240.0,-0.000226096817641519
11264.0,-0.0001410201221005991
12288.0,-6.766662409063429e-05
13312.0,0.00023535765649285167
14336.0,0.00015583715867251158
end
