version,3.0
numOfCh,1
type,point
parent_name,10-cuts
ch_type,1_1
kcount,1
numberNandB,1
brightnessNandB,1
carpet pos,0
pc,0
Time (ms),CH1 Auto-Correlation
1.0,0.015880046412348747
2.0,0.013043884187936783
3.0,0.011038485914468765
4.0,0.009583855047821999
5.0,0.008387397043406963
6.0,0.007483077701181173
7.0,0.0067670270800590515
8.0,0.006154038477689028
9.0,0.005611894652247429
10.0,0.00524745462462306
11.0,0.004926592577248812
12.0,0.004649001639336348
13.0,0.004344383254647255
14.0,0.004073607735335827
15.0,0.0037938121240586042
16.0,0.0036506508477032185
18.0,0.003173403674736619
20.0,0.0028138477355241776
22.0,0.0026459775399416685
24.0,0.002762055955827236
26.0,0.00283557060174644
28.0,0.002583526074886322
30.0,0.002510574646294117
32.0,0.0024415452498942614
36.0,0.00239455234259367
40.0,0.0022679276298731565
44.0,0.0019292297074571252
48.0,0.0016530894208699465
52.0,0.0016631993930786848
56.0,0.0016831699758768082
60.0,0.0016322885639965534
64.0,0.0011995157692581415
72.0,0.0007988802390173078
80.0,0.0003265378763899207
88.0,0.0006104749045334756
96.0,0.0005916885565966368
104.0,0.0005140545545145869
112.0,0.00030595913995057344
120.0,0.0003154129080940038
128.0,0.00023219786817207932
144.0,-0.00033374622580595315
160.0,-0.0009478547144681215
176.0,-0.0009146339725703001
192.0,-0.0007251857896335423
208.0,-0.0006228078273124993
224.0,-0.0007512467564083636
240.0,-0.00034807546762749553
256.0,-0.0006235726759769022
288.0,-0.00042049569310620427
320.0,-9.825092274695635e-05
352.0,7.241727143991739e-05
384.0,-0.0001705613685771823
416.0,-0.0004308061907067895
448.0,-0.00033943820744752884
480.0,-0.00011778124462580308
512.0,-3.776848461711779e-05
576.0,-0.00016832671826705337
640.0,-0.00037375304964371026
704.0,-3.331356492708437e-05
768.0,0.0005357905756682158
832.0,0.0002534481172915548
896.0,-0.0003245874249842018
960.0,-0.0004414677678141743
1024.0,-0.00033465222804807127
1152.0,3.6285528040025383e-06
1280.0,-0.0001367658405797556
1408.0,0.000203904855879955
1536.0,0.00032967308652587235
1664.0,0.00070487818447873
1792.0,0.0005562150618061423
1920.0,-0.0006605657981708646
2048.0,-0.0006205349345691502
2304.0,-7.555342017440125e-05
2560.0,-0.00025056416052393615
2816.0,1.966448144230526e-05
3072.0,2.021850013989024e-05
3328.0,0.00019826780771836638
3584.0,-0.0002484422584529966
3840.0,0.00013369180669542402
4096.0,-5.709474498871714e-05
4608.0,2.40800127357943e-05
5120.0,-0.00014558000839315355
5632.0,-7.374204142251983e-05
6144.0,3.9289701817324385e-05
6656.0,-0.0001266823965124786
7168.0,4.528435238171369e-05
7680.0,-2.6247957066516392e-05
8192.0,-0.0001572941691847518
9216.0,5.313716610544361e-05
10240.0,0.00012876949040219188
11264.0,-0.00012490923108998686
12288.0,-2.9547545636887662e-05
13312.0,0.0001873623696155846
14336.0,9.034865797730163e-06
end
