version,3.0
numOfCh,1
type,point
parent_name,10-cuts
ch_type,1_1
kcount,1
numberNandB,1
brightnessNandB,1
carpet pos,0
pc,0
Time (ms),CH1 Auto-Correlation
1.0,0.01624375395476818
2.0,0.013159053400158882
3.0,0.01106195617467165
4.0,0.00950480904430151
5.0,0.0082422886043787
6.0,0.007302437908947468
7.0,0.006503687705844641
8.0,0.005869909655302763
9.0,0.005231339950114489
10.0,0.004708496853709221
11.0,0.00429890351369977
12.0,0.0040201409719884396
13.0,0.0037376093678176403
14.0,0.0035222466103732586
15.0,0.003362553659826517
16.0,0.003299814648926258
18.0,0.003032064763829112
20.0,0.0026331667322665453
22.0,0.0024124293122440577
24.0,0.0022311443462967873
26.0,0.002082607476040721
28.0,0.002000864828005433
30.0,0.0018375144572928548
32.0,0.0017580941785126925
36.0,0.0016459942562505603
40.0,0.0015457436675205827
44.0,0.0014214166440069675
48.0,0.0013891449198126793
52.0,0.0013520610518753529
56.0,0.001473496318794787
60.0,0.0013580045197159052
64.0,0.0013808658113703132
72.0,0.0011177882552146912
80.0,0.0004627237794920802
88.0,2.739130286499858e-05
96.0,-0.00022005059872753918
104.0,-0.0002024861896643415
112.0,5.1552833610912785e-05
120.0,0.00012561178300529718
128.0,8.064823487075046e-05
144.0,-0.0006845185998827219
160.0,-0.0005062902928330004
176.0,-0.00023751790286041796
192.0,-0.00031622478854842484
208.0,-0.0006003892631269991
224.0,-0.00018085796909872442
240.0,-0.00015582043852191418
256.0,6.946583016542718e-05
288.0,0.000383043778128922
320.0,0.0002640134480316192
352.0,-8.614787657279521e-05
384.0,-0.0002529580960981548
416.0,-0.00018735243065748364
448.0,1.886844984255731e-05
480.0,0.0007652483764104545
512.0,0.0005717327585443854
576.0,0.0007903586374595761
640.0,0.0002565656614024192
704.0,-0.0005207214271649718
768.0,-0.00043124554213136435
832.0,6.421989837690489e-06
896.0,0.0006779218674637377
960.0,0.00044766187784262
1024.0,0.00012858002446591854
1152.0,0.00012473860988393426
1280.0,-9.327441512141377e-05
1408.0,0.0004505395772866905
1536.0,0.0003600041673053056
1664.0,-0.0004373651754576713
1792.0,6.176200258778408e-05
1920.0,0.0005566622130572796
2048.0,0.00024361346731893718
2304.0,-0.0003458117425907403
2560.0,0.00019751014770008624
2816.0,-0.00023898223298601806
3072.0,3.356724846526049e-05
3328.0,-0.0001185857763630338
3584.0,-6.997066520852968e-05
3840.0,-0.00022156364866532385
4096.0,-0.00011919849930563942
4608.0,-7.735795952612534e-05
5120.0,-0.00028128770645707846
5632.0,-0.00023218848218675703
6144.0,-0.00027313100872561336
6656.0,-6.799526454415172e-05
7168.0,-0.00017674894479569048
7680.0,-0.000339065445587039
8192.0,3.1495376333623426e-06
9216.0,-0.00010462448699399829
10240.0,6.710048182867467e-05
11264.0,0.00020469749870244414
12288.0,0.0006709223962388933
13312.0,-1.0485808161320165e-05
14336.0,4.863701542490162e-05
end
