version,3.0
numOfCh,1
type,point
parent_name,10-cuts
ch_type,1_1
kcount,1
numberNandB,1
brightnessNandB,1
carpet pos,0
pc,0
Time (ms),CH1 Auto-Correlation
1.0,0.027761301025748253
2.0,0.022825762629508972
3.0,0.01944306492805481
4.0,0.01701602339744568
5.0,0.015081311576068401
6.0,0.013695837929844856
7.0,0.01242438331246376
8.0,0.011328043416142464
9.0,0.010487301275134087
10.0,0.009862360544502735
11.0,0.009280667640268803
12.0,0.008737565949559212
13.0,0.008312276564538479
14.0,0.007875549606978893
15.0,0.007478121668100357
16.0,0.006934558041393757
18.0,0.006162984762340784
20.0,0.005606719292700291
22.0,0.004997227806597948
24.0,0.004381925333291292
26.0,0.003920360002666712
28.0,0.0034725486766546965
30.0,0.0031602983362972736
32.0,0.003123284550383687
36.0,0.0027400264516472816
40.0,0.002651293994858861
44.0,0.0027744886465370655
48.0,0.0027455186937004328
52.0,0.0020873737521469593
56.0,0.0017111232737079263
60.0,0.0017472597537562251
64.0,0.0015204005176201463
72.0,0.0008714435389265418
80.0,0.0011366406688466668
88.0,0.0012135482393205166
96.0,0.0011482235277071595
104.0,0.0004926008987240493
112.0,0.00022652186453342438
120.0,0.000364428386092186
128.0,8.896014333004132e-05
144.0,0.0002738858456723392
160.0,0.000659201992675662
176.0,0.0007271089125424623
192.0,0.0009548569796606898
208.0,0.0013461019843816757
224.0,0.0009666800615377724
240.0,0.00011837841157102957
256.0,7.602767436765134e-05
288.0,0.0006909238290973008
320.0,0.0004117799107916653
352.0,0.00038780970498919487
384.0,0.0006251790910027921
416.0,-0.0002694464928936213
448.0,0.0001526084670331329
480.0,0.0005624167970381677
512.0,0.0009825669694691896
576.0,0.0010719693964347243
640.0,0.00019922693900298327
704.0,0.000450685532996431
768.0,-0.00029032983002252877
832.0,-0.0014464741107076406
896.0,9.668789425631985e-05
960.0,-0.0009272932657040656
1024.0,-0.00039625581121072173
1152.0,3.6694545997306705e-06
1280.0,-0.00017671256500761956
1408.0,-0.0003743486595340073
1536.0,-0.0005735060549341142
1664.0,0.00020705367205664515
1792.0,-2.8274871510802768e-05
1920.0,-4.9526774091646075e-05
2048.0,-0.00024131745158229023
2304.0,-3.8443853554781526e-05
2560.0,0.0004775415873154998
2816.0,-0.00037367557524703443
3072.0,-2.0676463464042172e-05
3328.0,-0.0004021861532237381
3584.0,-0.0001550351589685306
3840.0,-0.00047538054059259593
4096.0,-0.0005837165517732501
4608.0,-1.9890343537554145e-05
5120.0,0.0006165634840726852
5632.0,-7.744081813143566e-05
6144.0,-0.0005505452863872051
6656.0,0.00010316813131794333
7168.0,0.0002936389937531203
7680.0,-0.0001282811863347888
8192.0,8.871022146195173e-05
9216.0,-0.0005494857905432582
10240.0,0.0010182983241975307
11264.0,-0.0006567256059497595
12288.0,-0.0013444145442917943
13312.0,0.0005081911804154515
14336.0,-0.001347451820038259
end
