version,3.0
numOfCh,1
type,point
parent_name,10-cuts
ch_type,1_1
kcount,1
numberNandB,1
brightnessNandB,1
carpet pos,0
pc,0
Time (ms),CH1 Auto-Correlation
1.0,0.015946336090564728
2.0,0.012951822020113468
3.0,0.010784698650240898
4.0,0.009195186197757721
5.0,0.008008098229765892
6.0,0.007022120524197817
7.0,0.0062570287846028805
8.0,0.005630865227431059
9.0,0.005155798513442278
10.0,0.00478894030675292
11.0,0.004426581785082817
12.0,0.004083253908902407
13.0,0.0038154837675392628
14.0,0.0035765168722718954
15.0,0.0033960812725126743
16.0,0.0033105339389294386
18.0,0.003025607205927372
20.0,0.0027815522626042366
22.0,0.0025195619091391563
24.0,0.002373910043388605
26.0,0.002266552299261093
28.0,0.00214573135599494
30.0,0.0020420225337147713
32.0,0.0018987029325217009
36.0,0.0012465058825910091
40.0,0.0008849585428833961
44.0,0.0009118231828324497
48.0,0.0008694966090843081
52.0,0.0007984254625625908
56.0,0.0008355408208444715
60.0,0.0007006773957982659
64.0,0.0004712362424470484
72.0,0.0002589512732811272
80.0,0.00041463549132458866
88.0,0.0005781939253211021
96.0,0.0005556108662858605
104.0,0.0005174591206014156
112.0,0.00031511427368968725
120.0,-5.5547498050145805e-05
128.0,-0.00013612765178550035
144.0,-0.0003319437091704458
160.0,1.915504071803298e-05
176.0,0.0003291843459010124
192.0,0.000467967038275674
208.0,0.0006562364287674427
224.0,0.00034129057894460857
240.0,-0.0001909774582600221
256.0,-0.00027027635951526463
288.0,-0.00028365032630972564
320.0,-0.0006031305529177189
352.0,-0.0005101975984871387
384.0,-0.00024474243400618434
416.0,-0.000700428441632539
448.0,-0.0003237457713112235
480.0,-5.181146661925595e-06
512.0,-0.00018661112699192017
576.0,-0.00042423620470799506
640.0,-0.0006429581553675234
704.0,-0.00028637549257837236
768.0,-0.00030131489620544016
832.0,-0.0001254378294106573
896.0,-9.594636503607035e-05
960.0,-1.2698281352641061e-05
1024.0,0.0003866770421154797
1152.0,-6.445417966460809e-05
1280.0,0.00014624926552642137
1408.0,-0.00012673591845668852
1536.0,0.00013316431432031095
1664.0,-0.000146923863212578
1792.0,-0.00019856700964737684
1920.0,-0.00013100748765282333
2048.0,0.00015071879897732288
2304.0,-9.126398799708113e-05
2560.0,7.243739673867822e-05
2816.0,-6.933106487849727e-05
3072.0,-3.5010518331546336e-05
3328.0,9.380739356856793e-05
3584.0,0.00045257850433699787
3840.0,-9.779783431440592e-05
4096.0,-0.0004983135731890798
4608.0,0.00029945129062980413
5120.0,-0.00011964688019361347
5632.0,1.1584977983147837e-05
6144.0,9.252634481526911e-05
6656.0,-0.00013611487520392984
7168.0,0.00014149898197501898
7680.0,-0.00031478385790251195
8192.0,0.00015385438746307045
9216.0,5.5723037803545594e-05
10240.0,-6.2095832618069835e-06
11264.0,-9.96259695966728e-05
12288.0,-7.083005039021373e-05
13312.0,0.00024567474611103535
14336.0,-0.0001222195860464126
end
