version,3.0
numOfCh,1
type,point
parent_name,10-cuts
ch_type,1_1
kcount,1
numberNandB,1
brightnessNandB,1
carpet pos,0
pc,0
Time (ms),CH1 Auto-Correlation
1.0,0.016919249668717384
2.0,0.013902091421186924
3.0,0.011717434041202068
4.0,0.010294810868799686
5.0,0.009157482534646988
6.0,0.008261347189545631
7.0,0.007525717839598656
8.0,0.006842697039246559
9.0,0.006273407023400068
10.0,0.0057237702421844006
11.0,0.005335836671292782
12.0,0.004991969559341669
13.0,0.00471846479922533
14.0,0.0045886291190981865
15.0,0.0043547991663217545
16.0,0.004204451106488705
18.0,0.0037285403814166784
20.0,0.003190268762409687
22.0,0.0027921912260353565
24.0,0.0024909565690904856
26.0,0.0023325709626078606
28.0,0.0021551959216594696
30.0,0.0019666587468236685
32.0,0.00168504286557436
36.0,0.0013453728752210736
40.0,0.0012162328930571675
44.0,0.0011816181940957904
48.0,0.0010082967346534133
52.0,0.0006426566978916526
56.0,0.0003760038234759122
60.0,0.0002508584293536842
64.0,-2.0352517822175287e-05
72.0,-0.00021753415057901293
80.0,-0.00029630149947479367
88.0,-0.0003275653871241957
96.0,-0.0004751513770315796
104.0,-0.0002882228291127831
112.0,-0.00040017583523876965
120.0,-0.00039492070209234953
128.0,-6.128653330961242e-05
144.0,0.0002823069808073342
160.0,0.0005287369131110609
176.0,0.00016792181122582406
192.0,0.0005144168389961123
208.0,0.0005005727289244533
224.0,-9.992319974116981e-05
240.0,-0.00010107804700965062
256.0,-0.00012168368266429752
288.0,-0.0006111850962042809
320.0,-0.0003121121262665838
352.0,0.00028148930869065225
384.0,0.0005135795217938721
416.0,8.559136767871678e-05
448.0,-6.560640031239018e-05
480.0,-0.00016150122974067926
512.0,-0.00037409845390357077
576.0,-0.00025768193881958723
640.0,0.0003551847185008228
704.0,0.00027146164211444557
768.0,0.0003348993486724794
832.0,0.0003336423833388835
896.0,-7.3193450589315034e-06
960.0,-0.0005542306462302804
1024.0,0.00018195807933807373
1152.0,-0.0001559072406962514
1280.0,-0.00029133030329830945
1408.0,-0.0002877672086469829
1536.0,5.946322562522255e-05
1664.0,0.00023984737345017493
1792.0,0.00011143326264573261
1920.0,6.313433550531045e-05
2048.0,3.7200574297457933e-05
2304.0,0.00011448316217865795
2560.0,1.4930969882698264e-05
2816.0,5.858699296368286e-05
3072.0,-0.0002920070255640894
3328.0,3.1046022286318475e-06
3584.0,-0.00018596250447444618
3840.0,-0.00014154701784718782
4096.0,-0.00013468292308971286
4608.0,4.440716656972654e-05
5120.0,7.201517746580066e-07
5632.0,-0.00012530777894426137
6144.0,-0.000174923989106901
6656.0,0.00010610894969431683
7168.0,-0.00012771585898008198
7680.0,-0.0003445986658334732
8192.0,0.00011083667050115764
9216.0,0.00022668077144771814
10240.0,-3.7046509532956406e-05
11264.0,6.947398651391268e-05
12288.0,-7.532585004810244e-05
13312.0,1.2775267350662034e-05
14336.0,-1.2753321243508253e-06
end
