version,3.0
numOfCh,1
type,point
parent_name,10-cuts
ch_type,1_1
kcount,1
numberNandB,1
brightnessNandB,1
carpet pos,0
pc,0
Time (ms),CH1 Auto-Correlation
1.0,0.016529908403754234
2.0,0.013784652575850487
3.0,0.011712547391653061
4.0,0.010208808816969395
5.0,0.009140301495790482
6.0,0.0083269402384758
7.0,0.007546541281044483
8.0,0.006891299970448017
9.0,0.006348867435008287
10.0,0.0059576439671218395
11.0,0.00549042783677578
12.0,0.0050007374957203865
13.0,0.004584476351737976
14.0,0.004380460828542709
15.0,0.004145882558077574
16.0,0.003918132744729519
18.0,0.0035464519169181585
20.0,0.003183327615261078
22.0,0.002799444133415818
24.0,0.0025493314024060965
26.0,0.0023780292831361294
28.0,0.0022745111491531134
30.0,0.0021456803660839796
32.0,0.0019979383796453476
36.0,0.0016143906395882368
40.0,0.0011104533914476633
44.0,0.0009711218299344182
48.0,0.0009336830116808414
52.0,0.0012108564842492342
56.0,0.0012117718579247594
60.0,0.0009296359494328499
64.0,0.0007777790306136012
72.0,0.0008547704201191664
80.0,0.000886578403878957
88.0,0.0005699644098058343
96.0,0.0004609873576555401
104.0,0.00029013428138569
112.0,0.0004792612453456968
120.0,0.0005008299485780299
128.0,0.00022326590260490775
144.0,0.0008055347134359181
160.0,0.0006500480230897665
176.0,0.0005818920326419175
192.0,0.0005261343321762979
208.0,0.0007241543498821557
224.0,0.0009452866506762803
240.0,0.0008512266213074327
256.0,0.0007785193738527596
288.0,0.000285514397546649
320.0,5.109655830892734e-05
352.0,9.754815982887521e-05
384.0,0.00040392077062278986
416.0,0.0003795757656916976
448.0,0.0006937418365851045
480.0,0.0005856641801074147
512.0,0.0008864751434884965
576.0,0.0005373898311518133
640.0,0.0001791264658095315
704.0,-0.00011756694584619254
768.0,-3.1204705010168254e-05
832.0,0.0004147043509874493
896.0,0.0001271463552257046
960.0,-0.0002307910326635465
1024.0,6.715597919537686e-06
1152.0,4.90822822030168e-05
1280.0,-0.00021774657943751663
1408.0,-0.00014686354552395642
1536.0,-0.00033581836032681167
1664.0,-0.0005086279707029462
1792.0,-0.00048030042671598494
1920.0,-0.00010187854059040546
2048.0,-5.6478067563148215e-05
2304.0,-0.0001486982509959489
2560.0,-0.00015501829329878092
2816.0,-0.00014804145030211657
3072.0,0.00018048779747914523
3328.0,-0.00010095306060975417
3584.0,-0.0003616613685153425
3840.0,4.990318848285824e-05
4096.0,0.000159912568051368
4608.0,0.00011888856533914804
5120.0,0.0005074003711342812
5632.0,-0.00012816154048778117
6144.0,-0.00021311586897354573
6656.0,-0.0003528844681568444
7168.0,0.0003323506098240614
7680.0,-0.000249494391027838
8192.0,-0.0002467713493388146
9216.0,-0.00038881905493326485
10240.0,0.00031344880699180067
11264.0,-0.00022497166355606169
12288.0,-3.090747122769244e-05
13312.0,-2.5922239728970453e-05
14336.0,2.521502392482944e-05
end
