version,3.0
numOfCh,1
type,point
parent_name,10-cuts
ch_type,1_1
kcount,1
numberNandB,1
brightnessNandB,1
carpet pos,0
pc,0
Time (ms),CH1 Auto-Correlation
1.0,0.015990598127245903
2.0,0.013024410232901573
3.0,0.010952947661280632
4.0,0.009406923316419125
5.0,0.008175910450518131
6.0,0.007263037376105785
7.0,0.006649013143032789
8.0,0.0061545115895569324
9.0,0.005672720726579428
10.0,0.005194597877562046
11.0,0.004706649109721184
12.0,0.004240608774125576
13.0,0.003851778106763959
14.0,0.003650595899671316
15.0,0.0034001769963651896
16.0,0.0031412732787430286
18.0,0.002580408938229084
20.0,0.0022589375730603933
22.0,0.002033958677202463
24.0,0.002033668803051114
26.0,0.0020463168621063232
28.0,0.0019961469806730747
30.0,0.0019281917484477162
32.0,0.001809744513593614
36.0,0.0014895693166181445
40.0,0.0012765479041263461
44.0,0.0010561782401055098
48.0,0.0007094338070601225
52.0,0.0006850485224276781
56.0,0.0006730323657393456
60.0,0.00047534299665130675
64.0,0.00046592921717092395
72.0,0.0003730634052772075
80.0,0.0003496975696180016
88.0,0.0002497134846635163
96.0,0.00045408320147544146
104.0,0.0004338639264460653
112.0,0.0005185893969610333
120.0,0.0006300369277596474
128.0,0.0005640831659547985
144.0,0.00019095918105449528
160.0,0.0002691919216886163
176.0,0.0005823933170177042
192.0,0.0003457688435446471
208.0,-0.00028071278939023614
224.0,-0.00017898899386636913
240.0,-0.00015926125342957675
256.0,0.00011431290477048606
288.0,3.240477235522121e-05
320.0,0.0001446799433324486
352.0,-0.00028534530429169536
384.0,0.00021337872021831572
416.0,0.00046573608415201306
448.0,-0.00037508358946070075
480.0,-8.447230356978253e-06
512.0,0.0003457815037108958
576.0,0.00011956125672440976
640.0,-0.00015871516370680183
704.0,-0.00014885248674545437
768.0,-2.394802686467301e-05
832.0,-0.00017296707665082067
896.0,8.601773151895031e-05
960.0,1.2991850780963432e-05
1024.0,5.56214690732304e-05
1152.0,0.00025067097158171237
1280.0,3.5114593629259616e-05
1408.0,-1.8382932466920465e-05
1536.0,0.00027120596496388316
1664.0,-3.838783231913112e-05
1792.0,7.315600669244304e-05
1920.0,-7.500540959881619e-05
2048.0,0.0001308894279645756
2304.0,0.0002017611695919186
2560.0,5.1141174481017515e-05
2816.0,-0.00014232112152967602
3072.0,-0.00013886060332879424
3328.0,-8.409054134972394e-05
3584.0,5.742556822951883e-05
3840.0,-4.445840750122443e-05
4096.0,-3.615629248088226e-05
4608.0,-0.00016133640019688755
5120.0,-0.00034713902277871966
5632.0,-0.00013686047168448567
6144.0,-0.0002258845925098285
6656.0,-0.0002954156952910125
7168.0,-0.00011251339310547337
7680.0,3.5277913411846384e-05
8192.0,-0.0002235809515696019
9216.0,0.0001867088722065091
10240.0,4.126670683035627e-05
11264.0,0.0003890406514983624
12288.0,-0.00020975008374080062
13312.0,0.00023276549472939223
14336.0,-5.716951272916049e-05
end
