version,3.0
numOfCh,1
type,point
parent_name,10-cuts
ch_type,1_1
kcount,1
numberNandB,1
brightnessNandB,1
carpet pos,0
pc,0
Time (ms),CH1 Auto-Correlation
1.0,0.017216987907886505
2.0,0.014193383976817131
3.0,0.012012328021228313
4.0,0.010485239326953888
5.0,0.009278948418796062
6.0,0.008326190523803234
7.0,0.007641683332622051
8.0,0.007053601089864969
9.0,0.006519016809761524
10.0,0.0060890004970133305
11.0,0.005601747427135706
12.0,0.005178137216717005
13.0,0.004825523588806391
14.0,0.004476041533052921
15.0,0.0041882190853357315
16.0,0.0040127551183104515
18.0,0.0035427697002887726
20.0,0.003473832970485091
22.0,0.003310618456453085
24.0,0.0030975802801549435
26.0,0.0028553372249007225
28.0,0.002587837865576148
30.0,0.0024458076804876328
32.0,0.0023053919430822134
36.0,0.002054185140877962
40.0,0.001686328905634582
44.0,0.001457761274650693
48.0,0.0013930461136624217
52.0,0.001354167121462524
56.0,0.0012773622293025255
60.0,0.00124224997125566
64.0,0.0010646259179338813
72.0,0.0006995414732955396
80.0,0.00046285821008495986
88.0,0.000577739963773638
96.0,0.00019493854779284447
104.0,0.0007254378870129585
112.0,0.0009128215606324375
120.0,0.0006824812735430896
128.0,0.0006421764264814556
144.0,0.0006095794960856438
160.0,0.00046235593617893755
176.0,0.0005500719416886568
192.0,0.00023693563707638532
208.0,0.00015302746032830328
224.0,0.0004174499190412462
240.0,0.0002610309165902436
256.0,-1.4528173778671771e-05
288.0,-0.00010624240530887619
320.0,-0.00041529745794832706
352.0,-0.0001991367171285674
384.0,-8.039132080739364e-05
416.0,0.00015093294496182352
448.0,-8.685003558639437e-05
480.0,-0.0002998535637743771
512.0,-0.0006214417517185211
576.0,-0.00010129884321941063
640.0,0.00024968915386125445
704.0,-0.0005638454458676279
768.0,0.0001720661239232868
832.0,0.00023337155289482325
896.0,-0.000278027611784637
960.0,-0.00039233610732480884
1024.0,-6.450420914916322e-05
1152.0,-0.0002604785840958357
1280.0,-0.0002537396503612399
1408.0,-0.0003699935332406312
1536.0,-0.0001482223451603204
1664.0,2.8619877411983907e-05
1792.0,-0.00018129257659893483
1920.0,0.00030440924456343055
2048.0,0.00010865311924135312
2304.0,0.00041873991722241044
2560.0,-0.00014152922085486352
2816.0,-0.00010884549556067213
3072.0,-0.0004285039321985096
3328.0,0.00010408340313006192
3584.0,-0.0002656942524481565
3840.0,5.8806046581594273e-05
4096.0,-8.791904838290066e-05
4608.0,-0.0002739767078310251
5120.0,-5.0265593017684296e-05
5632.0,-6.833225052105263e-05
6144.0,-0.00011087353777838871
6656.0,0.0004670284397434443
7168.0,0.00045680839684791863
7680.0,-0.0002482928684912622
8192.0,-0.0003275381459388882
9216.0,4.167048609815538e-05
10240.0,-8.347048424184322e-05
11264.0,-3.3743206586223096e-05
12288.0,-0.0001106451018131338
13312.0,-3.5494529583957046e-05
14336.0,-2.6650779545889236e-05
end
