version,3.0
numOfCh,1
type,point
parent_name,10-cuts
ch_type,1_1
kcount,1
numberNandB,1
brightnessNandB,1
carpet pos,0
pc,0
Time (ms),CH1 Auto-Correlation
1.0,0.01695757731795311
2.0,0.013913353905081749
3.0,0.011867665685713291
4.0,0.010350486263632774
5.0,0.00918510090559721
6.0,0.008168281987309456
7.0,0.007275969721376896
8.0,0.006569690071046352
9.0,0.0059589059092104435
10.0,0.00543694943189621
11.0,0.005099026951938868
12.0,0.004727770574390888
13.0,0.004289140459150076
14.0,0.0039171795360744
15.0,0.0036704097874462605
16.0,0.003417607629671693
18.0,0.003102807095274329
20.0,0.0028824342880398035
22.0,0.002755081746727228
24.0,0.002615660661831498
26.0,0.0024322059471160173
28.0,0.002284733345732093
30.0,0.0021330853924155235
32.0,0.0019577776547521353
36.0,0.0019287680042907596
40.0,0.0018303709803149104
44.0,0.0015430470230057836
48.0,0.0010205775033682585
52.0,0.0008448408916592598
56.0,0.0009085395722649992
60.0,0.0009537361329421401
64.0,0.0007606931612826884
72.0,0.00040289165917783976
80.0,0.0006361092673614621
88.0,0.0009306166903115809
96.0,0.0011360992211848497
104.0,0.0008158530108630657
112.0,0.0006855567335151136
120.0,0.0007221413543447852
128.0,0.0007714647799730301
144.0,0.00100936577655375
160.0,0.0007576943608000875
176.0,-1.400486689817626e-05
192.0,-0.00031719967955723405
208.0,-0.0005618692957796156
224.0,-0.000549943360965699
240.0,-0.0006033265381120145
256.0,-0.0005662163021042943
288.0,-0.0002427025028737262
320.0,-0.00028754843515343964
352.0,-0.0004093917668797076
384.0,9.392596257384866e-05
416.0,5.2983126806793734e-05
448.0,0.0004083278763573617
480.0,0.0001754052354954183
512.0,-0.00015966189675964415
576.0,0.0005230807582847774
640.0,1.1493117199279368e-05
704.0,0.00018541923782322556
768.0,-3.1788636078999843e-06
832.0,3.1551102438243106e-05
896.0,-0.0003171994467265904
960.0,-0.00016366671479772776
1024.0,0.0002849856682587415
1152.0,0.00016479645273648202
1280.0,0.00013252798817120492
1408.0,-0.00022959019406698644
1536.0,2.7074764147982933e-05
1664.0,0.00035488649155013263
1792.0,8.829232683638111e-05
1920.0,1.3383821169554722e-05
2048.0,1.704021451587323e-05
2304.0,8.051512850215659e-05
2560.0,0.0001796420110622421
2816.0,0.00017170322826132178
3072.0,0.0003176693862769753
3328.0,-0.0004919027560390532
3584.0,-0.00010109336290042847
3840.0,6.599515927518951e-06
4096.0,-0.00027175209834240377
4608.0,4.563159018289298e-05
5120.0,-8.717340097064152e-05
5632.0,-0.0003538306918926537
6144.0,-0.00019278809486422688
6656.0,8.456785144517198e-05
7168.0,-6.964388740016147e-05
7680.0,-0.0003604235826060176
8192.0,-0.00038902481901459396
9216.0,9.525768405183044e-07
10240.0,-0.0001316518901148811
11264.0,0.00014487540465779603
12288.0,4.121470919926651e-05
13312.0,1.073951534635853e-05
14336.0,0.00012331422476563603
end
