version,3.0
numOfCh,1
type,point
parent_name,10-cuts
ch_type,1_1
kcount,1
numberNandB,1
brightnessNandB,1
carpet pos,0
pc,0
Time (ms),CH1 Auto-Correlation
1.0,0.015640882775187492
2.0,0.012772361747920513
3.0,0.010670611634850502
4.0,0.009100045077502728
5.0,0.007943373173475266
6.0,0.007013021502643824
7.0,0.0061692469753324986
8.0,0.0054182554595172405
9.0,0.004878107458353043
10.0,0.00448333565145731
11.0,0.004160543903708458
12.0,0.00383028038777411
13.0,0.0036228965036571026
14.0,0.003399526234716177
15.0,0.0032731916289776564
16.0,0.0030684559606015682
18.0,0.0025608583819121122
20.0,0.0021003978326916695
22.0,0.001711471937596798
24.0,0.001493205432780087
26.0,0.0011921407422050834
28.0,0.0012043534079566598
30.0,0.0011898225639015436
32.0,0.0009783984860405326
36.0,0.0005891559412702918
40.0,0.0004907282418571413
44.0,0.0005205501802265644
48.0,0.0006457248819060624
52.0,0.0005999971181154251
56.0,0.0005553449154831469
60.0,0.0007999659865163267
64.0,0.000977761810645461
72.0,0.0013087873812764883
80.0,0.0008037065854296088
88.0,0.0007768936920911074
96.0,0.0007380226743407547
104.0,0.0005343349184840918
112.0,0.00033084116876125336
120.0,4.560072920867242e-05
128.0,9.194204903906211e-05
144.0,4.2811123421415687e-05
160.0,-0.00015770914615131915
176.0,-0.0007829933892935514
192.0,-0.0008590832585468888
208.0,-0.0003425275208428502
224.0,-0.0003835796087514609
240.0,-2.2019505195203237e-05
256.0,-1.5299259530365816e-06
288.0,0.00018851380445994437
320.0,0.0001431114797014743
352.0,0.0002686432853806764
384.0,7.820099563105032e-05
416.0,-0.00014256582653615624
448.0,-0.00015654877643100917
480.0,-0.00051962083671242
512.0,-0.00012342179252300411
576.0,-0.00015653674199711531
640.0,-0.00022218590311240405
704.0,-4.6239343646448106e-05
768.0,-0.00016519532073289156
832.0,8.769476698944345e-05
896.0,-9.619120100978762e-05
960.0,8.118619007291272e-05
1024.0,0.00029912180616520345
1152.0,3.747568916878663e-05
1280.0,-0.00034734996734187007
1408.0,-5.777686965302564e-05
1536.0,-0.0002790067228488624
1664.0,-0.0003482813772279769
1792.0,-0.0002647736400831491
1920.0,0.00012275738117750734
2048.0,0.0004119685909245163
2304.0,-1.6449672330054455e-05
2560.0,0.00015807394811417907
2816.0,0.00018806308798957616
3072.0,0.00013657081581186503
3328.0,-0.00011985698802163824
3584.0,-0.000138860268634744
3840.0,0.00016869144747033715
4096.0,-0.00012769136810675263
4608.0,-0.0002450660103932023
5120.0,0.0001566349674249068
5632.0,-2.5575591280357912e-05
6144.0,-7.162908877944574e-05
6656.0,-7.35889989300631e-05
7168.0,4.8684443754609674e-05
7680.0,0.00033038100809790194
8192.0,-0.00019402848556637764
9216.0,-6.387348548742011e-05
10240.0,0.00014886587450746447
11264.0,-0.00013256997044663876
12288.0,-8.91584022610914e-06
13312.0,8.167461783159524e-05
14336.0,-0.00010751280933618546
end
