version,3.0
numOfCh,1
type,point
parent_name,10-cuts
ch_type,1_1
kcount,1
numberNandB,1
brightnessNandB,1
carpet pos,0
pc,0
Time (ms),CH1 Auto-Correlation
1.0,0.015700891613960266
2.0,0.012759056873619556
3.0,0.010753806680440903
4.0,0.009191781282424927
5.0,0.008074205368757248
6.0,0.007123112678527832
7.0,0.006302822846919298
8.0,0.005638431292027235
9.0,0.005054388660937548
10.0,0.00473170168697834
11.0,0.004285234957933426
12.0,0.003896285779774189
13.0,0.0034617458004504442
14.0,0.0031210093293339014
15.0,0.0027854570653289557
16.0,0.0024501869920641184
18.0,0.002049754373729229
20.0,0.0015761747490614653
22.0,0.001243333681486547
24.0,0.0010804946068674326
26.0,0.0010633508209139109
28.0,0.0010143258841708302
30.0,0.0008268182864412665
32.0,0.0007304828031919897
36.0,0.0007557172793895006
40.0,0.0006715646595694125
44.0,0.0005036514485254884
48.0,0.0007260192069225013
52.0,0.0007734062965027988
56.0,0.0006525163189508021
60.0,0.0007244941079989076
64.0,0.0006957511650398374
72.0,0.0004171815817244351
80.0,-5.680505182681372e-06
88.0,0.0002387580752838403
96.0,0.0003246319538448006
104.0,0.0002857687359210104
112.0,0.00042515009408816695
120.0,0.00010139676305698231
128.0,-0.00016695415251888335
144.0,-0.00032420846400782466
160.0,3.1611376471119e-05
176.0,9.74345239228569e-05
192.0,0.00030594912823289633
208.0,8.213552791858092e-05
224.0,0.00011114886001450941
240.0,0.00010954295430565253
256.0,0.0002958965487778187
288.0,-0.00016330160724464804
320.0,0.00017600800492800772
352.0,4.549035111267585e-06
384.0,-0.00036223806091584265
416.0,-0.0005188360228203237
448.0,0.00016393732221331447
480.0,-0.000137769355205819
512.0,-1.948992576217279e-06
576.0,-0.00022567629639524966
640.0,-0.00011543089931365103
704.0,2.2661091861664318e-05
768.0,7.600973913213238e-05
832.0,1.920274007716216e-05
896.0,0.00030368316220119596
960.0,0.00027600082103163004
1024.0,0.00015747561701573431
1152.0,-2.9325541618163697e-05
1280.0,-0.0001181638945126906
1408.0,-0.00033914129016920924
1536.0,-0.00021480029681697488
1664.0,-8.897546649677679e-05
1792.0,6.005357499816455e-05
1920.0,0.00030747760320082307
2048.0,1.0534558896324597e-05
2304.0,7.356499554589391e-05
2560.0,-0.0002431737375445664
2816.0,0.00018300155352335423
3072.0,4.230986814945936e-05
3328.0,-0.0002197492722189054
3584.0,-4.36270929640159e-05
3840.0,5.0600436225067824e-05
4096.0,0.0002103197039104998
4608.0,0.00012351819896139205
5120.0,2.537128602853045e-05
5632.0,-2.1304667825461365e-05
6144.0,-0.0001908551639644429
6656.0,-0.00022804060427006334
7168.0,-6.828788173152134e-05
7680.0,0.00017112343630287796
8192.0,-0.0002805404074024409
9216.0,-5.139860513736494e-05
10240.0,8.615072874817997e-05
11264.0,-8.95185221452266e-05
12288.0,-8.162282028933987e-05
13312.0,-3.1715513614472e-05
14336.0,0.00014670129166916013
end
