version,3.0
numOfCh,1
type,point
parent_name,10-cuts
ch_type,1_1
kcount,1
numberNandB,1
brightnessNandB,1
carpet pos,0
pc,0
Time (ms),CH1 Auto-Correlation
1.0,0.02756676636636257
2.0,0.022686686366796494
3.0,0.019184036180377007
4.0,0.016650240868330002
5.0,0.014633667655289173
6.0,0.013009324669837952
7.0,0.011795916594564915
8.0,0.010796655900776386
9.0,0.01001040544360876
10.0,0.009245399385690689
11.0,0.008635543286800385
12.0,0.008006188087165356
13.0,0.007470456417649984
14.0,0.007012430112808943
15.0,0.0066201286390423775
16.0,0.006406941916793585
18.0,0.006077862344682217
20.0,0.005622884724289179
22.0,0.005096758250147104
24.0,0.004499236587435007
26.0,0.0036310763098299503
28.0,0.0031543343793600798
30.0,0.0025898257736116648
32.0,0.0023050568997859955
36.0,0.002038287464529276
40.0,0.0020824961829930544
44.0,0.0021746214479207993
48.0,0.002202949719503522
52.0,0.0019861923065036535
56.0,0.0019824367482215166
60.0,0.0020861532539129257
64.0,0.002217309083789587
72.0,0.0021090868394821882
80.0,0.0018433494260534644
88.0,0.0013057226315140724
96.0,0.001124743022955954
104.0,0.0007618124946020544
112.0,0.0010273591615259647
120.0,0.0005199906881898642
128.0,0.00048500351840630174
144.0,0.00026946250000037253
160.0,-0.0009077560971491039
176.0,-0.00017323458450846374
192.0,-0.0004782445030286908
208.0,2.682920421648305e-05
224.0,0.0005765709793195128
240.0,0.0005423183320090175
256.0,0.00014157015539240092
288.0,0.00028248599846847355
320.0,0.000149607309140265
352.0,-0.0004078839556314051
384.0,-2.8780888897017576e-05
416.0,-9.590559056960046e-05
448.0,-0.0005814696778543293
480.0,-0.0003883425088133663
512.0,-0.0003397923137526959
576.0,-0.0007712604128755629
640.0,7.63290881877765e-05
704.0,-0.00023912728647701442
768.0,0.0004612748452927917
832.0,-1.9862020053551532e-05
896.0,-0.00018165301298722625
960.0,-0.0002652748371474445
1024.0,-0.000297440099529922
1152.0,0.0005747876712121069
1280.0,-0.00027816800866276026
1408.0,0.00017986661987379193
1536.0,-0.00021223045769147575
1664.0,4.872969657299109e-05
1792.0,-0.00042942678555846214
1920.0,-5.7295656006317586e-06
2048.0,0.00031363763264380395
2304.0,-0.00018224363157059997
2560.0,-0.0006263513350859284
2816.0,0.00013669379404745996
3072.0,0.00048749541747383773
3328.0,0.0009256789926439524
3584.0,0.00017969815235119313
3840.0,0.00013587040302809328
4096.0,0.000339035497745499
4608.0,-0.000294796860544011
5120.0,8.28020492917858e-05
5632.0,-0.0004106065898668021
6144.0,-0.00015223881928250194
6656.0,-0.000135748676257208
7168.0,0.00029409865965135396
7680.0,9.146685624727979e-05
8192.0,-0.0002651299873832613
9216.0,-0.0003489415976218879
10240.0,-0.00019561754015740007
11264.0,0.0002912212803494185
12288.0,-0.0006640627980232239
13312.0,-0.00043811940122395754
14336.0,0.00036269606789574027
end
