version,3.0
numOfCh,1
type,point
parent_name,200-cuts
ch_type,1_1
kcount,1
numberNandB,1
brightnessNandB,1
carpet pos,0
pc,0
Time (ms),CH1 Auto-Correlation
1.0,0.09505929052829742
2.0,0.08709106594324112
3.0,0.08002016693353653
4.0,0.07390682399272919
5.0,0.06880421191453934
6.0,0.06415744870901108
7.0,0.060009609907865524
8.0,0.05625432729721069
9.0,0.052819401025772095
10.0,0.04954471439123154
11.0,0.04661962389945984
12.0,0.04395987093448639
13.0,0.0415729284286499
14.0,0.03964661434292793
15.0,0.03783503919839859
16.0,0.03614311292767525
18.0,0.03349340707063675
20.0,0.03117780014872551
22.0,0.028615135699510574
24.0,0.026296911761164665
26.0,0.024195345118641853
28.0,0.022082511335611343
30.0,0.020492572337388992
32.0,0.019067345187067986
36.0,0.016442131251096725
40.0,0.014547658152878284
44.0,0.012188324704766273
48.0,0.009915475733578205
52.0,0.007601540070027113
56.0,0.006268882192671299
60.0,0.005219833925366402
64.0,0.0044404431246221066
72.0,0.0015902930172160268
80.0,0.0003564482613001019
88.0,-0.0005608754581771791
96.0,-0.00014971474593039602
104.0,0.001232548733241856
112.0,0.0018138863379135728
120.0,0.003147109178826213
128.0,0.0014837145572528243
144.0,-0.0008615324040874839
160.0,0.001591291162185371
176.0,0.00036656137672252953
192.0,-0.0024690188001841307
208.0,-0.004102007485926151
224.0,-0.006312857381999493
240.0,-0.006942391395568848
256.0,-0.006483142729848623
288.0,-0.005105242133140564
320.0,-0.004718628246337175
352.0,-0.005806064233183861
384.0,-0.006187938153743744
416.0,-0.004917849320918322
448.0,-0.0031380655709654093
480.0,0.0014743887586519122
512.0,0.0015324850101023912
576.0,0.004440636374056339
640.0,-0.000750133884139359
704.0,-0.0024471862707287073
768.0,-0.0012481834273785353
832.0,0.0016480443300679326
896.0,0.0013893580762669444
960.0,-0.003674024948850274
1024.0,-0.006941656582057476
1152.0,-0.002119713928550482
1280.0,0.002795318141579628
1408.0,0.007560840807855129
1536.0,0.0017683194018900394
1664.0,-0.0022175773046910763
1792.0,-0.0029827235266566277
1920.0,-0.0008466114522889256
2048.0,-0.0006382072460837662
2304.0,-0.0012089601950719953
2560.0,-0.000647348933853209
2816.0,0.00227520614862442
3072.0,-0.0018042480805888772
3328.0,-0.002057980978861451
3584.0,0.0015812066849321127
3840.0,-0.0016538709169253707
4096.0,-0.0002772391599137336
4608.0,-0.002274518134072423
5120.0,0.001308113569393754
5632.0,0.0011722880881279707
6144.0,-0.0015817770035937428
6656.0,0.00020444543042685837
7168.0,0.0025508911348879337
7680.0,-8.176689880201593e-05
8192.0,-0.0020084341522306204
9216.0,0.0007105877157300711
10240.0,-0.00026256489218212664
11264.0,-0.0012705704430118203
12288.0,0.00033117039129137993
13312.0,-5.255416181171313e-05
14336.0,0.0005074929213151336
end
