version,3.0
numOfCh,1
type,point
parent_name,200-cuts
ch_type,1_1
kcount,1
numberNandB,1
brightnessNandB,1
carpet pos,0
pc,0
Time (ms),CH1 Auto-Correlation
1.0,0.028423311188817024
2.0,0.02601301670074463
3.0,0.023934146389365196
4.0,0.022129042074084282
5.0,0.020573990419507027
6.0,0.019158782437443733
7.0,0.017950326204299927
8.0,0.016856545582413673
9.0,0.015843091532588005
10.0,0.014943151734769344
11.0,0.01409698836505413
12.0,0.013319539837539196
13.0,0.012686388567090034
14.0,0.012057957239449024
15.0,0.011454181745648384
16.0,0.010884365998208523
18.0,0.009893243201076984
20.0,0.009027057327330112
22.0,0.008443235419690609
24.0,0.00796071719378233
26.0,0.007316037081182003
28.0,0.006645989138633013
30.0,0.0061273411847651005
32.0,0.005695699248462915
36.0,0.004884771071374416
40.0,0.004379339516162872
44.0,0.0037907480727881193
48.0,0.0030795622151345015
52.0,0.002572853583842516
56.0,0.0023776486050337553
60.0,0.002335550496354699
64.0,0.002487791934981942
72.0,0.002418632386252284
80.0,0.0014546855818480253
88.0,0.0004069905262440443
96.0,-0.00024543548352085054
104.0,-0.0002550855278968811
112.0,-0.00020515023788902909
120.0,-0.0005623501492664218
128.0,-0.0009742655092850327
144.0,-0.0003771627089008689
160.0,-0.0005924844299443066
176.0,-0.0008076210506260395
192.0,-0.0014985270099714398
208.0,-0.0017580616986379027
224.0,-0.0010716367978602648
240.0,-0.0013782538007944822
256.0,-0.0018952947575598955
288.0,-0.0017885671695694327
320.0,-0.0023394541349262
352.0,-0.0018868487095460296
384.0,-0.0007358214352279902
416.0,0.0006458648131228983
448.0,0.001424809219315648
480.0,0.0012579594040289521
512.0,0.00014618688146583736
576.0,0.00017905398271977901
640.0,0.0008300013723783195
704.0,0.001125990180298686
768.0,0.0004185345896985382
832.0,0.0002421229291940108
896.0,-0.0003614475717768073
960.0,-0.0006355852819979191
1024.0,-0.0008090809569694102
1152.0,-0.0005409159930422902
1280.0,0.00011318893666611984
1408.0,0.0005943529540672898
1536.0,0.00044267933117225766
1664.0,0.0004586130671668798
1792.0,-0.0006555923609994352
1920.0,-0.00023815057647880167
2048.0,-0.00020197706180624664
2304.0,0.0014577313559129834
2560.0,-0.0012567294761538506
2816.0,0.0005966752651147544
3072.0,-0.00022536799951922148
3328.0,0.00015479563444387168
3584.0,0.00010384834604337811
3840.0,0.00016963007510639727
4096.0,-0.0004981662495993078
4608.0,0.0001712492958176881
5120.0,-0.00029230612562969327
5632.0,-0.0002910055627580732
6144.0,-0.0004026927053928375
6656.0,-0.0002130683569703251
7168.0,0.0005479197134263813
7680.0,-0.00016010818944778293
8192.0,-0.000666788371745497
9216.0,-0.00016808492364361882
10240.0,-0.00012603415234480053
11264.0,-0.00017821411893237382
12288.0,-3.299068703199737e-05
13312.0,6.517278961837292e-05
14336.0,0.0006068753427825868
end
