version,3.0
numOfCh,1
type,point
parent_name,200-cuts
ch_type,1_1
kcount,1
numberNandB,1
brightnessNandB,1
carpet pos,0
pc,0
Time (ms),CH1 Auto-Correlation
1.0,0.04149307683110237
2.0,0.03770621120929718
3.0,0.034452296793460846
4.0,0.03171340376138687
5.0,0.029442109167575836
6.0,0.027372099459171295
7.0,0.025597205385565758
8.0,0.024033622816205025
9.0,0.022626610472798347
10.0,0.021412473171949387
11.0,0.020292576402425766
12.0,0.0192219540476799
13.0,0.01837066002190113
14.0,0.017521878704428673
15.0,0.016696112230420113
16.0,0.015891553834080696
18.0,0.014359477907419205
20.0,0.01310161966830492
22.0,0.01213759183883667
24.0,0.01132133137434721
26.0,0.010462209582328796
28.0,0.009689085185527802
30.0,0.009330300614237785
32.0,0.009038378484547138
36.0,0.007930873893201351
40.0,0.006558841094374657
44.0,0.005305912811309099
48.0,0.004325028508901596
52.0,0.003898603143170476
56.0,0.0032630758360028267
60.0,0.002860290464013815
64.0,0.002611642237752676
72.0,0.0017151021165773273
80.0,0.0009161690250039101
88.0,0.0006514323176816106
96.0,7.598364754812792e-05
104.0,-0.00015256392362061888
112.0,-0.00035716695128940046
120.0,4.6920984459575266e-05
128.0,-0.0003802822029683739
144.0,-0.0010681167477741838
160.0,-0.0017704871715977788
176.0,-0.001426662434823811
192.0,-0.0014000646770000458
208.0,-0.002298448234796524
224.0,-0.0030109980143606663
240.0,-0.0025295636150985956
256.0,-0.0020372383296489716
288.0,-0.0014131366042420268
320.0,-0.001954931067302823
352.0,-0.001346766366623342
384.0,5.7456898503005505e-05
416.0,1.2352524208836257e-05
448.0,-0.0016598777147009969
480.0,0.0010966981062665582
512.0,0.0009709111764095724
576.0,0.0002527505566831678
640.0,-0.001005771802738309
704.0,-0.0011815967736765742
768.0,0.000676179479341954
832.0,0.0005967446486465633
896.0,-4.786160570802167e-05
960.0,-0.0005518639809451997
1024.0,-0.000906197470612824
1152.0,-9.291512833442539e-05
1280.0,-0.0002818630891852081
1408.0,0.0006246604025363922
1536.0,-7.869951514294371e-05
1664.0,0.000932487950194627
1792.0,-0.001045231125317514
1920.0,-5.791457442683168e-05
2048.0,0.00024448358453810215
2304.0,-0.0010901858331635594
2560.0,0.0007948132697492838
2816.0,-0.0010239313123747706
3072.0,0.0010160587262362242
3328.0,-5.5185537348734215e-05
3584.0,-0.0018142214976251125
3840.0,0.0002119898854289204
4096.0,-0.0007823473424650729
4608.0,-0.00012641050852835178
5120.0,8.347613766090944e-05
5632.0,0.0006932147080078721
6144.0,0.0002067441091639921
6656.0,-0.00021625874796882272
7168.0,0.000772492028772831
7680.0,-0.0006318584783002734
8192.0,0.0005974044906906784
9216.0,-0.00034827066701836884
10240.0,-0.00019217714725527912
11264.0,0.00021563423797488213
12288.0,-8.004049595911056e-05
13312.0,-0.00021244103845674545
14336.0,0.0004371155228000134
end
