version,3.0
numOfCh,1
type,point
parent_name,200-cuts
ch_type,1_1
kcount,1
numberNandB,1
brightnessNandB,1
carpet pos,0
pc,0
Time (ms),CH1 Auto-Correlation
1.0,0.10256440192461014
2.0,0.09436405450105667
3.0,0.08722616732120514
4.0,0.0811295136809349
5.0,0.07590128481388092
6.0,0.07120035588741302
7.0,0.06684115529060364
8.0,0.06293769180774689
9.0,0.05951361730694771
10.0,0.05633372440934181
11.0,0.053344789892435074
12.0,0.050561413168907166
13.0,0.04805733263492584
14.0,0.04572940245270729
15.0,0.04341382533311844
16.0,0.041387010365724564
18.0,0.0381351038813591
20.0,0.03563286364078522
22.0,0.03313940018415451
24.0,0.030790109187364578
26.0,0.02885124646127224
28.0,0.027319854125380516
30.0,0.02608722262084484
32.0,0.024552928283810616
36.0,0.022073719650506973
40.0,0.020174352452158928
44.0,0.018880408257246017
48.0,0.017387811094522476
52.0,0.015979791060090065
56.0,0.014480912126600742
60.0,0.012845832854509354
64.0,0.012104625813663006
72.0,0.0120823560282588
80.0,0.010507062077522278
88.0,0.010293738916516304
96.0,0.009929653257131577
104.0,0.006852481514215469
112.0,0.004296209663152695
120.0,0.003546230960637331
128.0,0.00298153143376112
144.0,0.001780783524736762
160.0,0.0009696786291897297
176.0,0.0023800202179700136
192.0,0.003258149139583111
208.0,0.005311344284564257
224.0,0.004912104457616806
240.0,0.002721508266404271
256.0,0.0013486676616594195
288.0,0.006425539031624794
320.0,0.004387801978737116
352.0,0.0003793693904299289
384.0,-0.0006145576480776072
416.0,0.0007964307442307472
448.0,0.0016325028846040368
480.0,0.00487325107678771
512.0,0.005820248741656542
576.0,0.004017530474811792
640.0,-0.0022166441194713116
704.0,-0.00237288442440331
768.0,-0.0001537471980554983
832.0,0.00325309787876904
896.0,0.006385196465998888
960.0,0.007833950221538544
1024.0,0.010045546106994152
1152.0,-0.00024384511925745755
1280.0,0.007720698602497578
1408.0,0.005315100774168968
1536.0,0.00571793969720602
1664.0,-0.0022634812630712986
1792.0,0.0031813806854188442
1920.0,-0.0016630254685878754
2048.0,-0.00022250127221923321
2304.0,0.00036608948721550405
2560.0,-0.0005008369334973395
2816.0,-0.0020871807355433702
3072.0,-0.003716526785865426
3328.0,-0.004929006099700928
3584.0,-0.0018239155178889632
3840.0,-0.004833956249058247
4096.0,-0.005314275156706572
4608.0,-0.0029369357507675886
5120.0,-0.004044428933411837
5632.0,-0.0016719010891392827
6144.0,-0.0014219467993825674
6656.0,-0.001592153450474143
7168.0,0.0015108563238754869
7680.0,-0.002976476913318038
8192.0,0.0010535201290622354
9216.0,0.0011532414937391877
10240.0,0.0018805728759616613
11264.0,0.0014833823079243302
12288.0,-0.0004234460648149252
13312.0,0.0010971396695822477
14336.0,0.0002060412080027163
end
