version,3.0
numOfCh,1
type,point
parent_name,200-cuts
ch_type,1_1
kcount,1
numberNandB,1
brightnessNandB,1
carpet pos,0
pc,0
Time (ms),CH1 Auto-Correlation
1.0,0.04119379073381424
2.0,0.03755591809749603
3.0,0.03443850576877594
4.0,0.031666193157434464
5.0,0.029178965836763382
6.0,0.026946889236569405
7.0,0.024958310648798943
8.0,0.0232040174305439
9.0,0.021567681804299355
10.0,0.020113032311201096
11.0,0.01890411414206028
12.0,0.017636610195040703
13.0,0.016429176554083824
14.0,0.015411901287734509
15.0,0.014575467444956303
16.0,0.013737387023866177
18.0,0.012334393337368965
20.0,0.011090881191194057
22.0,0.00988244079053402
24.0,0.008720195852220058
26.0,0.007733267731964588
28.0,0.006905499380081892
30.0,0.006179975811392069
32.0,0.005601098295301199
36.0,0.005118784960359335
40.0,0.004792054649442434
44.0,0.004509760998189449
48.0,0.003979023080319166
52.0,0.00360510335303843
56.0,0.0037711465265601873
60.0,0.003807877656072378
64.0,0.003233810421079397
72.0,0.002438486786559224
80.0,0.0022982507944107056
88.0,0.0025027645751833916
96.0,0.0018542525358498096
104.0,0.0019478818867355585
112.0,0.0019322528969496489
120.0,0.0021675836760550737
128.0,0.0018566289218142629
144.0,0.0007824036874808371
160.0,-0.00013597329962067306
176.0,-0.0006289107259362936
192.0,-0.00038983343984000385
208.0,-0.001236095791682601
224.0,-0.0011865355772897601
240.0,-0.00023542306735180318
256.0,-0.0006288058939389884
288.0,-0.0002830082376021892
320.0,-0.000790214748121798
352.0,-0.0005551227368414402
384.0,-0.0014135270612314343
416.0,-0.0012672287411987782
448.0,-0.0010479753836989403
480.0,0.00034296861849725246
512.0,-0.00039439141983166337
576.0,0.0007099825888872147
640.0,0.0009009985951706767
704.0,-2.50788052653661e-05
768.0,-0.0004423426871653646
832.0,1.4464710147876758e-05
896.0,-5.8066263591172174e-05
960.0,-1.7161038385893335e-06
1024.0,-0.0008405985427089036
1152.0,-0.0007049014675430954
1280.0,-0.0007929577841423452
1408.0,0.0008666480425745249
1536.0,0.0002594311663415283
1664.0,0.00011334345617797226
1792.0,0.0008851358434185386
1920.0,6.713382845191518e-06
2048.0,-0.0009265842963941395
2304.0,0.0002164884062949568
2560.0,0.00040264101698994637
2816.0,-0.0003312764165457338
3072.0,9.787408635020256e-05
3328.0,-4.346059722593054e-05
3584.0,0.0007342440076172352
3840.0,-0.0017332412535324693
4096.0,-0.00018326236749999225
4608.0,-0.0004682395374402404
5120.0,0.000635462929494679
5632.0,-0.0007152947946451604
6144.0,0.0003868191852234304
6656.0,-0.0006236873450689018
7168.0,0.0002694404392968863
7680.0,-0.0001565554121043533
8192.0,0.0009171121055260301
9216.0,-0.0005466272705234587
10240.0,0.0008138495613820851
11264.0,-0.00010442103666719049
12288.0,-0.0010769825894385576
13312.0,-0.00010127614223165438
14336.0,-0.002449418418109417
end
