version,3.0
numOfCh,1
type,point
parent_name,200-cuts
ch_type,1_1
kcount,1
numberNandB,1
brightnessNandB,1
carpet pos,0
pc,0
Time (ms),CH1 Auto-Correlation
1.0,0.08281216025352478
2.0,0.07535867393016815
3.0,0.06897380203008652
4.0,0.06331411749124527
5.0,0.05843793973326683
6.0,0.05433976277709007
7.0,0.050487879663705826
8.0,0.04697062447667122
9.0,0.04382137209177017
10.0,0.041098807007074356
11.0,0.03856264054775238
12.0,0.0360337495803833
13.0,0.03376142680644989
14.0,0.03171587362885475
15.0,0.030054781585931778
16.0,0.028629979118704796
18.0,0.025745604187250137
20.0,0.0229579396545887
22.0,0.020870549604296684
24.0,0.019294487312436104
26.0,0.017703862860798836
28.0,0.015905924141407013
30.0,0.01412480790168047
32.0,0.012447221204638481
36.0,0.010894075967371464
40.0,0.010701715014874935
44.0,0.010624896734952927
48.0,0.009977366775274277
52.0,0.010114035569131374
56.0,0.009299161843955517
60.0,0.008820884861052036
64.0,0.00843137875199318
72.0,0.00708876084536314
80.0,0.006949171889573336
88.0,0.006930344272404909
96.0,0.00512284692376852
104.0,0.00341910682618618
112.0,0.0016662548296153545
120.0,0.0016541903605684638
128.0,0.0010579779045656323
144.0,0.0008901904802769423
160.0,0.001896530855447054
176.0,0.002532988553866744
192.0,0.0018834001384675503
208.0,0.0009384247823618352
224.0,-0.0008619093568995595
240.0,-0.0013252506032586098
256.0,0.000301253778161481
288.0,-0.0004047890251968056
320.0,0.0047249640338122845
352.0,0.003562551224604249
384.0,0.0025092982687056065
416.0,0.0013815826969221234
448.0,0.0017337737372145057
480.0,-0.001027433667331934
512.0,-0.0011543991276994348
576.0,-0.00207553431391716
640.0,-0.003096959786489606
704.0,-0.0011510844342410564
768.0,-0.0034336659591645002
832.0,-0.002508108736947179
896.0,-0.00016808141663204879
960.0,-0.0007304832106456161
1024.0,-0.0022852548863738775
1152.0,-0.002328519243746996
1280.0,-0.004407217260450125
1408.0,-0.0017744548385962844
1536.0,0.0005654073320329189
1664.0,-0.0016838392475619912
1792.0,0.0005493235657922924
1920.0,0.0015141867334023118
2048.0,0.003321458352729678
2304.0,0.003299163654446602
2560.0,0.0003555229923222214
2816.0,0.0008525390294380486
3072.0,-0.0016176796052604914
3328.0,-0.0009603429934941232
3584.0,-0.004401680547744036
3840.0,-0.00238410453312099
4096.0,0.00023788580438122153
4608.0,0.002181960502639413
5120.0,0.0023360401391983032
5632.0,-0.0013974322937428951
6144.0,-0.0008209715597331524
6656.0,-6.041663800715469e-05
7168.0,0.0001042068179231137
7680.0,-6.8085428210906684e-06
8192.0,-0.002126578241586685
9216.0,-0.0013155097840353847
10240.0,0.0011409627040848136
11264.0,-0.0003893212997354567
12288.0,-0.00021590912365354598
13312.0,0.0012446953915059566
14336.0,-0.0007673310465179384
end
