version,3.0
numOfCh,1
type,point
parent_name,200-cuts
ch_type,1_1
kcount,1
numberNandB,1
brightnessNandB,1
carpet pos,0
pc,0
Time (ms),CH1 Auto-Correlation
1.0,0.02722218446433544
2.0,0.02487984485924244
3.0,0.02291093021631241
4.0,0.021197928115725517
5.0,0.01972801610827446
6.0,0.018458789214491844
7.0,0.017332477495074272
8.0,0.01632569544017315
9.0,0.01541130617260933
10.0,0.014540325850248337
11.0,0.013699601404368877
12.0,0.012933503836393356
13.0,0.012194878421723843
14.0,0.011578218080103397
15.0,0.011040241457521915
16.0,0.010524696670472622
18.0,0.009478623978793621
20.0,0.008516814559698105
22.0,0.007669889368116856
24.0,0.006937582045793533
26.0,0.006364271976053715
28.0,0.005854759365320206
30.0,0.005384502001106739
32.0,0.005024894140660763
36.0,0.004526084754616022
40.0,0.00424977159127593
44.0,0.003757498227059841
48.0,0.0033283699303865433
52.0,0.0027489166241139174
56.0,0.0020970706827938557
60.0,0.0014727753587067127
64.0,0.0007886188686825335
72.0,0.00015796645311638713
80.0,0.00015393031935673207
88.0,0.0004869121767114848
96.0,0.0008720724727027118
104.0,0.000941978651098907
112.0,0.0007134369225241244
120.0,0.0010188677115365863
128.0,0.0007544999825768173
144.0,5.640044764732011e-05
160.0,-0.00047876950702629983
176.0,-0.0004290608048904687
192.0,0.0003240451624151319
208.0,0.0009712146129459143
224.0,0.000275040598353371
240.0,0.00012641439388971776
256.0,8.006188727449626e-05
288.0,0.00019198049267288297
320.0,-0.0001970720331883058
352.0,-0.00011305858060950413
384.0,0.0006366221350617707
416.0,0.0004587045987136662
448.0,0.0006718554650433362
480.0,0.0011786859249696136
512.0,0.0009841026039794087
576.0,0.0007146123680286109
640.0,0.0005227940855547786
704.0,0.0008616144768893719
768.0,0.000662997190374881
832.0,3.4158169910369907e-06
896.0,0.0001693263038760051
960.0,0.0011741896159946918
1024.0,0.0009643012308515608
1152.0,0.00043027367792092264
1280.0,0.00027840438997372985
1408.0,0.00018117217405233532
1536.0,0.0013560551451519132
1664.0,-7.637578528374434e-05
1792.0,-0.00018120036111213267
1920.0,-0.00024412633501924574
2048.0,-0.0003401349822524935
2304.0,-0.0001953382306965068
2560.0,-0.00013215412036515772
2816.0,-0.00023998205142561346
3072.0,-0.0005476200021803379
3328.0,-0.0004565120325423777
3584.0,-6.690379086649045e-05
3840.0,-0.0002845347917173058
4096.0,-0.00035523774567991495
4608.0,0.00018042413285002112
5120.0,0.00043646813719533384
5632.0,0.00015014864038676023
6144.0,9.956544818123803e-05
6656.0,-0.00020613941887859255
7168.0,-0.00035239802673459053
7680.0,-0.0011046382132917643
8192.0,-0.00039392663165926933
9216.0,0.00024695548927411437
10240.0,0.00023605504247825593
11264.0,-0.0003277244686614722
12288.0,-0.00087536103092134
13312.0,-0.0014411075972020626
14336.0,-0.0008394295000471175
end
