version,3.0
numOfCh,1
type,point
parent_name,200-cuts
ch_type,1_1
kcount,1
numberNandB,1
brightnessNandB,1
carpet pos,0
pc,0
Time (ms),CH1 Auto-Correlation
1.0,0.037459030747413635
2.0,0.03390064835548401
3.0,0.030876362696290016
4.0,0.028226060792803764
5.0,0.025883790105581284
6.0,0.02392251044511795
7.0,0.022180156782269478
8.0,0.020610833540558815
9.0,0.019106879830360413
10.0,0.017720874398946762
11.0,0.016473377123475075
12.0,0.01534587424248457
13.0,0.014359958469867706
14.0,0.013490104116499424
15.0,0.012714407406747341
16.0,0.012044412083923817
18.0,0.010798238217830658
20.0,0.009790231473743916
22.0,0.008993641473352909
24.0,0.008264604955911636
26.0,0.007555400487035513
28.0,0.006811519619077444
30.0,0.006255539134144783
32.0,0.005771818105131388
36.0,0.004849391523748636
40.0,0.003919105511158705
44.0,0.0034125095698982477
48.0,0.002966005587950349
52.0,0.002463483950123191
56.0,0.0017005926929414272
60.0,0.0012489238288253546
64.0,0.0009957648580893874
72.0,0.0006893574027344584
80.0,-0.00030439504189416766
88.0,-0.00027237075846642256
96.0,-0.00039513703086413443
104.0,-0.0010749102802947164
112.0,-0.0011551313800737262
120.0,-0.0012507833307608962
128.0,-0.0016872294945642352
144.0,-0.0016199719393625855
160.0,-0.0006283895345404744
176.0,0.000311578914988786
192.0,-0.00017971395573113114
208.0,-0.0006512016989290714
224.0,5.083937867311761e-05
240.0,0.0006066238274797797
256.0,0.0008120093261823058
288.0,-0.00012489834625739604
320.0,-0.00030474879895336926
352.0,0.000701598881278187
384.0,-0.00016330806829500943
416.0,0.001524997060187161
448.0,0.0015287286369130015
480.0,0.0006630199495702982
512.0,-0.00016123522073030472
576.0,-0.0011296607553958893
640.0,-4.180677206022665e-05
704.0,0.0008760991040617228
768.0,0.0007137684151530266
832.0,0.00040519615868106484
896.0,2.504798067093361e-05
960.0,-0.0015881741419434547
1024.0,-6.451703666243702e-05
1152.0,0.0004655518860090524
1280.0,-6.68117354507558e-05
1408.0,-0.0005227538058534265
1536.0,8.914372301660478e-05
1664.0,-0.00035183579893782735
1792.0,-5.8857669500866905e-05
1920.0,0.0003335930232424289
2048.0,0.0009289604495279491
2304.0,-0.00046009625657461584
2560.0,-0.0002516152453608811
2816.0,-0.00015788462769705802
3072.0,-0.00047153752529993653
3328.0,-6.85119885019958e-05
3584.0,-0.00027449021581560373
3840.0,0.00017714136629365385
4096.0,-3.732184268301353e-05
4608.0,0.0008940204279497266
5120.0,-0.00016597306239418685
5632.0,-0.0007038268959149718
6144.0,0.0007986987475305796
6656.0,0.00029603554867208004
7168.0,-0.0003855446120724082
7680.0,-0.0011309515684843063
8192.0,-0.0005838361103087664
9216.0,-0.00017769595433492213
10240.0,-0.0004410259716678411
11264.0,0.0010311802616342902
12288.0,-0.0005709872930310667
13312.0,-0.00030825164867565036
14336.0,0.0002592500823084265
end
