version,3.0
numOfCh,1
type,point
parent_name,200-cuts
ch_type,1_1
kcount,1
numberNandB,1
brightnessNandB,1
carpet pos,0
pc,0
Time (ms),CH1 Auto-Correlation
1.0,0.02593136951327324
2.0,0.02351357229053974
3.0,0.02145235799252987
4.0,0.01965668983757496
5.0,0.018046308308839798
6.0,0.016648055985569954
7.0,0.01549188420176506
8.0,0.014519967138767242
9.0,0.013601184822618961
10.0,0.012740657664835453
11.0,0.011980611830949783
12.0,0.011209825053811073
13.0,0.01054094173014164
14.0,0.009920533746480942
15.0,0.0093303881585598
16.0,0.008792839013040066
18.0,0.007859989069402218
20.0,0.007004331331700087
22.0,0.006304099690169096
24.0,0.005736497696489096
26.0,0.005362214520573616
28.0,0.005095465574413538
30.0,0.004751855507493019
32.0,0.00439250934869051
36.0,0.003950067330151796
40.0,0.003685737494379282
44.0,0.0033599219750612974
48.0,0.002901826286688447
52.0,0.002207625424489379
56.0,0.0015386911109089851
60.0,0.0010844205971807241
64.0,0.0007833854760974646
72.0,0.0008702438790351152
80.0,0.0010013168212026358
88.0,0.0008889657910913229
96.0,0.0004863238427788019
104.0,0.00027901417342945933
112.0,0.00040707492735236883
120.0,0.00020266763749532402
128.0,-6.286474672378972e-05
144.0,-0.00040013634134083986
160.0,-5.436206720332848e-06
176.0,-5.72136377741117e-05
192.0,-0.0002694301074370742
208.0,-0.00018960096349474043
224.0,0.00022115006868261844
240.0,0.0003828471526503563
256.0,-0.00033763772808015347
288.0,1.4722632840857841e-05
320.0,-0.0008328567491844296
352.0,-0.0008801883668638766
384.0,-0.00037015159614384174
416.0,0.00027208522078581154
448.0,8.824662654660642e-05
480.0,-0.000863988942001015
512.0,-0.0008727061212994158
576.0,0.0005777142359875143
640.0,0.0005624537589028478
704.0,0.000210426194826141
768.0,-0.0003588238905649632
832.0,-0.0011354050366207957
896.0,-0.0008304474758915603
960.0,-0.0006901798187755048
1024.0,-0.0007753348327241838
1152.0,-0.00044979798258282244
1280.0,0.0006290648598223925
1408.0,0.0004723385500255972
1536.0,0.00026868123677559197
1664.0,-0.00020753915305249393
1792.0,-0.00033100589644163847
1920.0,-0.00037654233165085316
2048.0,0.00019030214753001928
2304.0,-0.00012979915481992066
2560.0,-0.00014105938316788524
2816.0,2.5856455977191217e-05
3072.0,-0.00013519728963728994
3328.0,-0.0001250305213034153
3584.0,0.0003536621225066483
3840.0,0.00015292463649529964
4096.0,0.00045381701784208417
4608.0,-0.0003992327838204801
5120.0,-0.0009590145200490952
5632.0,0.0001579385279910639
6144.0,-0.0001561106473673135
6656.0,0.0001671401405474171
7168.0,-0.00018530894885770977
7680.0,0.00026458079810254276
8192.0,0.0002297117025591433
9216.0,-0.00030989572405815125
10240.0,-1.0102599844685756e-05
11264.0,0.00023537609376944602
12288.0,-1.234156297869049e-05
13312.0,0.0007381271570920944
14336.0,-0.00011673806875478476
end
