version,3.0
numOfCh,1
type,point
parent_name,200-cuts
ch_type,1_1
kcount,1
numberNandB,1
brightnessNandB,1
carpet pos,0
pc,0
Time (ms),CH1 Auto-Correlation
1.0,0.02565355785191059
2.0,0.023355696350336075
3.0,0.021435173228383064
4.0,0.019739335402846336
5.0,0.01817145198583603
6.0,0.016789453104138374
7.0,0.015515866689383984
8.0,0.014385673217475414
9.0,0.013395031914114952
10.0,0.012482988648116589
11.0,0.011644141748547554
12.0,0.010831329971551895
13.0,0.01011697668582201
14.0,0.009434239938855171
15.0,0.008818749338388443
16.0,0.008252478204667568
18.0,0.007341684307903051
20.0,0.006535098422318697
22.0,0.005732909310609102
24.0,0.00498697254806757
26.0,0.004425279796123505
28.0,0.0038496919441968203
30.0,0.003457485232502222
32.0,0.0030710650607943535
36.0,0.002455364679917693
40.0,0.002021449152380228
44.0,0.0017493119230493903
48.0,0.0016292557120323181
52.0,0.0015802201814949512
56.0,0.0016674998914822936
60.0,0.0016635506181046367
64.0,0.0016039424808695912
72.0,0.001887621241621673
80.0,0.001907603582367301
88.0,0.0012739793164655566
96.0,0.0006206039106473327
104.0,-0.00036352721508592367
112.0,-0.0008756742463447154
120.0,-0.0010823046322911978
128.0,-0.0005163119058124721
144.0,0.0004283380403649062
160.0,0.00012899738794658333
176.0,-0.0004066363617312163
192.0,0.000577931699808687
208.0,0.0005338729242794216
224.0,-0.0006565430085174739
240.0,-0.0008566533797420561
256.0,-0.0010055388556793332
288.0,-0.0004594028287101537
320.0,-0.0003818342520389706
352.0,-0.00033082193112932146
384.0,-0.0006218052585609257
416.0,0.0013357027200981975
448.0,0.0006450832006521523
480.0,0.00028272290364839137
512.0,0.0006273980252444744
576.0,0.00029028955032117665
640.0,-0.00046744223800487816
704.0,4.160593744018115e-05
768.0,-0.0004233083163853735
832.0,0.0004512346349656582
896.0,-0.00013937930634710938
960.0,-0.00011796227772720158
1024.0,-0.0002821364323608577
1152.0,-0.0004344725457485765
1280.0,-0.000368451263057068
1408.0,-0.0008428255678154528
1536.0,-0.0004283825110178441
1664.0,-0.00012873850937467068
1792.0,-0.000512663449626416
1920.0,-0.00041180066182278097
2048.0,7.04582198522985e-05
2304.0,0.0007355801062658429
2560.0,0.00035492234746925533
2816.0,0.0002492642088327557
3072.0,0.0001059837595676072
3328.0,0.0004751407541334629
3584.0,0.00029550533508881927
3840.0,-0.00038815682637505233
4096.0,-0.0004473088774830103
4608.0,0.00013535637117456645
5120.0,0.00044327182695269585
5632.0,-2.6650965082808398e-05
6144.0,-9.220972970069852e-06
6656.0,-0.000786063726991415
7168.0,-0.00015428145707119256
7680.0,0.0003320100368000567
8192.0,5.0249345804331824e-05
9216.0,-0.00022413297847379
10240.0,-0.00046002661110833287
11264.0,6.405050226021558e-05
12288.0,-3.001556024173624e-06
13312.0,0.00029193569207563996
14336.0,-0.0005236415308900177
end
