version,3.0
numOfCh,1
type,point
parent_name,200-cuts
ch_type,1_1
kcount,1
numberNandB,1
brightnessNandB,1
carpet pos,0
pc,0
Time (ms),CH1 Auto-Correlation
1.0,0.0793205052614212
2.0,0.07153186202049255
3.0,0.06488445401191711
4.0,0.05911242589354515
5.0,0.05405373126268387
6.0,0.04961473122239113
7.0,0.045804161578416824
8.0,0.042542729526758194
9.0,0.03963625431060791
10.0,0.03714940696954727
11.0,0.0347939096391201
12.0,0.03266584873199463
13.0,0.030815407633781433
14.0,0.02909538336098194
15.0,0.02752678096294403
16.0,0.026129234582185745
18.0,0.023328756913542747
20.0,0.021243654191493988
22.0,0.019315648823976517
24.0,0.017953958362340927
26.0,0.016810311004519463
28.0,0.015361047349870205
30.0,0.013510738499462605
32.0,0.012010345235466957
36.0,0.010172588750720024
40.0,0.008429884910583496
44.0,0.007033295929431915
48.0,0.005978786386549473
52.0,0.0051767947152256966
56.0,0.004593616351485252
60.0,0.00413446594029665
64.0,0.004626510199159384
72.0,0.0053609395399689674
80.0,0.005222429521381855
88.0,0.004942146595567465
96.0,0.004861733410507441
104.0,0.0049550882540643215
112.0,0.005154812708497047
120.0,0.0067075020633637905
128.0,0.005522002466022968
144.0,0.0014472473412752151
160.0,0.0017595398239791393
176.0,0.002663675229996443
192.0,0.0028910264372825623
208.0,0.002638560486957431
224.0,-0.0004606714937835932
240.0,-0.0015076113631948829
256.0,-0.000977111398242414
288.0,0.00034321172279305756
320.0,0.0012128624366596341
352.0,-0.003456908743828535
384.0,-0.0015105616766959429
416.0,0.00029314879793673754
448.0,-0.001624911674298346
480.0,-0.0013364554615691304
512.0,-0.0027814486529678106
576.0,-0.004363484214991331
640.0,-0.0018327758880332112
704.0,-0.0015343966661021113
768.0,-0.002928925910964608
832.0,-0.0010583774419501424
896.0,-0.0024701934307813644
960.0,-0.0018371616024523973
1024.0,-0.0021959173027426004
1152.0,0.0005942226271145046
1280.0,-0.0020262650214135647
1408.0,0.000980988028459251
1536.0,0.0008423482649959624
1664.0,0.0020454637706279755
1792.0,0.0035657125990837812
1920.0,0.002510580699890852
2048.0,-0.00041082213283516467
2304.0,-0.001777498284354806
2560.0,-0.0021520419977605343
2816.0,-0.0004219795810058713
3072.0,0.0025537563487887383
3328.0,0.0007867619278840721
3584.0,0.0027177350129932165
3840.0,-0.000496576598379761
4096.0,-0.0009867990156635642
4608.0,0.0016178656369447708
5120.0,-0.0008575271931476891
5632.0,-0.0005237119039520621
6144.0,0.0012689477298408747
6656.0,-0.0015836245147511363
7168.0,-0.0012309961020946503
7680.0,0.0017206374322995543
8192.0,-0.00040003290632739663
9216.0,-0.00016201847756747156
10240.0,-6.626661343034357e-05
11264.0,-1.8961081877932884e-05
12288.0,-0.00041483587119728327
13312.0,0.00028990654391236603
14336.0,0.0006268241559155285
end
