version,3.0
numOfCh,1
type,point
parent_name,200-cuts
ch_type,1_1
kcount,1
numberNandB,1
brightnessNandB,1
carpet pos,0
pc,0
Time (ms),CH1 Auto-Correlation
1.0,0.04197857901453972
2.0,0.03837043419480324
3.0,0.035267338156700134
4.0,0.032568976283073425
5.0,0.030212504789233208
6.0,0.02809658646583557
7.0,0.026252947747707367
8.0,0.024651361629366875
9.0,0.023117944598197937
10.0,0.021763771772384644
11.0,0.020415116101503372
12.0,0.01927623152732849
13.0,0.018256252631545067
14.0,0.01729126274585724
15.0,0.016366908326745033
16.0,0.015624349936842918
18.0,0.014275940135121346
20.0,0.013204456306993961
22.0,0.012240342795848846
24.0,0.011287359520792961
26.0,0.010274229571223259
28.0,0.009356203489005566
30.0,0.008461197838187218
32.0,0.007659442722797394
36.0,0.006385578773915768
40.0,0.005472494754940271
44.0,0.004876985214650631
48.0,0.004428411368280649
52.0,0.003887041239067912
56.0,0.0036313149612396955
60.0,0.0033356742933392525
64.0,0.003079914255067706
72.0,0.0011441826354712248
80.0,0.00010051444405689836
88.0,0.0006322183762677014
96.0,0.0009368970640935004
104.0,0.0008993373485282063
112.0,-0.00012080511805834249
120.0,-0.0004518999485298991
128.0,6.754910282325e-05
144.0,0.0004053982556797564
160.0,0.0003527070803102106
176.0,0.0002686693624127656
192.0,0.00018205792002845556
208.0,-0.0003272326721344143
224.0,-0.0009445030009374022
240.0,-0.0010631887707859278
256.0,-0.0012705920962616801
288.0,-0.0014238035073503852
320.0,-0.0015188928227871656
352.0,-0.0008853620965965092
384.0,-0.0005703670321963727
416.0,-0.00011792843724833801
448.0,0.000160388313815929
480.0,0.0020258412696421146
512.0,0.0016538113122805953
576.0,0.0006918495637364686
640.0,-0.0003527374065015465
704.0,9.740723908180371e-05
768.0,0.0010124697582796216
832.0,-0.0005048437742516398
896.0,-7.87038734415546e-05
960.0,8.598610293120146e-06
1024.0,0.0015345147112384439
1152.0,-0.0013740243157371879
1280.0,-2.428103471174836e-05
1408.0,0.0003531038237269968
1536.0,-0.00018264909158460796
1664.0,-0.0005836625932715833
1792.0,0.0008514003711752594
1920.0,0.0004322792519815266
2048.0,-0.0008153458475135267
2304.0,0.0015816671075299382
2560.0,-0.00011958378308918327
2816.0,0.0012095212005078793
3072.0,-0.00038926335400901735
3328.0,0.00036406132858246565
3584.0,0.00012839735427405685
3840.0,-0.0019523974042385817
4096.0,0.00044023324153386056
4608.0,-0.0012760960962623358
5120.0,0.0010034519946202636
5632.0,-3.0330873414641246e-05
6144.0,-0.0010403655469417572
6656.0,-0.0008015167550183833
7168.0,-0.0011098285904154181
7680.0,0.0006634785677306354
8192.0,-0.0008259624592028558
9216.0,-0.0008626211201772094
10240.0,4.787599391420372e-05
11264.0,2.0417624909896404e-05
12288.0,0.0004908762639388442
13312.0,-0.00042927268077619374
14336.0,0.0009186792303808033
end
