version,3.0
numOfCh,1
type,point
parent_name,200-cuts
ch_type,1_1
kcount,1
numberNandB,1
brightnessNandB,1
carpet pos,0
pc,0
Time (ms),CH1 Auto-Correlation
1.0,0.02716613933444023
2.0,0.02476687543094158
3.0,0.02273411490023136
4.0,0.021040286868810654
5.0,0.019553324207663536
6.0,0.018164940178394318
7.0,0.016825346276164055
8.0,0.01569391041994095
9.0,0.014691129326820374
10.0,0.0138395382091403
11.0,0.013115664012730122
12.0,0.012405412271618843
13.0,0.01171303540468216
14.0,0.011024647392332554
15.0,0.010400131344795227
16.0,0.009850895963609219
18.0,0.008863153867423534
20.0,0.00794465932995081
22.0,0.007219171151518822
24.0,0.006627778522670269
26.0,0.006031920202076435
28.0,0.005502872169017792
30.0,0.005062946584075689
32.0,0.004689079709351063
36.0,0.004196730442345142
40.0,0.0038428609259426594
44.0,0.0034101055935025215
48.0,0.0028629438020288944
52.0,0.0022639664821326733
56.0,0.001685373717918992
60.0,0.0013968474231660366
64.0,0.001166237983852625
72.0,0.0007522702217102051
80.0,0.0002829866425599903
88.0,-0.0001452356082154438
96.0,-7.39285969757475e-05
104.0,0.0002494747459422797
112.0,0.0003556953161023557
120.0,5.7297456805827096e-05
128.0,0.00017629990179557353
144.0,-0.0010415950091555715
160.0,-0.0013862274354323745
176.0,-0.0011795960599556565
192.0,-0.0011616580886766315
208.0,-0.0017836797051131725
224.0,-0.0013142320094630122
240.0,-0.0008403511019423604
256.0,-0.0008532616775482893
288.0,-7.71505874581635e-05
320.0,0.0002747623366303742
352.0,0.0007322172750718892
384.0,0.0008711762493476272
416.0,-0.0002665976935531944
448.0,-0.0004245433665346354
480.0,-0.0008277167798951268
512.0,-0.0003846427134703845
576.0,-0.0009821756975725293
640.0,0.0007483523804694414
704.0,0.0011774193262681365
768.0,0.0004769395454786718
832.0,0.0002983728190883994
896.0,-6.362629210343584e-05
960.0,0.000527938362210989
1024.0,-4.478430128074251e-05
1152.0,-0.00019915311713702977
1280.0,-0.0005295741721056402
1408.0,-0.0001772705145413056
1536.0,6.198805931489915e-05
1664.0,-0.0004996730131097138
1792.0,-0.0007167953299358487
1920.0,-0.000986705650575459
2048.0,-0.00012985116336494684
2304.0,0.0005266827647574246
2560.0,-0.00013069917622487992
2816.0,-0.0006584113580174744
3072.0,0.0009705068077892065
3328.0,0.00026926639839075506
3584.0,0.00022631281171925366
3840.0,0.00026830006390810013
4096.0,0.0002875146456062794
4608.0,-0.000257429841440171
5120.0,-7.548448775196448e-05
5632.0,-0.00016157903883140534
6144.0,4.099173020222224e-05
6656.0,-3.441307489993051e-05
7168.0,-0.00029479878139682114
7680.0,4.263027949491516e-05
8192.0,1.0186438885284588e-05
9216.0,0.0001832449488574639
10240.0,-0.0008264355128630996
11264.0,-7.278500106622232e-06
12288.0,0.0008188167121261358
13312.0,-0.0010351486271247268
14336.0,-0.0009709217119961977
end
