version,3.0
numOfCh,1
type,point
parent_name,200-cuts
ch_type,1_1
kcount,1
numberNandB,1
brightnessNandB,1
carpet pos,0
pc,0
Time (ms),CH1 Auto-Correlation
1.0,0.09026706218719482
2.0,0.08145654201507568
3.0,0.07395324856042862
4.0,0.06726442277431488
5.0,0.06157274916768074
6.0,0.056784048676490784
7.0,0.052426863461732864
8.0,0.04865601658821106
9.0,0.04539733752608299
10.0,0.04256042093038559
11.0,0.04009563475847244
12.0,0.037862300872802734
13.0,0.035771336406469345
14.0,0.03355959802865982
15.0,0.03153621405363083
16.0,0.02975345030426979
18.0,0.02646138146519661
20.0,0.02375250682234764
22.0,0.021131040528416634
24.0,0.0189035814255476
26.0,0.017453961074352264
28.0,0.01618918590247631
30.0,0.014711412601172924
32.0,0.012760807760059834
36.0,0.009974534623324871
40.0,0.009362050332129002
44.0,0.008553192019462585
48.0,0.007165822200477123
52.0,0.006294982507824898
56.0,0.006211915519088507
60.0,0.005012639332562685
64.0,0.003570826258510351
72.0,0.002247981261461973
80.0,0.002359413541853428
88.0,0.002583762165158987
96.0,0.0020124425645917654
104.0,0.0003705778799485415
112.0,0.0015289012808352709
120.0,0.0023310058750212193
128.0,0.0025604276452213526
144.0,0.003622388932853937
160.0,-0.0008521685958839953
176.0,-0.0031256596557796
192.0,-0.004229559097439051
208.0,-0.004142547957599163
224.0,-0.0025525314267724752
240.0,-0.003579949727281928
256.0,-0.0044667888432741165
288.0,0.00040509473183192313
320.0,0.0005652071558870375
352.0,-0.002072589937597513
384.0,-0.0015597601886838675
416.0,0.0008422241662628949
448.0,0.004291867837309837
480.0,0.0031988387927412987
512.0,0.0005569146014750004
576.0,0.003390621393918991
640.0,-0.001723629073239863
704.0,-0.0033455456141382456
768.0,-0.005113955587148666
832.0,-0.001121825654990971
896.0,0.0003380237612873316
960.0,0.0007505915127694607
1024.0,-0.0005913976347073913
1152.0,-0.0002489855978637934
1280.0,-0.00136824999935925
1408.0,-0.0017700254684314132
1536.0,0.0013723138254135847
1664.0,-0.0018511645030230284
1792.0,-0.0009579958859831095
1920.0,7.250314229167998e-05
2048.0,0.0026316060684621334
2304.0,-0.003145832335576415
2560.0,0.0002780007489491254
2816.0,-0.0018186398083344102
3072.0,0.002489570528268814
3328.0,0.0014008221914991736
3584.0,0.0004235660017002374
3840.0,-7.942700176499784e-05
4096.0,-0.001844409853219986
4608.0,0.0002539770503062755
5120.0,0.00046568360994569957
5632.0,-0.0008482313132844865
6144.0,-0.001239280798472464
6656.0,0.0014974415535107255
7168.0,-8.70370349730365e-05
7680.0,0.0007359299925155938
8192.0,0.0006547889206558466
9216.0,-8.637172868475318e-05
10240.0,-0.0022272346541285515
11264.0,0.0020214065443724394
12288.0,0.0017114727525040507
13312.0,-0.00081473687896505
14336.0,-0.0009022126323543489
end
