version,3.0
numOfCh,1
type,point
parent_name,200-cuts
ch_type,1_1
kcount,1
numberNandB,1
brightnessNandB,1
carpet pos,0
pc,0
Time (ms),CH1 Auto-Correlation
1.0,0.030632436275482178
2.0,0.028241898864507675
3.0,0.026089036837220192
4.0,0.02433544211089611
5.0,0.022804593667387962
6.0,0.02142477035522461
7.0,0.020168166607618332
8.0,0.019050026312470436
9.0,0.01803397759795189
10.0,0.017080817371606827
11.0,0.016213325783610344
12.0,0.015498032793402672
13.0,0.014860855415463448
14.0,0.014245428144931793
15.0,0.013680187985301018
16.0,0.013147043995559216
18.0,0.012200545519590378
20.0,0.011386395432054996
22.0,0.010648784227669239
24.0,0.010033849626779556
26.0,0.009412113577127457
28.0,0.008717721328139305
30.0,0.008027518168091774
32.0,0.007316022180020809
36.0,0.006004570052027702
40.0,0.005141478031873703
44.0,0.004463272634893656
48.0,0.003907428588718176
52.0,0.0032260038424283266
56.0,0.0024896326940506697
60.0,0.0019902801141142845
64.0,0.0016972318990156054
72.0,0.0016767805209383368
80.0,0.0017815020401030779
88.0,0.001621823525056243
96.0,0.0017067325534299016
104.0,0.0018862534780055285
112.0,0.0018812064081430435
120.0,0.0021321300882846117
128.0,0.0017428415594622493
144.0,0.0006678715581074357
160.0,0.0004410174733493477
176.0,-0.000192007893929258
192.0,-0.00022248066670726985
208.0,0.0005840909434482455
224.0,0.0010907301912084222
240.0,0.0014634575927630067
256.0,0.0009549251408316195
288.0,0.0003576966992113739
320.0,0.0013943526428192854
352.0,0.0024630865082144737
384.0,0.0009089558152481914
416.0,-0.0005020312964916229
448.0,0.0007177102961577475
480.0,0.0012821594718843699
512.0,0.0008951761992648244
576.0,-0.00024042946461122483
640.0,-0.0004239960398990661
704.0,-0.00030447368044406176
768.0,-0.0005574401584453881
832.0,-0.00020714303536806256
896.0,-0.0008999785641208291
960.0,-0.0004137092037126422
1024.0,-0.00015238355263136327
1152.0,-0.0010234973160549998
1280.0,-0.0008203170145861804
1408.0,-0.0013765838230028749
1536.0,-0.0006424858584068716
1664.0,-0.0009142510243691504
1792.0,-0.00036285974783822894
1920.0,-0.000425818026997149
2048.0,-9.05783090274781e-05
2304.0,0.0002801554510369897
2560.0,0.00047808929230086505
2816.0,0.0016085149254649878
3072.0,0.0011936522787436843
3328.0,0.0011294301366433501
3584.0,-0.00036725684185512364
3840.0,-0.0008675991557538509
4096.0,-0.0008356841281056404
4608.0,-0.0004532009188551456
5120.0,-0.00016401632456108928
5632.0,4.577225263346918e-05
6144.0,-0.0001504933024989441
6656.0,-0.0005500589031726122
7168.0,0.00031054328428581357
7680.0,-0.0009074697154574096
8192.0,-0.00048756811884231865
9216.0,-0.0002474933280609548
10240.0,0.00037706398870795965
11264.0,-0.0008219965384341776
12288.0,0.00036864628782495856
13312.0,0.000396587944123894
14336.0,-0.0001064023090293631
end
