version,3.0
numOfCh,1
type,point
parent_name,200-cuts
ch_type,1_1
kcount,1
numberNandB,1
brightnessNandB,1
carpet pos,0
pc,0
Time (ms),CH1 Auto-Correlation
1.0,0.04169946908950806
2.0,0.03799441456794739
3.0,0.034891098737716675
4.0,0.032211169600486755
5.0,0.029828770086169243
6.0,0.027648605406284332
7.0,0.025783831253647804
8.0,0.024065984413027763
9.0,0.022550338879227638
10.0,0.02111186273396015
11.0,0.01987580582499504
12.0,0.018781745806336403
13.0,0.017763059586286545
14.0,0.016909277066588402
15.0,0.016119565814733505
16.0,0.015316414646804333
18.0,0.014032657258212566
20.0,0.012801012955605984
22.0,0.011822815053164959
24.0,0.011070243082940578
26.0,0.010376479476690292
28.0,0.009625967592000961
30.0,0.009091113694012165
32.0,0.008507235907018185
36.0,0.007233463227748871
40.0,0.006205021403729916
44.0,0.005097120068967342
48.0,0.0038524630945175886
52.0,0.0025346616748720407
56.0,0.0015862033469602466
60.0,0.0008625919581390917
64.0,0.0007433292921632528
72.0,0.0007216281373985112
80.0,0.00038691694498993456
88.0,-9.059203148353845e-05
96.0,-0.0006337757222354412
104.0,-0.000103824379038997
112.0,0.00041418831096962094
120.0,0.0008481252589263022
128.0,0.0011323523940518498
144.0,0.0002946588210761547
160.0,-0.00016228923050221056
176.0,0.00019222944683860987
192.0,0.0006140658515505493
208.0,0.001796809840016067
224.0,0.001411181641742587
240.0,0.00039906639722175896
256.0,6.487953942269087e-05
288.0,-0.0010769726941362023
320.0,-0.0024183951318264008
352.0,-0.0025281626731157303
384.0,-0.0034841338638216257
416.0,-0.0023676299024373293
448.0,-0.0019630955066531897
480.0,-0.0017981147393584251
512.0,-0.0012056351406499743
576.0,-0.0012774011120200157
640.0,2.0192201191093773e-06
704.0,0.0017580250278115273
768.0,0.0015804431168362498
832.0,0.002595270052552223
896.0,0.003630479099228978
960.0,0.0015187300741672516
1024.0,0.0011966804740950465
1152.0,-0.0008263002964667976
1280.0,-0.0010507690021768212
1408.0,-0.0015829228796064854
1536.0,-0.001476049772463739
1664.0,0.00157771201338619
1792.0,0.0016413042321801186
1920.0,0.0006836912361904979
2048.0,-0.0015353374183177948
2304.0,-0.000967136409599334
2560.0,0.0007914325105957687
2816.0,0.00028726874734275043
3072.0,-0.0019088315311819315
3328.0,-0.00030686985701322556
3584.0,0.001964493189007044
3840.0,-0.0010044786613434553
4096.0,-0.0020028529688715935
4608.0,0.0005135280662216246
5120.0,3.4394324757158756e-05
5632.0,-0.0003431459772400558
6144.0,0.0004948073765262961
6656.0,-0.0010768038919195533
7168.0,0.0005926818703301251
7680.0,-0.0006437424453906715
8192.0,0.0006571023841388524
9216.0,-0.0002741188509389758
10240.0,-0.0009078012662939727
11264.0,-0.001417916500940919
12288.0,0.0010907165706157684
13312.0,0.0010014364961534739
14336.0,0.0008994122035801411
end
