version,3.0
numOfCh,1
type,point
parent_name,200-cuts
ch_type,1_1
kcount,1
numberNandB,1
brightnessNandB,1
carpet pos,0
pc,0
Time (ms),CH1 Auto-Correlation
1.0,0.026437684893608093
2.0,0.024073749780654907
3.0,0.022063028067350388
4.0,0.020285267382860184
5.0,0.018664902076125145
6.0,0.017265303060412407
7.0,0.016033662483096123
8.0,0.014954891055822372
9.0,0.013980607502162457
10.0,0.013071992434561253
11.0,0.01220732182264328
12.0,0.01143737230449915
13.0,0.01077254954725504
14.0,0.010135669261217117
15.0,0.009503074921667576
16.0,0.008948077447712421
18.0,0.007923448458313942
20.0,0.007056914735585451
22.0,0.006324230693280697
24.0,0.005734285339713097
26.0,0.00521872378885746
28.0,0.004847373813390732
30.0,0.004550302866846323
32.0,0.004235949367284775
36.0,0.0038072457537055016
40.0,0.0034410073421895504
44.0,0.00326176593080163
48.0,0.0029164128936827183
52.0,0.0025376786943525076
56.0,0.002163439989089966
60.0,0.0018778181402012706
64.0,0.001643808209337294
72.0,0.0014915885403752327
80.0,0.0016181280370801687
88.0,0.001756186131387949
96.0,0.0017994629452005029
104.0,0.001601178664714098
112.0,0.0011736403685063124
120.0,0.0010479283519089222
128.0,0.0005155174294486642
144.0,0.00013348406355362386
160.0,7.745213224552572e-05
176.0,-9.338309610029683e-05
192.0,-0.001158635481260717
208.0,-0.001837746356613934
224.0,-0.0019267124589532614
240.0,-0.0019029174000024796
256.0,-0.0016937695909291506
288.0,-0.001150718075223267
320.0,-0.0006643427768722177
352.0,-0.0002072993083857
384.0,0.00020189463975839317
416.0,-0.0003361838753335178
448.0,-0.0002227436489192769
480.0,-0.0003257481730543077
512.0,-0.00015847822942305356
576.0,-0.0005373829044401646
640.0,-0.000749009835999459
704.0,0.0004612625343725085
768.0,0.0003564084181562066
832.0,0.0002652607799973339
896.0,-0.0002528687473386526
960.0,-0.00017039272643160075
1024.0,-0.00032084068516269326
1152.0,0.0009677056805230677
1280.0,0.0007674838416278362
1408.0,3.1082203349797055e-05
1536.0,-0.00037288927705958486
1664.0,-0.00016030261758714914
1792.0,-0.0007852603448554873
1920.0,-0.0002649875823408365
2048.0,-0.00034846007474698126
2304.0,-0.00010470840788912028
2560.0,0.0004978056531399488
2816.0,-0.00034939750912599266
3072.0,0.0005059434333816171
3328.0,-0.000987814157269895
3584.0,0.00045687324018217623
3840.0,0.00046434253454208374
4096.0,-1.404190425091656e-05
4608.0,-0.0005503951106220484
5120.0,0.0005833763862028718
5632.0,-0.00031317840330302715
6144.0,-0.000567721959669143
6656.0,0.00028392666717991233
7168.0,-0.0010794209083542228
7680.0,0.0002801216032821685
8192.0,-0.0002724000660236925
9216.0,-9.519866580376402e-05
10240.0,-4.688771514338441e-05
11264.0,0.0003945576900150627
12288.0,-0.0004357667057774961
13312.0,0.0008132716175168753
14336.0,-0.00011016857024515048
end
