version,3.0
numOfCh,1
type,point
parent_name,200-cuts
ch_type,1_1
kcount,1
numberNandB,1
brightnessNandB,1
carpet pos,0
pc,0
Time (ms),CH1 Auto-Correlation
1.0,0.09215002506971359
2.0,0.08415024727582932
3.0,0.07725715637207031
4.0,0.07111163437366486
5.0,0.06572578102350235
6.0,0.06110556051135063
7.0,0.05702581629157066
8.0,0.05349161475896835
9.0,0.05023080110549927
10.0,0.04738774523139
11.0,0.044595785439014435
12.0,0.042105793952941895
13.0,0.0400468111038208
14.0,0.038156356662511826
15.0,0.03652597591280937
16.0,0.03492727503180504
18.0,0.03177490830421448
20.0,0.029044553637504578
22.0,0.026846589520573616
24.0,0.024453185498714447
26.0,0.022020084783434868
28.0,0.02012369967997074
30.0,0.018664177507162094
32.0,0.017455793917179108
36.0,0.015498031862080097
40.0,0.013449535705149174
44.0,0.012064809910953045
48.0,0.010967593640089035
52.0,0.009849008172750473
56.0,0.008841156959533691
60.0,0.00781932845711708
64.0,0.005711164325475693
72.0,0.003229317720979452
80.0,0.0020058888476341963
88.0,0.0020189329516142607
96.0,0.0020295775029808283
104.0,0.0018782471306622028
112.0,0.0016533526359125972
120.0,0.001011266023851931
128.0,-0.0008421679958701134
144.0,-9.416173270437866e-05
160.0,-0.0015968931838870049
176.0,-0.0008998081320896745
192.0,0.00024209766706917435
208.0,0.0012773143826052547
224.0,0.0009646108956076205
240.0,-0.0002908012829720974
256.0,0.0014569016639143229
288.0,0.000230395671678707
320.0,-0.0025766128674149513
352.0,-0.004467177204787731
384.0,-0.006418731063604355
416.0,-0.002548362361267209
448.0,0.0010825800709426403
480.0,0.002004187786951661
512.0,0.00293773808516562
576.0,0.0019003248307853937
640.0,0.0027432902716100216
704.0,0.0036800929810851812
768.0,0.001346018398180604
832.0,-0.002317634876817465
896.0,-0.004114484414458275
960.0,0.0008356772013939917
1024.0,0.0011410977458581328
1152.0,0.002401589648798108
1280.0,0.0016122336965054274
1408.0,0.0016686717281118035
1536.0,-0.0009107315563596785
1664.0,-0.00024438684340566397
1792.0,-0.0007837380981072783
1920.0,0.0026941029354929924
2048.0,0.0022857114672660828
2304.0,0.0007170861354097724
2560.0,-0.002348176436498761
2816.0,0.00038319668965414166
3072.0,-0.0034781715366989374
3328.0,-0.00024106941418722272
3584.0,-0.0022847852669656277
3840.0,-0.00016176601639017463
4096.0,-0.002453968394547701
4608.0,-0.0003772207710426301
5120.0,-0.0003289938613306731
5632.0,0.0007576704956591129
6144.0,0.0007331755477935076
6656.0,0.0013194739585742354
7168.0,-0.0014950567856431007
7680.0,0.0006655132747255266
8192.0,-0.0017775174928829074
9216.0,-0.003133426420390606
10240.0,0.0004427172534633428
11264.0,-0.0007527617271989584
12288.0,0.0040008267387747765
13312.0,-0.0011588801862671971
14336.0,0.004167554900050163
end
