version,3.0
numOfCh,1
type,point
parent_name,200-cuts
ch_type,1_1
kcount,1
numberNandB,1
brightnessNandB,1
carpet pos,0
pc,0
Time (ms),CH1 Auto-Correlation
1.0,0.027173439040780067
2.0,0.024744002148509026
3.0,0.022664174437522888
4.0,0.020788924768567085
5.0,0.019182417541742325
6.0,0.01775790937244892
7.0,0.016479799523949623
8.0,0.015290125273168087
9.0,0.014211260713636875
10.0,0.013244579546153545
11.0,0.012360841035842896
12.0,0.011537211947143078
13.0,0.010779931209981441
14.0,0.010105096735060215
15.0,0.009444116614758968
16.0,0.008877555839717388
18.0,0.007892042398452759
20.0,0.00710561778396368
22.0,0.00634789140895009
24.0,0.005696436390280724
26.0,0.005165983457118273
28.0,0.00467230100184679
30.0,0.0042975423857569695
32.0,0.0040038032457232475
36.0,0.0035073787439614534
40.0,0.003361416282132268
44.0,0.0033389662858098745
48.0,0.0032842473592609167
52.0,0.002904209541156888
56.0,0.0025462268386036158
60.0,0.002100299810990691
64.0,0.0016275466186925769
72.0,0.001271398738026619
80.0,0.0013939149212092161
88.0,0.0013713364023715258
96.0,0.0013075560564175248
104.0,0.0008793328306637704
112.0,0.001105289557017386
120.0,0.0011474679922685027
128.0,0.00046341828419826925
144.0,0.0004919681814499199
160.0,0.0008913941564969718
176.0,0.0006505078636109829
192.0,-0.00036131919478066266
208.0,0.00013192981714382768
224.0,0.0004485115932766348
240.0,0.00028853898402303457
256.0,0.00010737465345300734
288.0,-0.0008706661756150424
320.0,-0.0008515852969139814
352.0,-0.0005846632993780077
384.0,-0.0014430995797738433
416.0,-0.0015414870576933026
448.0,0.00014043970440980047
480.0,0.0005685557844117284
512.0,-0.0006957867299206555
576.0,-0.00015777193766552955
640.0,-0.00014081939298193902
704.0,-0.0007383524207398295
768.0,0.00018080473819281906
832.0,-0.00019701510609593242
896.0,-0.0003272813046351075
960.0,0.00033980669104494154
1024.0,0.0016163586406037211
1152.0,0.00043098119203932583
1280.0,0.00040008724317885935
1408.0,0.0009517244179733098
1536.0,-0.0006782851996831596
1664.0,-0.000609781127423048
1792.0,3.127463423879817e-05
1920.0,-0.00037405139300972223
2048.0,-2.347613190067932e-05
2304.0,-0.0002654309500940144
2560.0,0.00014949608885217458
2816.0,0.00023573891667183489
3072.0,-0.0008342252695001662
3328.0,7.313700916711241e-05
3584.0,-0.0001236252865055576
3840.0,-0.0002765984390862286
4096.0,0.0001808687229640782
4608.0,-0.0002488365862518549
5120.0,0.00036834049387834966
5632.0,-0.0006858679698780179
6144.0,-0.00029122139676474035
6656.0,-8.20361019577831e-05
7168.0,-0.00012419273843988776
7680.0,0.0003479855658952147
8192.0,-5.38176936970558e-05
9216.0,0.0003876697737723589
10240.0,0.000184403543244116
11264.0,-0.00033805135171860456
12288.0,-0.00014796986943110824
13312.0,0.00039804744301363826
14336.0,0.00020302865596022457
end
