version,3.0
numOfCh,1
type,point
parent_name,200-cuts
ch_type,1_1
kcount,1
numberNandB,1
brightnessNandB,1
carpet pos,0
pc,0
Time (ms),CH1 Auto-Correlation
1.0,0.026237530633807182
2.0,0.023856831714510918
3.0,0.021853622049093246
4.0,0.02021908387541771
5.0,0.018735460937023163
6.0,0.017443018034100533
7.0,0.01628478616476059
8.0,0.015253915451467037
9.0,0.01434458140283823
10.0,0.013548394665122032
11.0,0.012764042243361473
12.0,0.01208243053406477
13.0,0.011437047272920609
14.0,0.010922321118414402
15.0,0.010479390621185303
16.0,0.010048766620457172
18.0,0.009113003499805927
20.0,0.008284698240458965
22.0,0.0075092073529958725
24.0,0.006843342911452055
26.0,0.006281225010752678
28.0,0.005773553159087896
30.0,0.005443889182060957
32.0,0.005153006408363581
36.0,0.004380617290735245
40.0,0.003635271918028593
44.0,0.0030947341583669186
48.0,0.002589372918009758
52.0,0.0018943574978038669
56.0,0.001144628506153822
60.0,0.0006317209918051958
64.0,0.0006146186497062445
72.0,0.0006679502548649907
80.0,0.0005277766031213105
88.0,0.0006565509829670191
96.0,0.0005172340897843242
104.0,-7.124260446289554e-05
112.0,-0.00019289412011858076
120.0,-0.0005944548174738884
128.0,-0.0009071890381164849
144.0,-0.0002716554736252874
160.0,-0.00031016513821668923
176.0,-0.0006798156537115574
192.0,-8.292985148727894e-05
208.0,0.00026167320902459323
224.0,0.0003037302813027054
240.0,0.0006040310836397111
256.0,0.00021993632253725082
288.0,-2.2247564629651606e-05
320.0,-0.0007462757639586926
352.0,0.0002443152479827404
384.0,4.113193426746875e-05
416.0,-0.0008721910417079926
448.0,-0.0010111278388649225
480.0,-0.0008456999203190207
512.0,-0.0006227188860066235
576.0,0.00021272005687933415
640.0,0.00041587965097278357
704.0,0.0008106093155220151
768.0,0.00034946700907312334
832.0,-0.0008626820053905249
896.0,-0.0013993848115205765
960.0,-0.0009632345754653215
1024.0,0.0005433952901512384
1152.0,6.340225809253752e-05
1280.0,0.00043413767707534134
1408.0,0.000583627843298018
1536.0,-0.0004402038757689297
1664.0,-0.0009051622473634779
1792.0,-0.0007618749514222145
1920.0,-0.0008736950112506747
2048.0,0.0007827940862625837
2304.0,3.7784680898766965e-05
2560.0,-0.0005703975330106914
2816.0,-6.167031642689835e-06
3072.0,-0.0008182364399544895
3328.0,-0.0001318914582952857
3584.0,0.0001300559233641252
3840.0,0.000325920176692307
4096.0,5.279016841086559e-05
4608.0,0.00035024184035137296
5120.0,0.00024841047707013786
5632.0,-0.0003197317128069699
6144.0,0.0004019585903733969
6656.0,-0.00025568425189703703
7168.0,-0.0005961568094789982
7680.0,-0.0006293231854215264
8192.0,0.0002846845018211752
9216.0,0.0001671093632467091
10240.0,0.00017630016373004764
11264.0,-0.000288875715341419
12288.0,4.109511792194098e-05
13312.0,-0.0006267139106057584
14336.0,0.0013758438872173429
end
