version,3.0
numOfCh,1
type,point
parent_name,200-cuts
ch_type,1_1
kcount,1
numberNandB,1
brightnessNandB,1
carpet pos,0
pc,0
Time (ms),CH1 Auto-Correlation
1.0,0.02569488435983658
2.0,0.023248709738254547
3.0,0.021257033571600914
4.0,0.01948203705251217
5.0,0.01795312575995922
6.0,0.016640251502394676
7.0,0.015482979826629162
8.0,0.014396603219211102
9.0,0.013421021401882172
10.0,0.012449533678591251
11.0,0.011588268913328648
12.0,0.010801486670970917
13.0,0.010053367353975773
14.0,0.009390482679009438
15.0,0.008834155276417732
16.0,0.008313555270433426
18.0,0.007539563346654177
20.0,0.006808886770159006
22.0,0.006064864806830883
24.0,0.005404426250606775
26.0,0.004732843954116106
28.0,0.004055705852806568
30.0,0.003459316212683916
32.0,0.0029355294536799192
36.0,0.002486567245796323
40.0,0.002424641279503703
44.0,0.0021796731743961573
48.0,0.0017307077068835497
52.0,0.0015980976168066263
56.0,0.0013269212795421481
60.0,0.0011863003019243479
64.0,0.0014286045916378498
72.0,0.00143431534525007
80.0,0.0012415064265951514
88.0,0.0006828414043411613
96.0,0.0003365937154740095
104.0,6.678142653981922e-06
112.0,-0.0005553145310841501
120.0,-0.0013940022327005863
128.0,-0.001181559986434877
144.0,-0.0005501977284438908
160.0,-0.000771885272115469
176.0,-0.0005819768412038684
192.0,0.0002733893343247473
208.0,0.0006142730126157403
224.0,0.00028569306596182287
240.0,0.0004253627557773143
256.0,0.0006749796448275447
288.0,-7.442873175023124e-05
320.0,-0.0006933497497811913
352.0,-0.00035798604949377477
384.0,-0.0006711471360176802
416.0,-0.00026680357404984534
448.0,0.00020823811064474285
480.0,-0.0001794188719941303
512.0,-0.000917665718588978
576.0,5.419312287813227e-07
640.0,0.000284051988273859
704.0,0.000675577437505126
768.0,0.0002747841936070472
832.0,0.0007961273659020662
896.0,-0.0005060842377133667
960.0,0.0008039186359383166
1024.0,0.0006930924137122929
1152.0,-0.00042754036257974803
1280.0,-0.0009225374087691307
1408.0,-0.00025057909078896046
1536.0,-0.00014056508371140808
1664.0,-0.0004357339348644018
1792.0,0.00017281243344768882
1920.0,-0.00024586162180639803
2048.0,0.0007814207929186523
2304.0,0.00020841859804932028
2560.0,4.8366324335802346e-05
2816.0,0.0002730809210333973
3072.0,0.00039028216269798577
3328.0,8.338387488038279e-06
3584.0,0.00013503068475984037
3840.0,0.0005059749819338322
4096.0,9.331027831649408e-05
4608.0,-0.0005640879971906543
5120.0,0.00028427212964743376
5632.0,-1.648939542064909e-05
6144.0,0.00045936150127090514
6656.0,-0.00046347660827450454
7168.0,-0.0004630425537470728
7680.0,0.0001461883948650211
8192.0,0.00024410102923866361
9216.0,1.825853541959077e-05
10240.0,-0.0001468256232328713
11264.0,-0.0005782044027000666
12288.0,-0.0004368678492028266
13312.0,-0.00034639344085007906
14336.0,0.000319424900226295
end
