version,3.0
numOfCh,1
type,point
parent_name,200-cuts
ch_type,1_1
kcount,1
numberNandB,1
brightnessNandB,1
carpet pos,0
pc,0
Time (ms),CH1 Auto-Correlation
1.0,0.08728804439306259
2.0,0.07974255830049515
3.0,0.07325027883052826
4.0,0.06772619485855103
5.0,0.06285639107227325
6.0,0.05835186690092087
7.0,0.05456329882144928
8.0,0.05130573734641075
9.0,0.04822177812457085
10.0,0.04531311243772507
11.0,0.04263600707054138
12.0,0.04006940498948097
13.0,0.03814597427845001
14.0,0.0364028625190258
15.0,0.03469815105199814
16.0,0.03308979421854019
18.0,0.030032513663172722
20.0,0.02750145085155964
22.0,0.024865569546818733
24.0,0.022678062319755554
26.0,0.02056870236992836
28.0,0.018888777121901512
30.0,0.017420658841729164
32.0,0.01623038947582245
36.0,0.014538112096488476
40.0,0.01227832492440939
44.0,0.00918218307197094
48.0,0.006973632145673037
52.0,0.00533551350235939
56.0,0.0034355863463133574
60.0,0.0019473169231787324
64.0,0.0008818592759780586
72.0,-0.0009667979902587831
80.0,-0.00137956696562469
88.0,-0.0018926720367744565
96.0,-0.0010834956774488091
104.0,-0.0010081293294206262
112.0,-0.0013361916644498706
120.0,-0.00012455278192646801
128.0,-0.0004655136726796627
144.0,-0.00022668769815936685
160.0,0.0005382971721701324
176.0,0.0018728512804955244
192.0,-2.4884868253138848e-05
208.0,-0.0013888576067984104
224.0,-0.003537161974236369
240.0,-0.0049888258799910545
256.0,-0.0061783031560480595
288.0,-0.00397844985127449
320.0,-0.0017413764726370573
352.0,0.0004635968361981213
384.0,-0.002610169118270278
416.0,0.0005878923693671823
448.0,0.003021541051566601
480.0,0.00014737910532858223
512.0,-0.002554693492129445
576.0,-0.004493563901633024
640.0,-0.0006398887489922345
704.0,0.0006489183870144188
768.0,-0.0007149401353672147
832.0,0.0009401110000908375
896.0,0.0010430740658193827
960.0,-0.002810390666127205
1024.0,-0.0012201430508866906
1152.0,0.0038342985790222883
1280.0,0.002181651070713997
1408.0,-0.00041480312938801944
1536.0,0.0013007220113649964
1664.0,0.000534498889464885
1792.0,-0.0034615108743309975
1920.0,0.00030070345383137465
2048.0,-0.0017500455724075437
2304.0,0.0009615822928026319
2560.0,-0.000538689608220011
2816.0,-0.0029537382069975138
3072.0,0.0010356641141697764
3328.0,0.00016304627934005111
3584.0,0.0004617329395841807
3840.0,-0.0027008282486349344
4096.0,-0.0006683741230517626
4608.0,0.00146329530980438
5120.0,-0.0012234956957399845
5632.0,0.0010644327849149704
6144.0,0.0004374022828415036
6656.0,0.0014082372654229403
7168.0,-0.0009728485601954162
7680.0,-0.0005778932827524841
8192.0,-0.0007303056190721691
9216.0,0.0004929405404254794
10240.0,0.00026645720936357975
11264.0,0.00041468103881925344
12288.0,0.002794936066493392
13312.0,0.00033088322379626334
14336.0,-0.0034377211704850197
end
