version,3.0
numOfCh,1
type,point
parent_name,200-cuts
ch_type,1_1
kcount,1
numberNandB,1
brightnessNandB,1
carpet pos,0
pc,0
Time (ms),CH1 Auto-Correlation
1.0,0.03968760371208191
2.0,0.036157380789518356
3.0,0.033133018761873245
4.0,0.030484843999147415
5.0,0.028172966092824936
6.0,0.02613852173089981
7.0,0.024353180080652237
8.0,0.02274112030863762
9.0,0.021275723353028297
10.0,0.019974714145064354
11.0,0.018844040110707283
12.0,0.017842182889580727
13.0,0.01700490154325962
14.0,0.01630677469074726
15.0,0.01564393937587738
16.0,0.01508517749607563
18.0,0.014013770967721939
20.0,0.01303897611796856
22.0,0.012084538117051125
24.0,0.010870427824556828
26.0,0.009738233871757984
28.0,0.008921509608626366
30.0,0.008340507745742798
32.0,0.00780955096706748
36.0,0.00662654172629118
40.0,0.0057478598318994045
44.0,0.004561718087643385
48.0,0.0033272902946919203
52.0,0.0026288318913429976
56.0,0.002389807254076004
60.0,0.001970198703929782
64.0,0.0015291564632207155
72.0,0.00024051008222158998
80.0,-0.000710128340870142
88.0,-0.0009440063149668276
96.0,-0.001168559887446463
104.0,-0.0012787588639184833
112.0,-0.0007690853090025485
120.0,-5.663247429765761e-05
128.0,0.0002918634854722768
144.0,1.561487079015933e-05
160.0,-0.0002513194631319493
176.0,-0.0012597967870533466
192.0,-0.0005662585026584566
208.0,-0.0007134640472941101
224.0,-0.0005832284223288298
240.0,0.0002641859173309058
256.0,0.0004674974479712546
288.0,0.0004624605644494295
320.0,0.0013741470174863935
352.0,0.0016459092730656266
384.0,0.0014264086494222283
416.0,0.0005751264980062842
448.0,2.2444643036578782e-05
480.0,0.0005550298956222832
512.0,0.0006593310390599072
576.0,0.0003851297951769084
640.0,0.0010538343340158463
704.0,-0.00012108109513064846
768.0,-0.0013192392652854323
832.0,-0.00026917748618870974
896.0,0.0006753188790753484
960.0,5.82314096391201e-05
1024.0,0.0017848886782303452
1152.0,0.0010406977962702513
1280.0,0.0007754117832519114
1408.0,-0.0004890942363999784
1536.0,-0.00013361632591113448
1664.0,0.0005418359651230276
1792.0,0.0015245915856212378
1920.0,-0.0003760711115319282
2048.0,0.0002979185665026307
2304.0,0.00011798329069279134
2560.0,-0.0004880836931988597
2816.0,0.0005773116135969758
3072.0,0.00030618690652772784
3328.0,0.00017909977759700269
3584.0,-0.0006115035503171384
3840.0,-4.381195321911946e-05
4096.0,8.372075535589829e-05
4608.0,-0.0012132382253184915
5120.0,-0.0004885387606918812
5632.0,-0.0017871786840260029
6144.0,-0.0002662353217601776
6656.0,-0.0004882096836809069
7168.0,-2.9807250029989518e-05
7680.0,-0.0013442077906802297
8192.0,0.00018899375572800636
9216.0,-1.2938551662955433e-05
10240.0,0.00109137874096632
11264.0,1.5272811651811935e-05
12288.0,0.000537378597073257
13312.0,0.0006526855868287385
14336.0,-0.0006677137571386993
end
