version,3.0
numOfCh,1
type,point
parent_name,200-cuts
ch_type,1_1
kcount,1
numberNandB,1
brightnessNandB,1
carpet pos,0
pc,0
Time (ms),CH1 Auto-Correlation
1.0,0.09374866634607315
2.0,0.08586744219064713
3.0,0.07906536757946014
4.0,0.07301939278841019
5.0,0.06802269071340561
6.0,0.06364437937736511
7.0,0.059827372431755066
8.0,0.05626992881298065
9.0,0.052972130477428436
10.0,0.04995928332209587
11.0,0.04732430726289749
12.0,0.044811587780714035
13.0,0.04221399500966072
14.0,0.03991008177399635
15.0,0.03778201341629028
16.0,0.035757336765527725
18.0,0.03240908309817314
20.0,0.029890146106481552
22.0,0.027876537293195724
24.0,0.025963591411709785
26.0,0.02390199713408947
28.0,0.02199057675898075
30.0,0.02054073102772236
32.0,0.018838798627257347
36.0,0.015521925874054432
40.0,0.012833216227591038
44.0,0.011287258937954903
48.0,0.010399596765637398
52.0,0.009056555107235909
56.0,0.007905622944235802
60.0,0.0077630337327718735
64.0,0.007049833424389362
72.0,0.0059240129776299
80.0,0.003993714228272438
88.0,0.002969555091112852
96.0,0.003089426551014185
104.0,0.0035698399879038334
112.0,0.0026529806200414896
120.0,0.0013883276842534542
128.0,6.900344305904582e-05
144.0,-0.0022759747225791216
160.0,-0.002634105272591114
176.0,-0.0008254747372120619
192.0,0.00042175938142463565
208.0,-0.000912309275008738
224.0,-0.002272767713293433
240.0,-0.0008404654217883945
256.0,0.0002711116976570338
288.0,-0.0010418124729767442
320.0,-9.116944283960038e-07
352.0,0.0018232387956231833
384.0,0.004166480153799057
416.0,0.002754696412011981
448.0,0.0004874530714005232
480.0,-0.002887971233576536
512.0,-0.0025196343194693327
576.0,-4.121587153349537e-06
640.0,-0.0034663511905819178
704.0,0.0007311425870284438
768.0,-0.002891132840886712
832.0,-0.0022339741699397564
896.0,-0.002725862432271242
960.0,0.0018721205415204167
1024.0,0.003921953961253166
1152.0,0.0014127000467851758
1280.0,-0.004178396426141262
1408.0,-0.00025649319286458194
1536.0,-0.004173538647592068
1664.0,2.83388581010513e-05
1792.0,0.003634215099737048
1920.0,0.00128468859475106
2048.0,0.000997808063402772
2304.0,-0.0018082543974742293
2560.0,-0.0018977249274030328
2816.0,0.0008858416695147753
3072.0,0.002140107098966837
3328.0,0.002062652725726366
3584.0,-0.0005214582197368145
3840.0,0.0006616588798351586
4096.0,-3.155582817271352e-05
4608.0,0.0019779547583311796
5120.0,-0.0009747120202519
5632.0,-0.0016609831945970654
6144.0,0.00102825160138309
6656.0,-0.00021413402282632887
7168.0,-0.0008066622540354729
7680.0,0.0016938428161665797
8192.0,-0.000348807021509856
9216.0,0.0005018166266381741
10240.0,-0.001334233209490776
11264.0,-0.001737779937684536
12288.0,0.0005528788897208869
13312.0,0.0002446811704430729
14336.0,-0.004070600960403681
end
