version,3.0
numOfCh,1
type,point
parent_name,200-cuts
ch_type,1_1
kcount,1
numberNandB,1
brightnessNandB,1
carpet pos,0
pc,0
Time (ms),CH1 Auto-Correlation
1.0,0.040451500564813614
2.0,0.03677915781736374
3.0,0.033634766936302185
4.0,0.03087630122900009
5.0,0.028449637815356255
6.0,0.02638975903391838
7.0,0.024562520906329155
8.0,0.022903965786099434
9.0,0.021536991000175476
10.0,0.02019815519452095
11.0,0.01894424855709076
12.0,0.017767267301678658
13.0,0.01670328713953495
14.0,0.01574750430881977
15.0,0.014851491898298264
16.0,0.01396130584180355
18.0,0.012490094639360905
20.0,0.011310484260320663
22.0,0.01024602074176073
24.0,0.009087732061743736
26.0,0.00802408903837204
28.0,0.007204723544418812
30.0,0.0065936739556491375
32.0,0.006143562030047178
36.0,0.005344089586287737
40.0,0.0046104309149086475
44.0,0.004028419964015484
48.0,0.003797464072704315
52.0,0.00351450452581048
56.0,0.0034525576047599316
60.0,0.0030424180440604687
64.0,0.0024725766852498055
72.0,0.0013942777877673507
80.0,0.0014626994961872697
88.0,0.0009045155602507293
96.0,0.0003121825575362891
104.0,0.0006623113877139986
112.0,0.0003747589362319559
120.0,0.001047053374350071
128.0,0.0022936868481338024
144.0,0.002423190278932452
160.0,0.0014066005824133754
176.0,-0.00013373763067647815
192.0,-0.0013732583029195666
208.0,-0.001181362778879702
224.0,-0.0008400097722187638
240.0,-0.00042416006908752024
256.0,-0.0014503166312351823
288.0,-0.002608989831060171
320.0,-0.0026500674430280924
352.0,-0.0019418139709159732
384.0,-0.0007639011018909514
416.0,-0.001139128115028143
448.0,-0.0022386584896594286
480.0,-0.0015386254526674747
512.0,-0.0020022967364639044
576.0,-0.000506644370034337
640.0,0.0015760203823447227
704.0,0.0011707940138876438
768.0,0.00019407270883675665
832.0,0.0007347940700128675
896.0,-0.0007366067729890347
960.0,-0.0007632573251612484
1024.0,-0.0010210052132606506
1152.0,-0.0006959605379961431
1280.0,-0.0006733306217938662
1408.0,0.00010896739695454016
1536.0,0.0014877363573759794
1664.0,0.0014560363488271832
1792.0,0.0014689593808725476
1920.0,-2.2533413357450627e-05
2048.0,-0.001939125475473702
2304.0,0.000520469096954912
2560.0,-0.0007008714019320905
2816.0,-0.0005670470418408513
3072.0,0.00048329567653127015
3328.0,-2.8349249987513758e-05
3584.0,-0.0006324345013126731
3840.0,-0.00026786120724864304
4096.0,-7.990261656232178e-05
4608.0,0.00033052064827643335
5120.0,-0.0007054738816805184
5632.0,-0.000618098652921617
6144.0,0.0004947231500409544
6656.0,5.337463517207652e-05
7168.0,8.408094436163083e-05
7680.0,-7.743592868791893e-05
8192.0,4.436891322256997e-05
9216.0,0.00023626885376870632
10240.0,0.0002338104386581108
11264.0,-0.0002760587085504085
12288.0,1.2192223948659375e-05
13312.0,-0.000602788059040904
14336.0,0.00022320254356600344
end
