version,3.0
numOfCh,1
type,point
parent_name,200-cuts
ch_type,1_1
kcount,1
numberNandB,1
brightnessNandB,1
carpet pos,0
pc,0
Time (ms),CH1 Auto-Correlation
1.0,0.08997873216867447
2.0,0.08226566016674042
3.0,0.07588440924882889
4.0,0.07019290328025818
5.0,0.06526481360197067
6.0,0.06108138710260391
7.0,0.057242996990680695
8.0,0.054073937237262726
9.0,0.05124928802251816
10.0,0.04857366532087326
11.0,0.046075958758592606
12.0,0.0436851866543293
13.0,0.04153402894735336
14.0,0.03974318876862526
15.0,0.03789538890123367
16.0,0.03632152080535889
18.0,0.03368974104523659
20.0,0.03117731772363186
22.0,0.029037371277809143
24.0,0.026755863800644875
26.0,0.02408756874501705
28.0,0.02143225632607937
30.0,0.01974545791745186
32.0,0.018875598907470703
36.0,0.01687396503984928
40.0,0.01443994976580143
44.0,0.012848859652876854
48.0,0.01162534486502409
52.0,0.010810098610818386
56.0,0.010739819146692753
60.0,0.01057380624115467
64.0,0.010066773742437363
72.0,0.008555401116609573
80.0,0.006804464850574732
88.0,0.004923689179122448
96.0,0.00306318118236959
104.0,0.00037123411311767995
112.0,-0.00020406981639098376
120.0,0.00037720572436228395
128.0,0.0007685189484618604
144.0,0.003022948279976845
160.0,0.0013860041508451104
176.0,0.0022702778223901987
192.0,0.003939419984817505
208.0,0.004334956407546997
224.0,0.003549468470737338
240.0,0.0022883894853293896
256.0,0.002328063827008009
288.0,0.00016468689136672765
320.0,-0.0024140148889273405
352.0,-0.0006269380101002753
384.0,-0.0007852197159081697
416.0,0.0006157743046060205
448.0,-0.0002832434547599405
480.0,-0.0012738598743453622
512.0,-0.00020313744607847184
576.0,0.0011040783720090985
640.0,0.00017884752014651895
704.0,-0.0015757234068587422
768.0,0.0008521632989868522
832.0,0.004098346922546625
896.0,0.005699816159904003
960.0,0.003013205248862505
1024.0,0.0036749921273440123
1152.0,-0.0004827507655136287
1280.0,-0.0026010838337242603
1408.0,-0.0018870336934924126
1536.0,-0.0021068553905934095
1664.0,0.0029607811011373997
1792.0,0.0016308578196913004
1920.0,0.001300533302128315
2048.0,-0.00498761422932148
2304.0,-0.001880117692053318
2560.0,0.002615189179778099
2816.0,0.0009709724108688533
3072.0,-0.002414564834907651
3328.0,0.001834966940805316
3584.0,0.0011808749986812472
3840.0,-0.0035592217463999987
4096.0,0.0010178153170272708
4608.0,-0.005845020525157452
5120.0,-0.0005313093424774706
5632.0,-0.00477921636775136
6144.0,-0.0006844753515906632
6656.0,0.0021012271754443645
7168.0,0.0026856421027332544
7680.0,0.0031785632017999887
8192.0,-0.0029167605098336935
9216.0,-0.0017792285652831197
10240.0,0.0005675488500855863
11264.0,6.744798884028569e-05
12288.0,-0.001094388891942799
13312.0,-0.0007056929753161967
14336.0,0.0021892439108341932
end
