version,3.0
numOfCh,1
type,point
parent_name,200-cuts
ch_type,1_1
kcount,1
numberNandB,1
brightnessNandB,1
carpet pos,0
pc,0
Time (ms),CH1 Auto-Correlation
1.0,0.027941782027482986
2.0,0.025541340932250023
3.0,0.023477111011743546
4.0,0.02165895327925682
5.0,0.020018884912133217
6.0,0.018557364121079445
7.0,0.017314938828349113
8.0,0.016161326318979263
9.0,0.015147862955927849
10.0,0.014292278327047825
11.0,0.013510220684111118
12.0,0.01281710620969534
13.0,0.012260036543011665
14.0,0.011756924912333488
15.0,0.01126119028776884
16.0,0.010708537884056568
18.0,0.009667998179793358
20.0,0.008900725282728672
22.0,0.008227026090025902
24.0,0.007652800530195236
26.0,0.0071485028602182865
28.0,0.006713356822729111
30.0,0.006278993096202612
32.0,0.0058644539676606655
36.0,0.005345148500055075
40.0,0.004832193721085787
44.0,0.004281642846763134
48.0,0.003753037191927433
52.0,0.003172139171510935
56.0,0.002598133636638522
60.0,0.002013450488448143
64.0,0.0016055857995525002
72.0,0.0011635981500148773
80.0,0.0011780105996876955
88.0,0.0011914398055523634
96.0,0.0009800896514207125
104.0,0.0006560652400366962
112.0,0.000798206718172878
120.0,0.0009102612966671586
128.0,0.0006470602820627391
144.0,0.00044254239764995873
160.0,0.0006395363598130643
176.0,0.0004918230115436018
192.0,-7.513663149438798e-05
208.0,-0.00015543497283942997
224.0,-0.0008286726078949869
240.0,-0.0016119341598823667
256.0,-0.0016966175753623247
288.0,-0.0008172384696081281
320.0,0.0005187041242606938
352.0,0.0002758640330284834
384.0,-2.5275661755586043e-05
416.0,-0.00036452020867727697
448.0,-0.0008744081715121865
480.0,-0.0010319934226572514
512.0,-0.0003596021851990372
576.0,-0.0011243971530348063
640.0,-0.0004485018434934318
704.0,-0.0011648089857771993
768.0,-0.0006943854386918247
832.0,0.00035197785473428667
896.0,0.001602394855581224
960.0,0.0005387119599618018
1024.0,0.0009376183152198792
1152.0,0.0006251411978155375
1280.0,-4.095286931260489e-05
1408.0,-0.001742732711136341
1536.0,-0.0009190209675580263
1664.0,0.0004962983075529337
1792.0,0.0001340089802397415
1920.0,0.0005566552863456309
2048.0,0.0009311574976891279
2304.0,-0.00013684510486200452
2560.0,-0.0008943089633248746
2816.0,-0.0003069800150115043
3072.0,-0.0004198473470751196
3328.0,-0.0006775165093131363
3584.0,-0.0002534960221964866
3840.0,0.0002638745354488492
4096.0,0.00042891025077551603
4608.0,0.0002249920944450423
5120.0,0.00017276211292482913
5632.0,0.000186384713742882
6144.0,0.0003203399246558547
6656.0,-3.085229036514647e-05
7168.0,-0.0002700755139812827
7680.0,-0.0004003597132395953
8192.0,6.246160774026066e-05
9216.0,-0.0001730911899358034
10240.0,0.00016260100528597832
11264.0,-0.0004317917919252068
12288.0,0.00015495069965254515
13312.0,-0.00042064511217176914
14336.0,0.0013369916705414653
end
