version,3.0
numOfCh,1
type,point
parent_name,200-cuts
ch_type,1_1
kcount,1
numberNandB,1
brightnessNandB,1
carpet pos,0
pc,0
Time (ms),CH1 Auto-Correlation
1.0,0.042329028248786926
2.0,0.03870599344372749
3.0,0.03551666438579559
4.0,0.0327582024037838
5.0,0.03038717433810234
6.0,0.028308244422078133
7.0,0.02656225860118866
8.0,0.024891790002584457
9.0,0.02340252883732319
10.0,0.02207302860915661
11.0,0.02088223211467266
12.0,0.019725369289517403
13.0,0.018684860318899155
14.0,0.017805520445108414
15.0,0.016947299242019653
16.0,0.016244107857346535
18.0,0.014986855909228325
20.0,0.013905690051615238
22.0,0.012998529709875584
24.0,0.012136575765907764
26.0,0.011210959404706955
28.0,0.010366915725171566
30.0,0.009756982326507568
32.0,0.009139527566730976
36.0,0.008201642893254757
40.0,0.0076364330016076565
44.0,0.006910071708261967
48.0,0.006232683081179857
52.0,0.005578178446739912
56.0,0.00486108660697937
60.0,0.004542896989732981
64.0,0.004588549956679344
72.0,0.004117492586374283
80.0,0.00395571906119585
88.0,0.0030975565314292908
96.0,0.0022687416058033705
104.0,0.0020385757088661194
112.0,0.0014621565351262689
120.0,0.0012042043963447213
128.0,0.0008403660613112152
144.0,0.0007330499356612563
160.0,0.0009826812893152237
176.0,0.0008846360142342746
192.0,0.0008065687143243849
208.0,0.0002754282613750547
224.0,-0.0012743902625516057
240.0,-0.0014488581800833344
256.0,-0.0006781949196010828
288.0,-0.0018777505028992891
320.0,-0.0013101545628160238
352.0,0.000594179320614785
384.0,0.0009268330177292228
416.0,-5.613749453914352e-05
448.0,-0.00013515082537196577
480.0,2.807398050208576e-05
512.0,0.00026678864378482103
576.0,0.000799025350715965
640.0,-0.0014029014855623245
704.0,-0.0008318707696162164
768.0,0.0009311243193224072
832.0,0.00015697981871198863
896.0,0.0004541923990473151
960.0,-0.000517092237714678
1024.0,-0.0004549419682007283
1152.0,-9.430683712707832e-05
1280.0,0.000629992107860744
1408.0,-0.00035998952807858586
1536.0,-0.0012946835486218333
1664.0,-0.002458680886775255
1792.0,-0.0013008167734369636
1920.0,-0.00027130948728881776
2048.0,0.0008036357467062771
2304.0,-0.0008018849766813219
2560.0,0.0007920899079181254
2816.0,0.0004830315010622144
3072.0,-0.00020234400290064514
3328.0,-0.0005876348004676402
3584.0,0.00016182225954253227
3840.0,-0.0010869750985875726
4096.0,-0.001265079714357853
4608.0,0.0009914296679198742
5120.0,-0.0011599891586229205
5632.0,0.0010658666724339128
6144.0,-0.0007872502319514751
6656.0,-0.0007477959152311087
7168.0,-0.0007286960608325899
7680.0,-7.865146471885964e-05
8192.0,0.0016844518249854445
9216.0,0.0003351086052134633
10240.0,0.0008958094986155629
11264.0,0.00041629059705883265
12288.0,-0.00033051680657081306
13312.0,-0.0004228757752571255
14336.0,-0.0008177128038369119
end
