version,3.0
numOfCh,1
type,point
parent_name,200-cuts
ch_type,1_1
kcount,1
numberNandB,1
brightnessNandB,1
carpet pos,0
pc,0
Time (ms),CH1 Auto-Correlation
1.0,0.044188663363456726
2.0,0.040352270007133484
3.0,0.03699691593647003
4.0,0.03413698077201843
5.0,0.03160858899354935
6.0,0.029274240136146545
7.0,0.02717629075050354
8.0,0.02524867095053196
9.0,0.023542320355772972
10.0,0.021977227181196213
11.0,0.020577356219291687
12.0,0.01939839869737625
13.0,0.018292704597115517
14.0,0.01717197149991989
15.0,0.016190344467759132
16.0,0.015396993607282639
18.0,0.01399590540677309
20.0,0.012730567716062069
22.0,0.011678828857839108
24.0,0.010648497380316257
26.0,0.009805451147258282
28.0,0.00880653690546751
30.0,0.007909313775599003
32.0,0.007099042180925608
36.0,0.006080498453229666
40.0,0.005250008776783943
44.0,0.003918814472854137
48.0,0.002760828472673893
52.0,0.002651836955919862
56.0,0.002732338849455118
60.0,0.0024242913350462914
64.0,0.0023558326065540314
72.0,0.0019534716848284006
80.0,0.0009506333735771477
88.0,0.000253760430496186
96.0,-2.019447674683761e-05
104.0,9.67512241913937e-05
112.0,0.00031939122709445655
120.0,1.2341342880972661e-05
128.0,-0.0007572132744826376
144.0,-0.00014873994223307818
160.0,-0.00021451617067214102
176.0,0.0017989740008488297
192.0,0.0012535621644929051
208.0,0.00030350396991707385
224.0,7.3645810516609345e-06
240.0,-0.00011866472050314769
256.0,-0.0007177499937824905
288.0,-0.0004056381294503808
320.0,-0.0007667927420698106
352.0,-0.0007741920417174697
384.0,-0.0026774548459798098
416.0,-0.00261122127994895
448.0,-0.0013153593754395843
480.0,-0.0006822338909842074
512.0,-0.0012061710003763437
576.0,-0.0009964217897504568
640.0,-0.001863876823335886
704.0,4.7820223699091e-05
768.0,0.0004606485308613628
832.0,7.051991701700899e-07
896.0,1.6267731552943587e-05
960.0,0.0023841613437980413
1024.0,0.002306286245584488
1152.0,-0.000136476824991405
1280.0,0.0001951837766682729
1408.0,-0.0012194887967780232
1536.0,-0.00028376662521623075
1664.0,-0.0023846880067139864
1792.0,0.00021953189570922405
1920.0,-0.0017229116056114435
2048.0,0.001585167832672596
2304.0,-0.0001492970623075962
2560.0,-0.0007672924548387527
2816.0,-0.0001317304268013686
3072.0,0.0011281025363132358
3328.0,-6.780398689443246e-05
3584.0,-0.001758288242854178
3840.0,0.00038328347727656364
4096.0,0.0011838740902021527
4608.0,-0.0007558746729046106
5120.0,-0.00018077332060784101
5632.0,-0.00020689638040494174
6144.0,0.0003611671272665262
6656.0,0.0002360248181503266
7168.0,0.00031878723530098796
7680.0,3.832091897493228e-05
8192.0,-0.0009804809233173728
9216.0,7.936908332339954e-06
10240.0,-0.00033627296215854585
11264.0,0.0001769374794093892
12288.0,-0.000995695241726935
13312.0,1.6688167306710966e-05
14336.0,0.0014315680600702763
end
