version,3.0
numOfCh,1
type,point
parent_name,200-cuts
ch_type,1_1
kcount,1
numberNandB,1
brightnessNandB,1
carpet pos,0
pc,0
Time (ms),CH1 Auto-Correlation
1.0,0.02751978114247322
2.0,0.025148844346404076
3.0,0.023127300664782524
4.0,0.021322695538401604
5.0,0.019775113090872765
6.0,0.018406279385089874
7.0,0.017254754900932312
8.0,0.01617516204714775
9.0,0.01520631369203329
10.0,0.014269718900322914
11.0,0.013442669063806534
12.0,0.012723841704428196
13.0,0.012028928846120834
14.0,0.01141626387834549
15.0,0.010850338265299797
16.0,0.010408887639641762
18.0,0.009551326744258404
20.0,0.00873845536261797
22.0,0.008033799938857555
24.0,0.007461323402822018
26.0,0.006953689269721508
28.0,0.006429052446037531
30.0,0.006021905690431595
32.0,0.005635937675833702
36.0,0.004935462027788162
40.0,0.004482175223529339
44.0,0.004123489838093519
48.0,0.003931000828742981
52.0,0.0036514592356979847
56.0,0.0032639987766742706
60.0,0.0029995667282491922
64.0,0.0029242117889225483
72.0,0.002615781268104911
80.0,0.0021286101546138525
88.0,0.0016093978192657232
96.0,0.0012928331270813942
104.0,0.0013309067580848932
112.0,0.0013231919147074223
120.0,0.0015072869136929512
128.0,0.0016960386419668794
144.0,0.001733065932057798
160.0,0.0009501709137111902
176.0,0.00016673259960953146
192.0,0.00034771987702697515
208.0,0.00015287840506061912
224.0,4.29803149017971e-05
240.0,4.753489338327199e-05
256.0,-0.0001853765279520303
288.0,-0.0004893424920737743
320.0,-0.00045289628906175494
352.0,-0.0002965490275528282
384.0,-0.0008235148852691054
416.0,-0.0010696040699258447
448.0,-0.001078133936971426
480.0,-0.0006871485966257751
512.0,-3.0843180866213515e-05
576.0,0.0007466379902325571
640.0,0.0013673556968569756
704.0,0.0005143647431395948
768.0,0.00013177559594623744
832.0,0.0007002074853517115
896.0,9.038104326464236e-05
960.0,-0.0005705892690457404
1024.0,-0.0004620529362000525
1152.0,-0.00030306694679893553
1280.0,0.0005260314792394638
1408.0,-0.00024624867364764214
1536.0,0.00019585847621783614
1664.0,-6.616302562179044e-05
1792.0,0.0003488668298814446
1920.0,-0.0004566220741253346
2048.0,-0.00016560719814151525
2304.0,0.00025840222951956093
2560.0,-0.0005869307206012309
2816.0,-0.0008732150308787823
3072.0,0.00035322856274433434
3328.0,7.631953735653951e-07
3584.0,-0.000961584853939712
3840.0,-0.0004281204310245812
4096.0,-0.00021567221847362816
4608.0,-0.001023977529257536
5120.0,-0.0007795224082656205
5632.0,0.00021844780712854117
6144.0,0.0006290206802077591
6656.0,0.00012591447739396244
7168.0,7.817242476448882e-06
7680.0,0.00016512523870915174
8192.0,5.95804194745142e-05
9216.0,0.0002896504302043468
10240.0,0.0002675181603990495
11264.0,-0.0001944911346072331
12288.0,0.00029279524460434914
13312.0,-0.0009199406486004591
14336.0,0.00016436929581686854
end
