version,3.0
numOfCh,1
type,point
parent_name,200-cuts
ch_type,1_1
kcount,1
numberNandB,1
brightnessNandB,1
carpet pos,0
pc,0
Time (ms),CH1 Auto-Correlation
1.0,0.09540759772062302
2.0,0.08724755048751831
3.0,0.08006460219621658
4.0,0.0740155577659607
5.0,0.06863538920879364
6.0,0.06365001201629639
7.0,0.059252072125673294
8.0,0.05540941655635834
9.0,0.05205557867884636
10.0,0.04915760084986687
11.0,0.04650808498263359
12.0,0.043935272842645645
13.0,0.041357193142175674
14.0,0.03884948790073395
15.0,0.03675367310643196
16.0,0.03475574031472206
18.0,0.031009605154395103
20.0,0.027684716507792473
22.0,0.024390097707509995
24.0,0.021547766402363777
26.0,0.019114697352051735
28.0,0.016884084790945053
30.0,0.015075628645718098
32.0,0.013621405698359013
36.0,0.011181412264704704
40.0,0.009969791397452354
44.0,0.008898491971194744
48.0,0.008960910141468048
52.0,0.009238735772669315
56.0,0.008410374633967876
60.0,0.0062970733270049095
64.0,0.0047348602674901485
72.0,0.0040826452895998955
80.0,0.004157775081694126
88.0,0.003993638325482607
96.0,0.005196182988584042
104.0,0.005053046625107527
112.0,0.004679104313254356
120.0,0.002368275774642825
128.0,0.0006808247417211533
144.0,-0.0013476586900651455
160.0,-0.002535563660785556
176.0,-0.003219944890588522
192.0,-0.0005686829099431634
208.0,-0.0011986114550381899
224.0,0.00023980916012078524
240.0,0.0029734731651842594
256.0,0.002758461982011795
288.0,-0.0005963796866126359
320.0,-0.0027301416266709566
352.0,-0.0005898183444514871
384.0,0.0014565251767635345
416.0,0.0005905511206947267
448.0,-0.003351695602759719
480.0,-0.002739434130489826
512.0,-0.0014243248151615262
576.0,0.0001464349334128201
640.0,-0.0029449090361595154
704.0,2.3751252228976227e-05
768.0,-0.0013255372177809477
832.0,-0.0005601069424301386
896.0,0.0006419219425879419
960.0,-0.0024586159270256758
1024.0,-0.005574626848101616
1152.0,-0.0008356848265975714
1280.0,0.0022385595366358757
1408.0,0.0024208063259720802
1536.0,0.0019736401736736298
1664.0,-0.0005560839781537652
1792.0,-0.00042072011274285614
1920.0,-0.0024316792842000723
2048.0,-0.0007862977217882872
2304.0,-0.004427795298397541
2560.0,0.0010224783327430487
2816.0,-0.00010486312385182828
3072.0,-0.0008021289831958711
3328.0,0.004042039625346661
3584.0,-0.0023257036227732897
3840.0,-0.0013754925457760692
4096.0,0.0008141600410453975
4608.0,0.0006729615852236748
5120.0,-0.001372421276755631
5632.0,-0.0014972820645198226
6144.0,0.000493564351927489
6656.0,0.0009257057099603117
7168.0,-0.0009440211579203606
7680.0,0.0006788572063669562
8192.0,0.002831436228007078
9216.0,-9.089541708817706e-05
10240.0,0.0007444291841238737
11264.0,-0.000865460024215281
12288.0,9.89652398857288e-05
13312.0,-0.0009638740448281169
14336.0,0.0011037766234949231
end
