version,3.0
numOfCh,1
type,point
parent_name,200-cuts
ch_type,1_1
kcount,1
numberNandB,1
brightnessNandB,1
carpet pos,0
pc,0
Time (ms),CH1 Auto-Correlation
1.0,0.02711542323231697
2.0,0.024689197540283203
3.0,0.02255271188914776
4.0,0.02070450410246849
5.0,0.019064417108893394
6.0,0.017594918608665466
7.0,0.016313480213284492
8.0,0.015184520743787289
9.0,0.014097788371145725
10.0,0.013202818110585213
11.0,0.01233693491667509
12.0,0.011550867930054665
13.0,0.01084231585264206
14.0,0.010155944153666496
15.0,0.009592716582119465
16.0,0.008982625789940357
18.0,0.007926885038614273
20.0,0.007191662676632404
22.0,0.0064881411381065845
24.0,0.0057531800121068954
26.0,0.005047156009823084
28.0,0.004411185160279274
30.0,0.0039769746363162994
32.0,0.003781599923968315
36.0,0.003328656079247594
40.0,0.002733879256993532
44.0,0.001961208414286375
48.0,0.0012173710856586695
52.0,0.0008203659672290087
56.0,0.0005762874498032033
60.0,0.00027741407393477857
64.0,0.00010833376290975139
72.0,0.00024472750374116004
80.0,-0.00014917277439963073
88.0,-0.00025243873824365437
96.0,0.00041912548476830125
104.0,0.0010230359621345997
112.0,0.0014575986424461007
120.0,0.0013601555256173015
128.0,0.0012512862449511886
144.0,0.0009304894483648241
160.0,-0.00015382227138616145
176.0,-0.0007623005076311529
192.0,-0.0015043801395222545
208.0,-0.0010740529978647828
224.0,7.021214696578681e-05
240.0,-0.00034037436125800014
256.0,-0.0005710147088393569
288.0,-0.0001362808543490246
320.0,-0.0005990136414766312
352.0,-0.000946377229411155
384.0,-8.783285011304542e-06
416.0,-6.1707996792392805e-06
448.0,0.00022759051353204995
480.0,-9.0466121037025e-05
512.0,-0.00013235467486083508
576.0,7.694344822084531e-05
640.0,-0.0006970627582632005
704.0,-0.0007492860895581543
768.0,-0.00040380610153079033
832.0,-0.0007761225569993258
896.0,-3.992020356236026e-05
960.0,0.001332531333900988
1024.0,0.0011064657010138035
1152.0,0.00042130707879550755
1280.0,0.0001517073396826163
1408.0,-0.0009316634386777878
1536.0,-0.0007326506893150508
1664.0,-0.00026875935145653784
1792.0,-0.0005795474862679839
1920.0,-0.00013629032764583826
2048.0,-0.00020067785226274282
2304.0,-2.8025053325109184e-05
2560.0,-3.1648523872718215e-05
2816.0,-0.00040873137186281383
3072.0,0.00017450182349421084
3328.0,0.0001584463461767882
3584.0,0.000709211453795433
3840.0,-0.0006573227583430707
4096.0,0.00019079938647337258
4608.0,-0.00011848352733068168
5120.0,-0.0005932477070018649
5632.0,0.0005619646981358528
6144.0,-0.0005880264798179269
6656.0,0.001025709556415677
7168.0,-0.0007073229644447565
7680.0,0.00017461462994106114
8192.0,-0.0004383730120025575
9216.0,0.00033160499879159033
10240.0,-0.00012399490515235811
11264.0,-0.00016587329446338117
12288.0,0.00023743597557768226
13312.0,2.6510544557822868e-05
14336.0,-0.0002651576651260257
end
