version,3.0
numOfCh,1
type,point
parent_name,200-cuts
ch_type,1_1
kcount,1
numberNandB,1
brightnessNandB,1
carpet pos,0
pc,0
Time (ms),CH1 Auto-Correlation
1.0,0.04287567734718323
2.0,0.03914519399404526
3.0,0.03588420897722244
4.0,0.03301458805799484
5.0,0.03052089549601078
6.0,0.028428805992007256
7.0,0.02648404985666275
8.0,0.024746401235461235
9.0,0.02320609986782074
10.0,0.021774355322122574
11.0,0.020472602918744087
12.0,0.01934477873146534
13.0,0.018399404361844063
14.0,0.017534444108605385
15.0,0.016743803396821022
16.0,0.015851639211177826
18.0,0.01453439611941576
20.0,0.013300699181854725
22.0,0.012210473418235779
24.0,0.011452949605882168
26.0,0.01081093866378069
28.0,0.00994779635220766
30.0,0.00912167876958847
32.0,0.00844625011086464
36.0,0.007468816824257374
40.0,0.006803683936595917
44.0,0.006312096957117319
48.0,0.0053637390956282616
52.0,0.004262461792677641
56.0,0.0036069550551474094
60.0,0.0035693503450602293
64.0,0.0037034619599580765
72.0,0.003826444037258625
80.0,0.003820828627794981
88.0,0.0034820225555449724
96.0,0.002636533696204424
104.0,0.0015911422669887543
112.0,0.0011304776417091489
120.0,0.001100681722164154
128.0,0.0012108769733458757
144.0,0.0017526871524751186
160.0,0.0022492792923003435
176.0,0.00125362747348845
192.0,0.00015089545922819525
208.0,-0.0010145235573872924
224.0,-0.0012630262644961476
240.0,-0.000624277803581208
256.0,-0.0007943942327983677
288.0,-0.00044532096944749355
320.0,-0.0003480627201497555
352.0,-0.00030494207749143243
384.0,-0.00017302704509347677
416.0,0.0010746837360784411
448.0,0.0001342528994427994
480.0,0.00018084890325553715
512.0,0.00044194734073244035
576.0,-0.0008221252355724573
640.0,0.0003640873765107244
704.0,0.0010057061444967985
768.0,-0.00018508645007386804
832.0,0.0010077216429635882
896.0,0.0008777692564763129
960.0,0.0008799168863333762
1024.0,0.00032301113242283463
1152.0,-0.0003726550785358995
1280.0,-2.6471298042451963e-06
1408.0,0.0004709542845375836
1536.0,-0.0009665353572927415
1664.0,-0.0011363514931872487
1792.0,0.0012627628166228533
1920.0,0.00033390920725651085
2048.0,-0.0008575209067203104
2304.0,-0.0008214216795749962
2560.0,0.0008838695357553661
2816.0,-0.0016508891712874174
3072.0,-0.00037464164779521525
3328.0,-0.0014300961047410965
3584.0,-0.00023967762535903603
3840.0,-0.000653051130939275
4096.0,0.000399657292291522
4608.0,-0.0017545681912451982
5120.0,0.0004903930821456015
5632.0,-0.0016166309360414743
6144.0,0.0006672177696600556
6656.0,0.000778463261667639
7168.0,-0.001141281914897263
7680.0,9.795820369618014e-05
8192.0,-0.000348891771864146
9216.0,0.0011196555569767952
10240.0,0.00012036989937769249
11264.0,-0.00028264897991903126
12288.0,4.009696567663923e-06
13312.0,0.0007991968304850161
14336.0,-0.0008138014236465096
end
