version,3.0
numOfCh,1
type,point
parent_name,200-cuts
ch_type,1_1
kcount,1
numberNandB,1
brightnessNandB,1
carpet pos,0
pc,0
Time (ms),CH1 Auto-Correlation
1.0,0.0266371201723814
2.0,0.02423771284520626
3.0,0.02223227359354496
4.0,0.02052874118089676
5.0,0.01905004307627678
6.0,0.01771865040063858
7.0,0.01652885042130947
8.0,0.015453831292688847
9.0,0.014528063125908375
10.0,0.013626119121909142
11.0,0.012746317312121391
12.0,0.011971571482717991
13.0,0.011217867955565453
14.0,0.01054421067237854
15.0,0.00999433733522892
16.0,0.009457514621317387
18.0,0.008480345830321312
20.0,0.007742955349385738
22.0,0.00711843790486455
24.0,0.006565286312252283
26.0,0.006074731238186359
28.0,0.005600889679044485
30.0,0.005183258093893528
32.0,0.0048108939081430435
36.0,0.004281373228877783
40.0,0.0037811859510838985
44.0,0.0031577853951603174
48.0,0.0026038424111902714
52.0,0.0021114498376846313
56.0,0.0015646182000637054
60.0,0.0013256032252684236
64.0,0.00114338006824255
72.0,0.0009461777517572045
80.0,0.0008670291281305254
88.0,0.0005452936165966094
96.0,0.0006326304282993078
104.0,0.0005529755726456642
112.0,-0.00025590890436433256
120.0,-0.0007140153320506215
128.0,-0.0009006924228742719
144.0,-0.0011326270177960396
160.0,-0.0011477371444925666
176.0,-0.0006351461634039879
192.0,-0.0001440040214220062
208.0,-0.000161526128067635
224.0,0.000561125052627176
240.0,0.0009712294558994472
256.0,0.0005020138924010098
288.0,0.0005486705922521651
320.0,0.0008074821089394391
352.0,0.0004986333660781384
384.0,-0.00015265769616235048
416.0,4.207204619888216e-05
448.0,-0.001024475321173668
480.0,-0.00047880844795145094
512.0,-0.0009737240034155548
576.0,-0.0014853712636977434
640.0,-0.0009316415525972843
704.0,-3.739249586942606e-05
768.0,3.681354655782343e-06
832.0,-0.0005665008211508393
896.0,0.00012205165694467723
960.0,0.0005200145533308387
1024.0,0.00011875836207764223
1152.0,0.0003169312549289316
1280.0,5.295591472531669e-05
1408.0,-5.1243536290712655e-05
1536.0,0.0009319477831013501
1664.0,0.0009657584014348686
1792.0,0.0004640483530238271
1920.0,-0.00043147546239197254
2048.0,-1.1094254659838043e-05
2304.0,5.2053055696887895e-05
2560.0,-9.450330981053412e-05
2816.0,-0.00041433918522670865
3072.0,0.00045409539598040283
3328.0,0.0004272136138752103
3584.0,7.21949982107617e-05
3840.0,9.958900773199275e-05
4096.0,0.0005202801548875868
4608.0,-0.0004138021031394601
5120.0,0.0002707253152038902
5632.0,0.0001126131319324486
6144.0,-0.0002915595832746476
6656.0,-0.00019670541223604232
7168.0,0.00013980770017951727
7680.0,-0.0004043943772558123
8192.0,-0.0005119069246575236
9216.0,-2.9701486710109748e-05
10240.0,-9.08737420104444e-05
11264.0,-0.00039847163134254515
12288.0,8.564320887671784e-05
13312.0,-0.00017767830286175013
14336.0,-0.0007583909900858998
end
