version,3.0
numOfCh,1
type,point
parent_name,200-cuts
ch_type,1_1
kcount,1
numberNandB,1
brightnessNandB,1
carpet pos,0
pc,0
Time (ms),CH1 Auto-Correlation
1.0,0.04089740663766861
2.0,0.03723231330513954
3.0,0.03412054851651192
4.0,0.03139261528849602
5.0,0.029135812073946
6.0,0.02715049497783184
7.0,0.025308363139629364
8.0,0.023642487823963165
9.0,0.02209673821926117
10.0,0.020763080567121506
11.0,0.01959075964987278
12.0,0.01846342161297798
13.0,0.01743384450674057
14.0,0.01642509736120701
15.0,0.015474459156394005
16.0,0.014598854817450047
18.0,0.013014833442866802
20.0,0.011704562231898308
22.0,0.01048342976719141
24.0,0.009287082590162754
26.0,0.008186010643839836
28.0,0.007233358919620514
30.0,0.0062627485021948814
32.0,0.005507639609277248
36.0,0.004230665508657694
40.0,0.003707473399117589
44.0,0.002930986462160945
48.0,0.0020371577702462673
52.0,0.0013203901471570134
56.0,0.0011820249492302537
60.0,0.0010450466070324183
64.0,0.0008854179177433252
72.0,-6.98360196338399e-08
80.0,-8.649640221847221e-05
88.0,3.886419290211052e-05
96.0,-0.00016245692677330226
104.0,-0.0005776946200057864
112.0,-0.0003900491865351796
120.0,-0.0003734913480002433
128.0,-0.0010749477660283446
144.0,-0.0011520320549607277
160.0,-0.0005199804436415434
176.0,0.0007642176933586597
192.0,0.0018978790612891316
208.0,0.00024818084784783423
224.0,-0.00039680470945313573
240.0,-0.0018856208771467209
256.0,-0.00354955205693841
288.0,-0.001682973001152277
320.0,0.0006843641167506576
352.0,0.0011482653208076954
384.0,2.7266740289633162e-05
416.0,2.4257560653495602e-05
448.0,-0.001278037205338478
480.0,-0.0013636203948408365
512.0,-0.0005973462830297649
576.0,-0.001782163162715733
640.0,-0.000339352001901716
704.0,0.0007913508452475071
768.0,0.0012924207840114832
832.0,0.0008336002356372774
896.0,-0.00043008787906728685
960.0,0.00010283359733875841
1024.0,0.0010978284990414977
1152.0,0.001136444741860032
1280.0,-0.0016496545867994428
1408.0,0.0003137029125355184
1536.0,-0.0009138266323134303
1664.0,-0.00017204797768499702
1792.0,0.0017145293531939387
1920.0,0.0007776420679874718
2048.0,-0.00024365824356209487
2304.0,-0.000523637980222702
2560.0,-0.0007609319291077554
2816.0,0.00031396461417898536
3072.0,-0.00022415029525291175
3328.0,0.0006180070922710001
3584.0,0.000937064818572253
3840.0,0.0002623966138344258
4096.0,0.00017474466585554183
4608.0,-0.00021834677318111062
5120.0,0.0006449641659855843
5632.0,-0.0006432244554162025
6144.0,-4.364248525234871e-06
6656.0,-0.0001402897178195417
7168.0,0.0005052890628576279
7680.0,-0.0004144676495343447
8192.0,0.00015138162416405976
9216.0,-0.000421124801505357
10240.0,-0.00015711186279077083
11264.0,-0.00042856772779487073
12288.0,-0.0001733551180223003
13312.0,-0.0007824107888154685
14336.0,-0.0015398055547848344
end
