version,3.0
numOfCh,1
type,point
parent_name,200-cuts
ch_type,1_1
kcount,1
numberNandB,1
brightnessNandB,1
carpet pos,0
pc,0
Time (ms),CH1 Auto-Correlation
1.0,0.027544930577278137
2.0,0.02514846995472908
3.0,0.0231330506503582
4.0,0.021334048360586166
5.0,0.019731057807803154
6.0,0.018433328717947006
7.0,0.017380792647600174
8.0,0.01644909381866455
9.0,0.01562977023422718
10.0,0.014850789681077003
11.0,0.014107100665569305
12.0,0.013459622859954834
13.0,0.012742478400468826
14.0,0.012048094533383846
15.0,0.011392999440431595
16.0,0.010773335583508015
18.0,0.009691976942121983
20.0,0.00877070426940918
22.0,0.007934165187180042
24.0,0.007257787510752678
26.0,0.006671181879937649
28.0,0.0059905084781348705
30.0,0.005446169525384903
32.0,0.005023306235671043
36.0,0.004394880961626768
40.0,0.0036717236507683992
44.0,0.0030923192389309406
48.0,0.002852505538612604
52.0,0.002365478780120611
56.0,0.0018001330317929387
60.0,0.0013048110995441675
64.0,0.0010489348787814379
72.0,0.0005229100352153182
80.0,0.0005186877097003162
88.0,0.0007214946090243757
96.0,0.00028167906566523015
104.0,-3.479904989944771e-05
112.0,3.5052526072831824e-05
120.0,-1.7889306036522612e-05
128.0,-0.0003361595736350864
144.0,-0.00037131516728550196
160.0,-0.0003305768477730453
176.0,-8.178150892490521e-05
192.0,0.0006724557024426758
208.0,0.00047060352517291903
224.0,-0.0002573488454800099
240.0,7.211772026494145e-05
256.0,0.0006096703000366688
288.0,0.0009246254339814186
320.0,0.0007038813782855868
352.0,-0.00047872032155282795
384.0,-0.0008425056585110724
416.0,-0.0010612724581733346
448.0,-0.00017922792176250368
480.0,0.0011510250624269247
512.0,0.0019154554465785623
576.0,5.020763273932971e-05
640.0,-0.0011630298104137182
704.0,-0.0004927509580738842
768.0,0.00024272433074656874
832.0,0.0006922525353729725
896.0,-0.000399592739995569
960.0,0.0002844562113750726
1024.0,-0.0004022174689453095
1152.0,-0.0009025729377754033
1280.0,0.0003087198711000383
1408.0,-0.0003499103186186403
1536.0,5.0637761887628585e-05
1664.0,-0.0011753542348742485
1792.0,0.0005206533242017031
1920.0,-0.000989199965260923
2048.0,0.0006693899631500244
2304.0,0.0008799923816695809
2560.0,-0.0003197738842573017
2816.0,-4.248448021826334e-05
3072.0,-0.000418142561102286
3328.0,-0.0009486700873821974
3584.0,-0.00010874115832848474
3840.0,-0.00017938630480784923
4096.0,-0.00011379540956113487
4608.0,0.0005533131770789623
5120.0,9.375213994644582e-05
5632.0,0.00028721647686325014
6144.0,8.512550266459584e-05
6656.0,0.0005907296435907483
7168.0,-5.431280078482814e-05
7680.0,-0.00018830958288162947
8192.0,-0.0005517852259799838
9216.0,-0.0001341841707471758
10240.0,-0.0002027564769377932
11264.0,0.000745182391256094
12288.0,0.00017870204464998096
13312.0,-0.0007787624490447342
14336.0,-0.0006308002048172057
end
