version,3.0
numOfCh,1
type,point
parent_name,200-cuts
ch_type,1_1
kcount,1
numberNandB,1
brightnessNandB,1
carpet pos,0
pc,0
Time (ms),CH1 Auto-Correlation
1.0,0.026284154504537582
2.0,0.023844141513109207
3.0,0.021774666383862495
4.0,0.019994745030999184
5.0,0.018390661105513573
6.0,0.017017632722854614
7.0,0.015830375254154205
8.0,0.01468994002789259
9.0,0.013682350516319275
10.0,0.012717409990727901
11.0,0.011836743913590908
12.0,0.011035301722586155
13.0,0.010321969166398048
14.0,0.009663664735853672
15.0,0.009103910066187382
16.0,0.008601049892604351
18.0,0.0078011550940573215
20.0,0.007113057188689709
22.0,0.006554141640663147
24.0,0.00600083963945508
26.0,0.005430093500763178
28.0,0.004930300638079643
30.0,0.004366036970168352
32.0,0.003772233845666051
36.0,0.0033482275903224945
40.0,0.002903297543525696
44.0,0.0024613630957901478
48.0,0.0021300443913787603
52.0,0.0017241877503693104
56.0,0.0014380512293428183
60.0,0.0009839177364483476
64.0,0.0007539648795500398
72.0,-1.811846777854953e-05
80.0,-0.0003186855174135417
88.0,0.000283292552921921
96.0,0.0002542445727158338
104.0,0.0006217209156602621
112.0,0.0010656793601810932
120.0,0.0011692446423694491
128.0,0.0012109605595469475
144.0,-4.142590842093341e-05
160.0,-0.00042216925066895783
176.0,0.00033704828820191324
192.0,0.0003600759955588728
208.0,-7.188141353253741e-06
224.0,-0.000488920253701508
240.0,-0.0006902015884406865
256.0,-0.00012222699297126383
288.0,0.00023772873100824654
320.0,0.0007988486904650927
352.0,2.9062797693768516e-05
384.0,0.0003841867728624493
416.0,0.0010095993056893349
448.0,0.0011196802370250225
480.0,-0.0003763856366276741
512.0,0.000386527186492458
576.0,0.0004968888824805617
640.0,-5.7324414228787646e-05
704.0,0.00027130419039167464
768.0,-0.00046479981392621994
832.0,-0.0006662407540716231
896.0,-0.0009633140871301293
960.0,-0.0010398628655821085
1024.0,-0.0008659782470203936
1152.0,-0.00047705136239528656
1280.0,4.810869540960994e-06
1408.0,-0.0010112562449648976
1536.0,-0.0006198115297593176
1664.0,0.00020906850113533437
1792.0,7.002726761129452e-06
1920.0,0.0004998431541025639
2048.0,-0.0005179354338906705
2304.0,0.0001929276913870126
2560.0,9.440938447369263e-05
2816.0,-0.0001099133151001297
3072.0,-0.000362906139343977
3328.0,-0.0007313097594305873
3584.0,0.0002059186081169173
3840.0,0.00023334522848017514
4096.0,0.0002950376074295491
4608.0,0.00016312212392222136
5120.0,-0.0006165902013890445
5632.0,-0.0005463224952109158
6144.0,-2.396787931502331e-05
6656.0,0.0007587757427245378
7168.0,0.0004188705643173307
7680.0,-0.0004210770421195775
8192.0,-0.00017194690008182079
9216.0,-3.318952440167777e-05
10240.0,-0.0003087094519287348
11264.0,0.0003164553490933031
12288.0,-6.845589814474806e-05
13312.0,-0.00022696958330925554
14336.0,0.0002940777048934251
end
