version,3.0
numOfCh,1
type,point
parent_name,200-cuts
ch_type,1_1
kcount,1
numberNandB,1
brightnessNandB,1
carpet pos,0
pc,0
Time (ms),CH1 Auto-Correlation
1.0,0.0397416427731514
2.0,0.03608674928545952
3.0,0.03295130282640457
4.0,0.030330603942275047
5.0,0.028083452954888344
6.0,0.026101531460881233
7.0,0.024290425702929497
8.0,0.02271244116127491
9.0,0.021276548504829407
10.0,0.019942374899983406
11.0,0.01876571960747242
12.0,0.017753077670931816
13.0,0.016781305894255638
14.0,0.01588362082839012
15.0,0.01503468956798315
16.0,0.014305922202765942
18.0,0.012983830645680428
20.0,0.011672871187329292
22.0,0.010593929328024387
24.0,0.009743324480950832
26.0,0.008729991503059864
28.0,0.007730099372565746
30.0,0.006804244592785835
32.0,0.006029162090271711
36.0,0.005020435433834791
40.0,0.004259816370904446
44.0,0.0033121327869594097
48.0,0.002598925493657589
52.0,0.002148955361917615
56.0,0.002066016662865877
60.0,0.001938091591000557
64.0,0.0014230378437787294
72.0,0.0011397709604352713
80.0,0.0006477943388745189
88.0,0.00012462236918509007
96.0,0.0001657393149798736
104.0,0.00042637650039978325
112.0,0.00029385447851382196
120.0,-0.00020522171689663082
128.0,-0.0006443469319492579
144.0,-0.00014246132923290133
160.0,-6.791069608880207e-05
176.0,0.0003142627829220146
192.0,0.0005164803005754948
208.0,0.000987446983344853
224.0,0.0008647780050523579
240.0,0.0011547098401933908
256.0,0.0019072534050792456
288.0,0.000887644593603909
320.0,-0.0002548177435528487
352.0,-0.0003951174148824066
384.0,-0.00038002317887730896
416.0,0.0008676121942698956
448.0,0.000961003708653152
480.0,0.001237094751559198
512.0,-0.0008042359258979559
576.0,-0.0005956274108029902
640.0,0.00016031107224989682
704.0,-0.0005835932679474354
768.0,0.00017338272300548851
832.0,-0.0005252955597825348
896.0,0.00024552346440032125
960.0,-0.0009804589208215475
1024.0,0.00027366445283405483
1152.0,0.0007701159920543432
1280.0,0.00011019594239769503
1408.0,0.0013004811480641365
1536.0,0.0006670905859209597
1664.0,0.00027496888651512563
1792.0,0.0007658511749468744
1920.0,-0.00028440539608709514
2048.0,-1.5490921214222908e-05
2304.0,0.0007323315949179232
2560.0,-0.00041364142089150846
2816.0,-4.0837392589310184e-05
3072.0,-0.001120394328609109
3328.0,-0.00022103387163951993
3584.0,0.00016663338465150446
3840.0,0.000273007492069155
4096.0,0.0004730907967314124
4608.0,-5.280051937006647e-06
5120.0,-0.000707947532646358
5632.0,-0.0008921065018512309
6144.0,0.00040207657730206847
6656.0,-0.0002308696275576949
7168.0,-0.0007171744364313781
7680.0,1.6111387594719417e-05
8192.0,0.00040990932029671967
9216.0,-0.00038805260555818677
10240.0,-0.0008656675345264375
11264.0,-0.00011934896610910073
12288.0,-0.00046959760948084295
13312.0,0.00019958832126576453
14336.0,0.0007080836803652346
end
