version,3.0
numOfCh,1
type,point
parent_name,200-cuts
ch_type,1_1
kcount,1
numberNandB,1
brightnessNandB,1
carpet pos,0
pc,0
Time (ms),CH1 Auto-Correlation
1.0,0.041479550302028656
2.0,0.03794249892234802
3.0,0.03496439754962921
4.0,0.032273609191179276
5.0,0.029964260756969452
6.0,0.027935804799199104
7.0,0.02604304440319538
8.0,0.02435597963631153
9.0,0.022942762821912766
10.0,0.021723482757806778
11.0,0.020627226680517197
12.0,0.019619503989815712
13.0,0.018781427294015884
14.0,0.018106883391737938
15.0,0.017549550160765648
16.0,0.016974803060293198
18.0,0.015996074303984642
20.0,0.01500021293759346
22.0,0.013950030319392681
24.0,0.012933330610394478
26.0,0.011819505132734776
28.0,0.010814910754561424
30.0,0.010043280199170113
32.0,0.009514314122498035
36.0,0.008503220975399017
40.0,0.007619403302669525
44.0,0.006630683783441782
48.0,0.005715788807719946
52.0,0.00536637706682086
56.0,0.005077893380075693
60.0,0.004652515985071659
64.0,0.004400918260216713
72.0,0.003720115637406707
80.0,0.0027187527157366276
88.0,0.0015675395261496305
96.0,0.0004895108286291361
104.0,-0.00016794790280982852
112.0,-0.00012317973596509546
120.0,-0.00010418046440463513
128.0,0.0005217662546783686
144.0,0.0012044530594721437
160.0,0.0008383519598282874
176.0,0.0008188067004084587
192.0,0.0003109281533397734
208.0,6.79732474964112e-05
224.0,0.00047226916649378836
240.0,0.001853884314186871
256.0,0.0018029471393674612
288.0,0.001445564441382885
320.0,0.0008918167441152036
352.0,-0.001240372657775879
384.0,-0.000965176965110004
416.0,-0.0021254285238683224
448.0,-0.0008267101948149502
480.0,0.00027673516888171434
512.0,0.0007588396547362208
576.0,-0.0009705565753392875
640.0,-0.001551772584207356
704.0,0.0003664962714537978
768.0,0.0011394319590181112
832.0,0.002043570391833782
896.0,0.00021268014097586274
960.0,-0.00011168864875799045
1024.0,0.00024682676303200424
1152.0,-0.0015486818738281727
1280.0,-0.00038643073639832437
1408.0,0.0010511331493034959
1536.0,-0.0012283959658816457
1664.0,-0.0010295073734596372
1792.0,0.0011939490213990211
1920.0,-8.725991210667416e-05
2048.0,-0.0010155517375096679
2304.0,-0.0006705279229208827
2560.0,4.409993198351003e-05
2816.0,0.0012651189463213086
3072.0,-0.0010583937400951982
3328.0,-0.001629976206459105
3584.0,-0.0009629968553781509
3840.0,0.00023137446260079741
4096.0,-0.00011667316721286625
4608.0,0.0008021499961614609
5120.0,-0.0001452810683986172
5632.0,-0.0008890878525562584
6144.0,-0.0007297670817933977
6656.0,-0.00039763140375725925
7168.0,0.0005573544185608625
7680.0,0.0007275407551787794
8192.0,0.0009047750500030816
9216.0,0.0006069979281164706
10240.0,-0.001381227746605873
11264.0,-0.0013603484258055687
12288.0,0.0016249052714556456
13312.0,0.0005022243713028729
14336.0,-0.0007448096293956041
end
