version,3.0
numOfCh,1
type,point
parent_name,200-cuts
ch_type,1_1
kcount,1
numberNandB,1
brightnessNandB,1
carpet pos,0
pc,0
Time (ms),CH1 Auto-Correlation
1.0,0.043497104197740555
2.0,0.03977714106440544
3.0,0.03664948791265488
4.0,0.033956024795770645
5.0,0.031533293426036835
6.0,0.029398811981081963
7.0,0.027469372376799583
8.0,0.02567942626774311
9.0,0.024038271978497505
10.0,0.022594371810555458
11.0,0.021353350952267647
12.0,0.02026316523551941
13.0,0.01921423338353634
14.0,0.0181968342512846
15.0,0.017253028228878975
16.0,0.01638120412826538
18.0,0.015110587701201439
20.0,0.014045411720871925
22.0,0.013118013739585876
24.0,0.01233057864010334
26.0,0.01164096500724554
28.0,0.01087877992540598
30.0,0.010112358257174492
32.0,0.009337745606899261
36.0,0.008090275339782238
40.0,0.006941669620573521
44.0,0.0062204827554523945
48.0,0.005912536755204201
52.0,0.005833686329424381
56.0,0.005152462050318718
60.0,0.0038109789602458477
64.0,0.0029938514344394207
72.0,0.0022509796544909477
80.0,0.0016076745232567191
88.0,0.0014011664316058159
96.0,0.0008751145796850324
104.0,-0.0003525980282574892
112.0,-0.0004827912780456245
120.0,-1.5963565829224535e-06
128.0,0.00016773147217463702
144.0,0.00019440999312791973
160.0,0.0015498731518164277
176.0,0.0016286467434838414
192.0,0.0018218207405880094
208.0,0.0024617938324809074
224.0,0.0025256327353417873
240.0,0.0007800952880643308
256.0,-0.0003676061751320958
288.0,-0.0012596370652318
320.0,-0.0016113535966724157
352.0,-0.0013102070661261678
384.0,-0.0012166898231953382
416.0,-0.00041151896584779024
448.0,0.0009257187484763563
480.0,0.0010018401080742478
512.0,0.0010262872092425823
576.0,0.0008282921044155955
640.0,0.0017245989292860031
704.0,0.0001445715024601668
768.0,0.0004758526338264346
832.0,0.0008918356033973396
896.0,0.000988838612101972
960.0,-0.0007940097711980343
1024.0,-0.002268583280965686
1152.0,-0.0009846067987382412
1280.0,-0.0014188067289069295
1408.0,-0.0005563895683735609
1536.0,-0.0009492880199104548
1664.0,0.0013147001154720783
1792.0,0.0008429369772784412
1920.0,-0.0015537840081378818
2048.0,-0.0012071244418621063
2304.0,0.00023315727594308555
2560.0,0.00017330718401353806
2816.0,-0.0003507060173433274
3072.0,-0.00043987802928313613
3328.0,0.00035109787131659687
3584.0,-0.00017059581296052784
3840.0,0.00033810516470111907
4096.0,-0.0010427228407934308
4608.0,-0.0013108279090374708
5120.0,-0.0005817851633764803
5632.0,-0.00010244092845823616
6144.0,0.0011827426496893167
6656.0,-0.0005409406730905175
7168.0,0.0013163788244128227
7680.0,-0.0005896635702811182
8192.0,-0.00018119599553756416
9216.0,0.0003697597421705723
10240.0,7.866603118600324e-05
11264.0,-0.000722317723557353
12288.0,0.0013912917347624898
13312.0,0.000497007742524147
14336.0,-0.0011999974958598614
end
