version,3.0
numOfCh,1
type,point
parent_name,200-cuts
ch_type,1_1
kcount,1
numberNandB,1
brightnessNandB,1
carpet pos,0
pc,0
Time (ms),CH1 Auto-Correlation
1.0,0.0904291570186615
2.0,0.0823328047990799
3.0,0.07534249126911163
4.0,0.06931830942630768
5.0,0.06418076902627945
6.0,0.05976266786456108
7.0,0.0558595210313797
8.0,0.05248026177287102
9.0,0.04934273660182953
10.0,0.04644794389605522
11.0,0.04382544010877609
12.0,0.04120854660868645
13.0,0.03882358968257904
14.0,0.0367121659219265
15.0,0.03472600132226944
16.0,0.032642632722854614
18.0,0.02870813198387623
20.0,0.025456279516220093
22.0,0.022783683612942696
24.0,0.02028503827750683
26.0,0.018410608172416687
28.0,0.0165195781737566
30.0,0.015093878842890263
32.0,0.014230198226869106
36.0,0.012117801234126091
40.0,0.010106094181537628
44.0,0.008718283846974373
48.0,0.006438625976443291
52.0,0.0032694637775421143
56.0,0.0013177827931940556
60.0,3.19396895065438e-05
64.0,-0.0008244772325269878
72.0,-0.0011626597261056304
80.0,-0.001820103614591062
88.0,-0.0010858839377760887
96.0,-0.0010459632612764835
104.0,-0.0011234281118959188
112.0,-0.0006093932897783816
120.0,0.00015802113921381533
128.0,0.00046498002484440804
144.0,0.0021350060123950243
160.0,0.0019101648358628154
176.0,0.001189793343655765
192.0,0.000992831657640636
208.0,0.0028083398938179016
224.0,0.0016361128073185682
240.0,-0.0008987486362457275
256.0,-0.000828213116619736
288.0,-0.0016897908644750714
320.0,-0.004273497965186834
352.0,-0.00476807588711381
384.0,-0.0038593478966504335
416.0,-0.0034712960477918386
448.0,0.0002636332646943629
480.0,0.0019892577547580004
512.0,-0.00017852048040367663
576.0,0.000993123510852456
640.0,0.0004647475725505501
704.0,0.002527988515794277
768.0,-0.003465333953499794
832.0,-0.0021854962687939405
896.0,-0.0012340184766799212
960.0,-0.00022616301430389285
1024.0,-0.0034391239751130342
1152.0,0.0036148212384432554
1280.0,0.004966055508702993
1408.0,0.000959585013333708
1536.0,-0.003023545490577817
1664.0,-0.0026273620314896107
1792.0,-0.0015338065568357706
1920.0,-0.0009022660669870675
2048.0,0.0018233545124530792
2304.0,-0.000915752025321126
2560.0,-0.000428675179136917
2816.0,-0.0022625089623034
3072.0,0.0005756801692768931
3328.0,0.0008233272819779813
3584.0,-0.00058336480287835
3840.0,-0.0012419428676366806
4096.0,-0.0007058809860609472
4608.0,-0.00018460764840710908
5120.0,-0.00036933194496668875
5632.0,-0.0007868285174481571
6144.0,7.897794421296567e-05
6656.0,-7.892926078056917e-05
7168.0,-0.000338747282512486
7680.0,0.0011779454071074724
8192.0,-0.00012052895908709615
9216.0,0.0016365314368158579
10240.0,-0.0012889659265056252
11264.0,-0.0017163623124361038
12288.0,-0.0003162332286592573
13312.0,7.28325949239661e-06
14336.0,0.0011373264715075493
end
