version,3.0
numOfCh,1
type,point
parent_name,200-cuts
ch_type,1_1
kcount,1
numberNandB,1
brightnessNandB,1
carpet pos,0
pc,0
Time (ms),CH1 Auto-Correlation
1.0,0.039893537759780884
2.0,0.036378342658281326
3.0,0.03332393616437912
4.0,0.03063199110329151
5.0,0.028458882123231888
6.0,0.02651005983352661
7.0,0.024710167199373245
8.0,0.023006621748209
9.0,0.02136649750173092
10.0,0.020028870552778244
11.0,0.018770931288599968
12.0,0.01771487668156624
13.0,0.0166454017162323
14.0,0.015580181032419205
15.0,0.0146191930398345
16.0,0.013710473664104939
18.0,0.012157522141933441
20.0,0.01082877442240715
22.0,0.009541960433125496
24.0,0.008370421826839447
26.0,0.007455790881067514
28.0,0.006780419498682022
30.0,0.006241785828024149
32.0,0.005723589099943638
36.0,0.00507341930642724
40.0,0.004935114644467831
44.0,0.004774833098053932
48.0,0.00405606534332037
52.0,0.003648405196145177
56.0,0.0033930062782019377
60.0,0.002620749408379197
64.0,0.00180710363201797
72.0,0.001265493337996304
80.0,0.0006616318132728338
88.0,0.0008396591292694211
96.0,0.0008958442485891283
104.0,0.00018665842071641237
112.0,-0.0001957534404937178
120.0,-0.00020751460397150367
128.0,-4.789680474459601e-07
144.0,9.948143087967765e-06
160.0,0.0008486054721288383
176.0,0.0005597918061539531
192.0,-0.0001701378932921216
208.0,-0.0017109625041484833
224.0,-0.0017736895242705941
240.0,-0.0021594741847366095
256.0,-0.0022728631738573313
288.0,-0.0009082771721296012
320.0,-0.0013143368996679783
352.0,0.00018517216085456312
384.0,-0.0008499800460413098
416.0,-0.0006706921267323196
448.0,0.0012850462226197124
480.0,-4.505590186454356e-05
512.0,-0.0011446693679317832
576.0,0.0010372691322118044
640.0,0.0008607230265624821
704.0,-0.0007392715197056532
768.0,-0.00029066691058687866
832.0,-0.0010420156177133322
896.0,-0.0009076861897483468
960.0,0.00020786146342288703
1024.0,0.00046962848864495754
1152.0,0.0003365997108630836
1280.0,-0.0003523633349686861
1408.0,0.0014082222478464246
1536.0,-0.00022161114611662924
1664.0,-0.0013750477228313684
1792.0,0.0006371262134052813
1920.0,-0.0012171301059424877
2048.0,-0.0006119684549048543
2304.0,0.0011995889944955707
2560.0,-0.0007843314670026302
2816.0,-5.511497874977067e-05
3072.0,0.0010775739792734385
3328.0,-0.0007150815217755735
3584.0,-6.00918174313847e-05
3840.0,0.0004036880854982883
4096.0,-0.00014740404731128365
4608.0,-0.0009724447154439986
5120.0,0.0006965442444197834
5632.0,-0.0009338096715509892
6144.0,0.00048001177492551506
6656.0,-0.00018905992328654975
7168.0,0.0008310138946399093
7680.0,-0.00016778551798779517
8192.0,-0.0003700660017784685
9216.0,0.00015152755076996982
10240.0,-0.0001398103777319193
11264.0,-0.0005658286972902715
12288.0,-0.0006152424612082541
13312.0,-0.0003329531173221767
14336.0,0.00018063827883452177
end
