version,3.0
numOfCh,1
type,point
parent_name,200-cuts
ch_type,1_1
kcount,1
numberNandB,1
brightnessNandB,1
carpet pos,0
pc,0
Time (ms),CH1 Auto-Correlation
1.0,0.08900127559900284
2.0,0.08115803450345993
3.0,0.07472102344036102
4.0,0.0690263882279396
5.0,0.06418219953775406
6.0,0.059748899191617966
7.0,0.05574870854616165
8.0,0.051970671862363815
9.0,0.048600926995277405
10.0,0.04571207985281944
11.0,0.04325471445918083
12.0,0.0409027561545372
13.0,0.03880445659160614
14.0,0.036774881184101105
15.0,0.03497569262981415
16.0,0.03328010067343712
18.0,0.030334917828440666
20.0,0.027948999777436256
22.0,0.02565869130194187
24.0,0.023786677047610283
26.0,0.022226247936487198
28.0,0.021063541993498802
30.0,0.020392166450619698
32.0,0.01992649957537651
36.0,0.018946638330817223
40.0,0.017969293519854546
44.0,0.01624978519976139
48.0,0.014646658673882484
52.0,0.012866322882473469
56.0,0.010534814558923244
60.0,0.007747250143438578
64.0,0.0052833533845841885
72.0,0.0026769114192575216
80.0,0.0026617071125656366
88.0,0.002756532747298479
96.0,0.0008458974771201611
104.0,-0.0009741988615132868
112.0,-0.0002651185786817223
120.0,0.0005153685342520475
128.0,0.001832055626437068
144.0,0.00014743287465535104
160.0,-0.00041160458931699395
176.0,0.0025897209998220205
192.0,0.003204288426786661
208.0,0.0011705349897965789
224.0,-0.000833517755381763
240.0,-0.001525960979051888
256.0,-0.00017538631800562143
288.0,0.00032305411878041923
320.0,-0.0007596701034344733
352.0,-0.0036569705698639154
384.0,-0.0070355674251914024
416.0,-0.004917151294648647
448.0,-0.007422847673296928
480.0,-0.00387256545946002
512.0,0.0015171862905845046
576.0,-0.0001673783699516207
640.0,0.0005350187420845032
704.0,-0.0014747804962098598
768.0,-0.0001092988095479086
832.0,-0.0014735801378265023
896.0,0.0008195177651941776
960.0,0.00513279065489769
1024.0,-3.818640470854007e-05
1152.0,-0.000811530277132988
1280.0,-0.0007313601672649384
1408.0,-0.0016788783250376582
1536.0,-0.001450908137485385
1664.0,0.0007864630315452814
1792.0,-0.00011294199066469446
1920.0,-0.0015023378655314445
2048.0,-0.00045311159919947386
2304.0,-0.001828616950660944
2560.0,-0.001534172217361629
2816.0,-0.0001896366011351347
3072.0,0.0009860742138698697
3328.0,-0.0018533753463998437
3584.0,5.637118374579586e-05
3840.0,0.0018636485328897834
4096.0,4.1424587834626436e-05
4608.0,0.000672628462780267
5120.0,6.801655399613082e-05
5632.0,0.001086511998437345
6144.0,-0.0002358676283620298
6656.0,-0.0014419433427974582
7168.0,0.0008367220871150494
7680.0,-0.0006804365548305213
8192.0,0.0012533914996311069
9216.0,0.0004392640548758209
10240.0,-0.002549533499404788
11264.0,0.0004766035417560488
12288.0,0.00031967993709258735
13312.0,0.0008152968948706985
14336.0,-0.0022166352719068527
end
