version,3.0
numOfCh,1
type,point
parent_name,200-cuts
ch_type,1_1
kcount,1
numberNandB,1
brightnessNandB,1
carpet pos,0
pc,0
Time (ms),CH1 Auto-Correlation
1.0,0.026039009913802147
2.0,0.023702770471572876
3.0,0.021727288141846657
4.0,0.019996846094727516
5.0,0.01849510706961155
6.0,0.017140930518507957
7.0,0.01596878096461296
8.0,0.014937672764062881
9.0,0.013987742364406586
10.0,0.013160509057343006
11.0,0.012454104609787464
12.0,0.011812416836619377
13.0,0.011140112765133381
14.0,0.010507416911423206
15.0,0.009929719381034374
16.0,0.009404079057276249
18.0,0.008561518043279648
20.0,0.007735996041446924
22.0,0.007026605773717165
24.0,0.006478489842265844
26.0,0.0059813931584358215
28.0,0.005635569803416729
30.0,0.005211599171161652
32.0,0.004815523978322744
36.0,0.004124809987843037
40.0,0.0036724191159009933
44.0,0.00335886562243104
48.0,0.0028877449221909046
52.0,0.002491609426215291
56.0,0.0022948875557631254
60.0,0.002071511000394821
64.0,0.001738879713229835
72.0,0.0020339975599199533
80.0,0.002190072787925601
88.0,0.0017305953660979867
96.0,0.001391255878843367
104.0,0.0010435788426548243
112.0,0.0009741268586367369
120.0,0.0006863075541332364
128.0,0.0006950577371753752
144.0,7.157721847761422e-05
160.0,-9.54174975049682e-05
176.0,-3.3905962482094765e-05
192.0,0.0002686477091629058
208.0,-3.181878128089011e-05
224.0,-0.00012231103028170764
240.0,-0.0002852418983820826
256.0,5.156167389941402e-05
288.0,-4.7377627197420225e-05
320.0,0.00022113000159151852
352.0,2.0083893105038442e-05
384.0,-0.000775851949583739
416.0,-0.0008444194681942463
448.0,0.0006484562763944268
480.0,0.0012202566722407937
512.0,0.0005680719623342156
576.0,-0.0003533570561558008
640.0,-0.0009838832775130868
704.0,-0.0005727747338823974
768.0,0.0010379294399172068
832.0,0.0007643671124242246
896.0,-0.0002902281121350825
960.0,0.00022026347869541496
1024.0,0.00045010424219071865
1152.0,-0.0010319851571694016
1280.0,0.0006748335435986519
1408.0,-0.0006912893732078373
1536.0,-0.001304629840888083
1664.0,-0.0008184319594874978
1792.0,2.8930353437317535e-05
1920.0,-0.0001606169535079971
2048.0,-0.0005060976836830378
2304.0,-0.00036655567237176
2560.0,0.00012849415361415595
2816.0,-0.0009874592069536448
3072.0,-5.432544867289835e-07
3328.0,-2.453032175253611e-05
3584.0,0.00046222086530178785
3840.0,0.00043976414599455893
4096.0,-8.499926479998976e-05
4608.0,-0.00021136151917744428
5120.0,0.0004986842977814376
5632.0,0.0005784356035292149
6144.0,-9.534250420983881e-05
6656.0,-0.00029287199140526354
7168.0,-0.0007750520599074662
7680.0,-0.0008247538353316486
8192.0,0.00019794030231423676
9216.0,0.00049789302283898
10240.0,-0.0003957734734285623
11264.0,-8.487034938298166e-05
12288.0,0.00014696971629746258
13312.0,-0.00024564869818277657
14336.0,-0.0001727096241666004
end
