version,3.0
numOfCh,1
type,point
parent_name,200-cuts
ch_type,1_1
kcount,1
numberNandB,1
brightnessNandB,1
carpet pos,0
pc,0
Time (ms),CH1 Auto-Correlation
1.0,0.04020996391773224
2.0,0.03666723147034645
3.0,0.033582668751478195
4.0,0.03085307590663433
5.0,0.028309091925621033
6.0,0.026186617091298103
7.0,0.024296559393405914
8.0,0.022666700184345245
9.0,0.021203922107815742
10.0,0.019958371296525
11.0,0.018825698643922806
12.0,0.01778268627822399
13.0,0.01677468791604042
14.0,0.01584956981241703
15.0,0.014984732493758202
16.0,0.01420545019209385
18.0,0.01265608798712492
20.0,0.011127137579023838
22.0,0.009837836027145386
24.0,0.008735833689570427
26.0,0.0077750845812261105
28.0,0.007085369899868965
30.0,0.006490600295364857
32.0,0.006127753295004368
36.0,0.005602103658020496
40.0,0.00470852293074131
44.0,0.003984023351222277
48.0,0.0031334192026406527
52.0,0.0021065566688776016
56.0,0.0011355651076883078
60.0,0.0006995098665356636
64.0,7.194162753876299e-05
72.0,-0.0009215148165822029
80.0,-0.0006569781107828021
88.0,-0.0005549971247091889
96.0,-0.000490478880237788
104.0,-0.0005614795372821391
112.0,-0.00032950163586065173
120.0,-0.0010109632275998592
128.0,-0.001182660344056785
144.0,-0.001437883242033422
160.0,0.0004891298012807965
176.0,0.0002868156007025391
192.0,-0.0003069113299716264
208.0,-4.304829417378642e-05
224.0,-9.639231575420126e-05
240.0,-0.0006092955591157079
256.0,-0.0003674268664326519
288.0,0.0011010740417987108
320.0,0.00014687865041196346
352.0,0.0005417680367827415
384.0,0.002333273645490408
416.0,0.0006398604018613696
448.0,0.0007920729112811387
480.0,0.0009800945408642292
512.0,0.00047194978105835617
576.0,-0.0009977164445444942
640.0,-0.0004041444044560194
704.0,7.210935291368514e-05
768.0,-0.0006149697583168745
832.0,0.00016631998005323112
896.0,0.00034981261705979705
960.0,0.0010235932422801852
1024.0,0.0005211918614804745
1152.0,0.0007377982838079333
1280.0,-0.00048448945744894445
1408.0,0.0011396753834560513
1536.0,-0.0009184780064970255
1664.0,-0.0015394524671137333
1792.0,0.0008134336676448584
1920.0,-0.0006402318249456584
2048.0,-0.0017726219957694411
2304.0,-4.549922596197575e-05
2560.0,-0.0008217233116738498
2816.0,-0.00023135379888117313
3072.0,-5.226108987699263e-05
3328.0,-0.0009735627681948245
3584.0,1.5948209693306126e-05
3840.0,-0.0002845552808139473
4096.0,0.000850467593409121
4608.0,0.0006776104564778507
5120.0,-0.0003988183452747762
5632.0,6.489688530564308e-05
6144.0,0.00010677220416255295
6656.0,-0.00010913615551544353
7168.0,0.0009164707735180855
7680.0,-0.0004965293919667602
8192.0,-0.0003949676174670458
9216.0,-0.0008210144005715847
10240.0,-0.0006045154295861721
11264.0,0.001070445985533297
12288.0,-0.0002904399298131466
13312.0,-0.0007878899341449142
14336.0,-0.00030979589791968465
end
