version,3.0
numOfCh,1
type,point
parent_name,200-cuts
ch_type,1_1
kcount,1
numberNandB,1
brightnessNandB,1
carpet pos,0
pc,0
Time (ms),CH1 Auto-Correlation
1.0,0.0874415785074234
2.0,0.07923243939876556
3.0,0.07203998416662216
4.0,0.06583619862794876
5.0,0.060166507959365845
6.0,0.0553339421749115
7.0,0.05111856013536453
8.0,0.04773997515439987
9.0,0.04485655948519707
10.0,0.04196615889668465
11.0,0.03938772529363632
12.0,0.03695853427052498
13.0,0.03452630713582039
14.0,0.03222748637199402
15.0,0.030055373907089233
16.0,0.02816324308514595
18.0,0.024540578946471214
20.0,0.021366752684116364
22.0,0.01886145770549774
24.0,0.016562629491090775
26.0,0.01478516310453415
28.0,0.013233164325356483
30.0,0.012048132717609406
32.0,0.011058682575821877
36.0,0.009465738199651241
40.0,0.008337775245308876
44.0,0.006950140930712223
48.0,0.006125973537564278
52.0,0.005668122321367264
56.0,0.005556087475270033
60.0,0.004973805509507656
64.0,0.00438705226406455
72.0,0.005822387989610434
80.0,0.007293932139873505
88.0,0.0074159130454063416
96.0,0.007891111075878143
104.0,0.007059044204652309
112.0,0.006518817041069269
120.0,0.0053312210366129875
128.0,0.005480678286403418
144.0,0.005347295198589563
160.0,0.0046192375011742115
176.0,0.0024697098415344954
192.0,0.0020512244664132595
208.0,0.0031704669818282127
224.0,0.0005616940907202661
240.0,-0.0005873597110621631
256.0,-0.00028145217220298946
288.0,-0.00014258470037020743
320.0,-0.002554776845499873
352.0,-0.0012767952866852283
384.0,0.0017323833890259266
416.0,-0.0026969623286277056
448.0,0.00038500415394082665
480.0,0.00038622162537649274
512.0,0.0007033835863694549
576.0,-0.00036257467581890523
640.0,0.00046186376130208373
704.0,-0.0012380776461213827
768.0,0.00043577843462117016
832.0,0.00019925864762626588
896.0,0.0001634551299503073
960.0,0.0005336992908269167
1024.0,-0.003210016991943121
1152.0,-0.002735923742875457
1280.0,-0.0013347711646929383
1408.0,0.0011340818600729108
1536.0,-0.000833557453006506
1664.0,-0.0019436402944847941
1792.0,-0.0025732372887432575
1920.0,-0.001821772544644773
2048.0,-0.002824557013809681
2304.0,-0.0029764731880277395
2560.0,-0.0006777872331440449
2816.0,0.0007128092693164945
3072.0,0.0019355957629159093
3328.0,0.001305888406932354
3584.0,-0.00026981133851222694
3840.0,0.0020680262241512537
4096.0,-0.0015197396278381348
4608.0,-0.0005288202664814889
5120.0,-0.001234539202414453
5632.0,-0.002138954121619463
6144.0,-0.0007706098258495331
6656.0,0.0029325741343200207
7168.0,-0.0005178618594072759
7680.0,0.0034404557663947344
8192.0,0.0010263884905725718
9216.0,-0.0015766607830300927
10240.0,7.698703120695427e-05
11264.0,0.0015754642663523555
12288.0,-0.000866469054017216
13312.0,-0.0007212788914330304
14336.0,0.0005674631684087217
end
