version,3.0
numOfCh,1
type,point
parent_name,200-cuts
ch_type,1_1
kcount,1
numberNandB,1
brightnessNandB,1
carpet pos,0
pc,0
Time (ms),CH1 Auto-Correlation
1.0,0.09455780684947968
2.0,0.08690045028924942
3.0,0.0801248550415039
4.0,0.07409000396728516
5.0,0.06875676661729813
6.0,0.06424567848443985
7.0,0.06019707769155502
8.0,0.05642895773053169
9.0,0.053105056285858154
10.0,0.04997362941503525
11.0,0.04696626961231232
12.0,0.044184375554323196
13.0,0.04171568155288696
14.0,0.03942084312438965
15.0,0.0375140942633152
16.0,0.03578953817486763
18.0,0.032646600157022476
20.0,0.0300554521381855
22.0,0.027876203879714012
24.0,0.025411240756511688
26.0,0.023146577179431915
28.0,0.021063193678855896
30.0,0.019655631855130196
32.0,0.01846041902899742
36.0,0.01592409983277321
40.0,0.013863458298146725
44.0,0.012234015390276909
48.0,0.011248880997300148
52.0,0.010535122826695442
56.0,0.009632197208702564
60.0,0.008701304905116558
64.0,0.007357587572187185
72.0,0.005059355404227972
80.0,0.0022834704723209143
88.0,0.0006071472889743745
96.0,-0.00033089364296756685
104.0,-0.0011656525311991572
112.0,-0.0014056743821129203
120.0,-0.001211770111694932
128.0,-0.0008972577634267509
144.0,-0.000790982274338603
160.0,0.001984658185392618
176.0,0.0016801005695015192
192.0,0.0023655127733945847
208.0,0.0030512504745274782
224.0,0.004036982078105211
240.0,0.003625677665695548
256.0,0.003576965071260929
288.0,0.0033442520070821047
320.0,-0.00032772039412520826
352.0,-0.0014014405896887183
384.0,-0.0012576424051076174
416.0,-0.0025276863016188145
448.0,-0.002882984234020114
480.0,-0.0021639650221914053
512.0,-0.0025807523634284735
576.0,-0.0025878080632537603
640.0,0.0017529124161228538
704.0,0.001519257202744484
768.0,0.002068426925688982
832.0,0.001573178800754249
896.0,0.005187306087464094
960.0,-0.0015563925262540579
1024.0,-0.0030985288321971893
1152.0,0.002562200417742133
1280.0,-0.0030087954364717007
1408.0,-0.004941538907587528
1536.0,-0.003139772219583392
1664.0,-0.0013609635643661022
1792.0,0.0004144330450799316
1920.0,0.0014082789421081543
2048.0,-0.00043719305540435016
2304.0,-0.002874557627364993
2560.0,-0.0014750497648492455
2816.0,0.0010291284415870905
3072.0,0.001112411031499505
3328.0,-0.00190520822070539
3584.0,-0.00103207235224545
3840.0,0.0013723168522119522
4096.0,-0.0016206104774028063
4608.0,-0.0015950117958709598
5120.0,-0.00036596565041691065
5632.0,-0.0009543078485876322
6144.0,0.0013246635207906365
6656.0,0.0013667421881109476
7168.0,0.0025526133831590414
7680.0,-0.0021618432365357876
8192.0,0.0020002343226224184
9216.0,-0.0003808545006904751
10240.0,-0.0016303298762068152
11264.0,4.20948417740874e-05
12288.0,0.0014711025869473815
13312.0,-9.064620826393366e-05
14336.0,-0.0006352454074658453
end
