version,3.0
numOfCh,1
type,point
parent_name,200-cuts
ch_type,1_1
kcount,1
numberNandB,1
brightnessNandB,1
carpet pos,0
pc,0
Time (ms),CH1 Auto-Correlation
1.0,0.02672225423157215
2.0,0.024286510422825813
3.0,0.022269105538725853
4.0,0.020441513508558273
5.0,0.018900565803050995
6.0,0.01755068637430668
7.0,0.016400441527366638
8.0,0.015391179360449314
9.0,0.014516213908791542
10.0,0.013661676086485386
11.0,0.012934842146933079
12.0,0.01226879097521305
13.0,0.011719629168510437
14.0,0.011211633682250977
15.0,0.010743252001702785
16.0,0.010296461172401905
18.0,0.00942540168762207
20.0,0.008552929386496544
22.0,0.007733183912932873
24.0,0.007042559329420328
26.0,0.006373019423335791
28.0,0.005828998051583767
30.0,0.005283119156956673
32.0,0.004739615134894848
36.0,0.0037490511313080788
40.0,0.002893650671467185
44.0,0.0023112508933991194
48.0,0.002000559354200959
52.0,0.0017005830304697156
56.0,0.0015729863662272692
60.0,0.001560452627018094
64.0,0.0015626942040398717
72.0,0.0007637309608981013
80.0,0.0005673581617884338
88.0,0.0005510368500836194
96.0,-7.109971920726821e-05
104.0,-0.0003257004718761891
112.0,-0.0007483598310500383
120.0,-0.0013634782517328858
128.0,-0.0010896319290623069
144.0,-0.0010037384927272797
160.0,-0.0013639313401654363
176.0,-0.0018086893251165748
192.0,-0.0019300272688269615
208.0,-0.0016500166384503245
224.0,-0.0008716408046893775
240.0,-0.0005258952733129263
256.0,-0.0008056808728724718
288.0,-0.0009392687934450805
320.0,0.0007763486937619746
352.0,0.0008250418468378484
384.0,0.00025945724337361753
416.0,0.00045194628182798624
448.0,0.0006578433094546199
480.0,0.0006172287394292653
512.0,-0.0002827704302035272
576.0,-0.0006364657310768962
640.0,-0.0008278342429548502
704.0,-0.00040510750841349363
768.0,-0.0009801725391298532
832.0,-0.0002012361801462248
896.0,-0.00039267991087399423
960.0,0.0002994149108417332
1024.0,0.00020017508359160274
1152.0,0.000531543220859021
1280.0,-0.0006820846465416253
1408.0,0.0011834782781079412
1536.0,0.00012319804227445275
1664.0,0.000301298510748893
1792.0,-0.0013326951302587986
1920.0,-0.0001821982441470027
2048.0,0.0003949967212975025
2304.0,-0.0010621794499456882
2560.0,-8.376365440199152e-05
2816.0,0.000799463246949017
3072.0,-9.089603554457426e-05
3328.0,-0.0006799061666242778
3584.0,-0.00048780092038214207
3840.0,0.00011699168680934235
4096.0,0.0006400005077011883
4608.0,-0.00023819817579351366
5120.0,9.95420923572965e-05
5632.0,0.00046740376274101436
6144.0,-0.00016681640408933163
6656.0,0.0003010988875757903
7168.0,-9.869082714430988e-05
7680.0,-0.0001237231190316379
8192.0,5.0056354666594416e-05
9216.0,-0.00016785651678219438
10240.0,0.0002683097845874727
11264.0,0.00012764149869326502
12288.0,-0.00016233559290412813
13312.0,7.195267244242132e-05
14336.0,-0.0006757510709576309
end
