version,3.0
numOfCh,1
type,point
parent_name,200-cuts
ch_type,1_1
kcount,1
numberNandB,1
brightnessNandB,1
carpet pos,0
pc,0
Time (ms),CH1 Auto-Correlation
1.0,0.027168620377779007
2.0,0.024679245427250862
3.0,0.022554628551006317
4.0,0.020709404721856117
5.0,0.019055163487792015
6.0,0.01757378689944744
7.0,0.016268054023385048
8.0,0.015087521634995937
9.0,0.01409513596445322
10.0,0.013231432065367699
11.0,0.012425526045262814
12.0,0.011691301129758358
13.0,0.011008192785084248
14.0,0.010430966503918171
15.0,0.009932247921824455
16.0,0.009454358369112015
18.0,0.008603242225944996
20.0,0.007937322370707989
22.0,0.007300101686269045
24.0,0.006737919989973307
26.0,0.006137964315712452
28.0,0.005484448745846748
30.0,0.005033344030380249
32.0,0.004672962706536055
36.0,0.004039309918880463
40.0,0.003395362291485071
44.0,0.0026168213225901127
48.0,0.0019360289443284273
52.0,0.001521894708275795
56.0,0.001435748883523047
60.0,0.0013445751974359155
64.0,0.0012624807422980666
72.0,0.0012384771835058928
80.0,0.00039095949614420533
88.0,-0.0002770222199615091
96.0,5.8032324886880815e-05
104.0,0.00035768968518823385
112.0,0.00015799293760210276
120.0,-0.0006214850582182407
128.0,-0.0006490554660558701
144.0,-0.0009167924290522933
160.0,-0.001088374643586576
176.0,-0.0008919494575820863
192.0,-0.0006430712528526783
208.0,-8.440836245426908e-05
224.0,0.00033716135658323765
240.0,-9.861334547167644e-05
256.0,-0.0005171061493456364
288.0,0.000919711368624121
320.0,0.0014473279006779194
352.0,0.0020840514916926622
384.0,0.001339128939434886
416.0,0.0007738980930298567
448.0,0.0010426169028505683
480.0,0.0006422889418900013
512.0,0.0002844258851837367
576.0,0.0009608279215171933
640.0,0.0004686270549427718
704.0,-0.00035427615512162447
768.0,-0.0002462172124069184
832.0,0.0012183812214061618
896.0,-0.0004565661074593663
960.0,-0.0008851885213516653
1024.0,0.000608710921369493
1152.0,-0.000918405712582171
1280.0,-0.0012416262179613113
1408.0,-0.0003717629297170788
1536.0,0.000506717013195157
1664.0,6.997642776696011e-05
1792.0,-0.001497931545600295
1920.0,-4.107795757590793e-05
2048.0,0.00011525436275405809
2304.0,0.0005459215608425438
2560.0,0.0005271712434478104
2816.0,0.0007287382613867521
3072.0,0.0007561813690699637
3328.0,-0.00023516415967606008
3584.0,3.992608071712311e-06
3840.0,-0.0005076461820863187
4096.0,-0.00016720914572943002
4608.0,-0.0001795058633433655
5120.0,0.0005658375448547304
5632.0,0.0005212131072767079
6144.0,0.0002183744072681293
6656.0,-0.0004346363712102175
7168.0,-0.00045558743295259774
7680.0,-0.0006685107364319265
8192.0,9.410894563188776e-05
9216.0,-0.00039032354834489524
10240.0,-0.00041675742249935865
11264.0,-0.0003507203364279121
12288.0,-0.0005933895008638501
13312.0,0.00035049463622272015
14336.0,-0.0005836202180944383
end
