version,3.0
numOfCh,1
type,point
parent_name,200-cuts
ch_type,1_1
kcount,1
numberNandB,1
brightnessNandB,1
carpet pos,0
pc,0
Time (ms),CH1 Auto-Correlation
1.0,0.09339369088411331
2.0,0.0854899138212204
3.0,0.07877466827630997
4.0,0.07303666323423386
5.0,0.06797683984041214
6.0,0.0634930357336998
7.0,0.05969367176294327
8.0,0.05629120022058487
9.0,0.053206708282232285
10.0,0.050424642860889435
11.0,0.04772302508354187
12.0,0.045065026730298996
13.0,0.04265217110514641
14.0,0.04054734483361244
15.0,0.03849402815103531
16.0,0.036688901484012604
18.0,0.03355428948998451
20.0,0.03059643879532814
22.0,0.028443844988942146
24.0,0.026382016018033028
26.0,0.024220531806349754
28.0,0.022131169214844704
30.0,0.020365895703434944
32.0,0.01869419403374195
36.0,0.015597991645336151
40.0,0.013059494085609913
44.0,0.011398034170269966
48.0,0.009631524793803692
52.0,0.008358482271432877
56.0,0.0061576031148433685
60.0,0.004778782371431589
64.0,0.0037928596138954163
72.0,0.00285611511208117
80.0,0.0037908144295215607
88.0,0.004842423368245363
96.0,0.005191357806324959
104.0,0.005818487610667944
112.0,0.005101376678794622
120.0,0.004926588851958513
128.0,0.005412102676928043
144.0,0.007309154607355595
160.0,0.00831796508282423
176.0,0.004006839357316494
192.0,-9.463066817261279e-05
208.0,-0.0028465569484978914
224.0,-0.0030274393502622843
240.0,-0.0022574469912797213
256.0,0.0004658442921936512
288.0,-0.0010599003871902823
320.0,-0.003758262610062957
352.0,-0.005686172284185886
384.0,-0.004001759923994541
416.0,0.0012065492337569594
448.0,-0.0006676690536551178
480.0,-0.0033858155366033316
512.0,-0.007478354964405298
576.0,-0.00932585634291172
640.0,-0.004118932876735926
704.0,-0.004538480658084154
768.0,-0.003275517141446471
832.0,0.002191650215536356
896.0,0.000613317999523133
960.0,0.002769517945125699
1024.0,-0.000318114529363811
1152.0,0.002617455320432782
1280.0,0.0027481948491185904
1408.0,-0.002680844161659479
1536.0,-0.004688126966357231
1664.0,-0.00277203181758523
1792.0,-0.003747285110875964
1920.0,-0.0026117961388081312
2048.0,0.0013918117620050907
2304.0,0.0019403574988245964
2560.0,-0.002252766862511635
2816.0,-0.0027966839261353016
3072.0,-0.00035820662742480636
3328.0,0.003695912891998887
3584.0,0.0026938000228255987
3840.0,0.0004281508445274085
4096.0,-0.001744970679283142
4608.0,2.0388964912854135e-05
5120.0,-0.002536306157708168
5632.0,0.0023583886213600636
6144.0,-0.002525977324694395
6656.0,0.00033889172482304275
7168.0,-0.0015610172413289547
7680.0,0.0036189761012792587
8192.0,-0.00019107366097159684
9216.0,-0.001269242144189775
10240.0,0.00021779497910756618
11264.0,0.0002539657289162278
12288.0,1.9757622794713825e-05
13312.0,-0.0003777651581913233
14336.0,0.00027180660981684923
end
