version,3.0
numOfCh,1
type,point
parent_name,200-cuts
ch_type,1_1
kcount,1
numberNandB,1
brightnessNandB,1
carpet pos,0
pc,0
Time (ms),CH1 Auto-Correlation
1.0,0.04026135802268982
2.0,0.036723725497722626
3.0,0.03368281200528145
4.0,0.031082725152373314
5.0,0.028730811551213264
6.0,0.026659630239009857
7.0,0.024834847077727318
8.0,0.023236587643623352
9.0,0.021892709657549858
10.0,0.02064492739737034
11.0,0.0195335540920496
12.0,0.018437683582305908
13.0,0.017485661432147026
14.0,0.016586927697062492
15.0,0.015736794099211693
16.0,0.014975112862884998
18.0,0.013711527921259403
20.0,0.012714450247585773
22.0,0.011733916588127613
24.0,0.01089625246822834
26.0,0.01002685260027647
28.0,0.009104314260184765
30.0,0.008123139850795269
32.0,0.007298140320926905
36.0,0.0062688603065907955
40.0,0.005614183843135834
44.0,0.0049740588292479515
48.0,0.0044649685733020306
52.0,0.0040637291967868805
56.0,0.0035115929786115885
60.0,0.002966803265735507
64.0,0.002556118881329894
72.0,0.0018176424782723188
80.0,0.0009349125321023166
88.0,0.0002762078947853297
96.0,-0.00034452672116458416
104.0,-0.0003067795478273183
112.0,0.0003072629915550351
120.0,0.0007828555535525084
128.0,0.0002870996540877968
144.0,0.0008758600451983511
160.0,-0.0005254413699731231
176.0,-0.0016043961513787508
192.0,8.079017788986675e-06
208.0,0.0002490873448550701
224.0,-0.00015425332821905613
240.0,-0.0004585676942951977
256.0,-0.0004296911647543311
288.0,-0.0003928824153263122
320.0,-0.0008326579700224102
352.0,-7.574229675810784e-05
384.0,-9.007116022985429e-05
416.0,0.0005948161124251783
448.0,-4.1441639041295275e-05
480.0,0.00018284833640791476
512.0,0.001614198787137866
576.0,0.000889146002009511
640.0,-0.0015338017838075757
704.0,-0.002890694420784712
768.0,-0.0006487075006589293
832.0,0.00037256782525219023
896.0,5.35697654413525e-05
960.0,0.0007752242963761091
1024.0,0.00046992843272164464
1152.0,-0.000434585235780105
1280.0,-0.0008429995505139232
1408.0,0.000599299615714699
1536.0,0.0007006582454778254
1664.0,-2.434019734209869e-05
1792.0,0.0002635120472405106
1920.0,0.0006374343065544963
2048.0,-0.0005759451887570322
2304.0,-5.745857924921438e-05
2560.0,-0.00038504734402522445
2816.0,-0.000185004246304743
3072.0,0.0003589257539715618
3328.0,-0.0012140448670834303
3584.0,-0.0008500271942466497
3840.0,-0.0002997192495968193
4096.0,0.0016220940742641687
4608.0,-0.0006142447236925364
5120.0,-0.0006541010807268322
5632.0,0.00039427756564691663
6144.0,0.0015948232030496001
6656.0,-0.000554335885681212
7168.0,0.00010450398258399218
7680.0,0.0006017335690557957
8192.0,0.0003182656073477119
9216.0,-0.0006138479802757502
10240.0,-0.000965637678746134
11264.0,-0.0003075780696235597
12288.0,-0.0004344134358689189
13312.0,-3.641580406110734e-05
14336.0,0.0009211296564899385
end
