version,3.0
numOfCh,1
type,point
parent_name,200-cuts
ch_type,1_1
kcount,1
numberNandB,1
brightnessNandB,1
carpet pos,0
pc,0
Time (ms),CH1 Auto-Correlation
1.0,0.028085507452487946
2.0,0.025640014559030533
3.0,0.02355981059372425
4.0,0.021721843630075455
5.0,0.020151354372501373
6.0,0.018823061138391495
7.0,0.017677977681159973
8.0,0.016641752794384956
9.0,0.01562928594648838
10.0,0.014661939814686775
11.0,0.013756658881902695
12.0,0.012915285304188728
13.0,0.01220634300261736
14.0,0.011530442163348198
15.0,0.010888789780437946
16.0,0.010356331244111061
18.0,0.009513509459793568
20.0,0.00873838271945715
22.0,0.008161169476807117
24.0,0.007661517709493637
26.0,0.007030621636658907
28.0,0.0063160741701722145
30.0,0.005620907060801983
32.0,0.005079079885035753
36.0,0.004123949445784092
40.0,0.003493962809443474
44.0,0.0029134198557585478
48.0,0.0022120738867670298
52.0,0.0015380352269858122
56.0,0.0011909948661923409
60.0,0.001103552058339119
64.0,0.0008447389118373394
72.0,0.0006503917975351214
80.0,0.0005956703098490834
88.0,0.0005823804531246424
96.0,0.000616560922935605
104.0,0.0008365888497792184
112.0,0.0013453763676807284
120.0,0.0015698656206950545
128.0,0.00119265157263726
144.0,0.0008147831540554762
160.0,0.0003255053889006376
176.0,-0.000396454066503793
192.0,-0.00021657615434378386
208.0,-0.0007855690200813115
224.0,-0.0004784550401382148
240.0,-0.00034060573671013117
256.0,-0.0009319257223978639
288.0,-0.0002830510784406215
320.0,-5.407283242675476e-05
352.0,-0.00013361347373574972
384.0,-0.00019651932234410197
416.0,-0.0003608883125707507
448.0,-0.00041023106314241886
480.0,-0.0002746730751823634
512.0,-0.00021713922615163028
576.0,-0.0002331227733520791
640.0,-0.0009154999279417098
704.0,-0.0015729807782918215
768.0,7.532160816481337e-05
832.0,-0.0006063324981369078
896.0,0.000621067127212882
960.0,0.0008519286056980491
1024.0,0.0006025482434779406
1152.0,-0.0002934080839622766
1280.0,0.0005847360007464886
1408.0,0.0009105091448873281
1536.0,0.0006389108602888882
1664.0,3.2986299629556015e-05
1792.0,-0.0005973458755761385
1920.0,-0.0009989225072786212
2048.0,-0.0005505753215402365
2304.0,0.00019761126895900816
2560.0,0.0001830874680308625
2816.0,-7.414157880702987e-05
3072.0,-0.0007468010880984366
3328.0,-0.0003190489369444549
3584.0,-0.0002562369336374104
3840.0,-0.0005194275290705264
4096.0,0.00033534804242663085
4608.0,-0.0005710537079721689
5120.0,-0.0002141174190910533
5632.0,0.0005032139597460628
6144.0,-0.00016951495490502566
6656.0,0.0008198761497624218
7168.0,0.00040502846240997314
7680.0,-0.00037543827784247696
8192.0,0.000430265354225412
9216.0,-3.577156530809589e-05
10240.0,5.5432541557820514e-05
11264.0,-0.00043063447810709476
12288.0,-0.0002854064805433154
13312.0,0.00030773249454796314
14336.0,1.0984631444443949e-06
end
