version,3.0
numOfCh,1
type,point
parent_name,200-cuts
ch_type,1_1
kcount,1
numberNandB,1
brightnessNandB,1
carpet pos,0
pc,0
Time (ms),CH1 Auto-Correlation
1.0,0.09066314995288849
2.0,0.08307024836540222
3.0,0.07660318911075592
4.0,0.0708928257226944
5.0,0.06619100272655487
6.0,0.06194358691573143
7.0,0.058107417076826096
8.0,0.05469812825322151
9.0,0.05160132423043251
10.0,0.04864150658249855
11.0,0.04591236636042595
12.0,0.043453533202409744
13.0,0.0411062017083168
14.0,0.039003655314445496
15.0,0.03740963712334633
16.0,0.03581849858164787
18.0,0.03305782750248909
20.0,0.030433792620897293
22.0,0.02819402702152729
24.0,0.02623496577143669
26.0,0.02438019961118698
28.0,0.022376563400030136
30.0,0.020372986793518066
32.0,0.018589027225971222
36.0,0.015041647478938103
40.0,0.012049632146954536
44.0,0.009049066342413425
48.0,0.0067155915312469006
52.0,0.004909035284072161
56.0,0.004326968919485807
60.0,0.003467613598331809
64.0,0.0020797038450837135
72.0,0.0007902997895143926
80.0,0.0004393984272610396
88.0,0.0009713783510960639
96.0,0.000771413033362478
104.0,-0.00027968184440396726
112.0,0.00040856897248886526
120.0,0.0019505678210407495
128.0,0.0031223613768815994
144.0,0.004167436622083187
160.0,0.0031101901549845934
176.0,0.0038000999484211206
192.0,0.0031561667565256357
208.0,0.0003175891761202365
224.0,-0.0028032853733748198
240.0,-0.003651599632576108
256.0,-0.005385327152907848
288.0,-0.0037594488821923733
320.0,-0.002717551775276661
352.0,-0.0014250975800678134
384.0,0.0001473718002671376
416.0,-0.000639556790702045
448.0,-0.001740456442348659
480.0,0.0020332983694970608
512.0,0.0015427777543663979
576.0,-0.0011826418340206146
640.0,-0.0004443853977136314
704.0,-0.004742856603115797
768.0,-0.0009111972758546472
832.0,0.001886925077997148
896.0,-0.00019922011415474117
960.0,0.0026448899880051613
1024.0,-9.370414045406505e-05
1152.0,-0.001598541741259396
1280.0,-0.0013919523917138577
1408.0,-0.0005033085471950471
1536.0,-0.002112266607582569
1664.0,-0.00196415139362216
1792.0,-0.0013215697836130857
1920.0,-0.0015939881559461355
2048.0,-0.000149337065522559
2304.0,0.001184951514005661
2560.0,0.0015437343390658498
2816.0,-0.0021403473801910877
3072.0,0.0005465405411086977
3328.0,-0.00393131747841835
3584.0,0.0001612432097317651
3840.0,-0.0009052839013747871
4096.0,0.002327250549569726
4608.0,0.0015233386075124145
5120.0,0.0006454098620451987
5632.0,-0.0025093762669712305
6144.0,-0.0004229538608342409
6656.0,0.0015412801876664162
7168.0,-0.00047805573558434844
7680.0,-0.0006664947723038495
8192.0,-0.0005292108980938792
9216.0,7.402059418382123e-05
10240.0,-0.0006286767893470824
11264.0,0.00023110304027795792
12288.0,-0.0003847021725960076
13312.0,0.0032545733265578747
14336.0,-0.004184118006378412
end
