version,3.0
numOfCh,1
type,point
parent_name,200-cuts
ch_type,1_1
kcount,1
numberNandB,1
brightnessNandB,1
carpet pos,0
pc,0
Time (ms),CH1 Auto-Correlation
1.0,0.02633734606206417
2.0,0.023969968780875206
3.0,0.021916545927524567
4.0,0.020141320303082466
5.0,0.018591735512018204
6.0,0.0171988382935524
7.0,0.0159814041107893
8.0,0.014937518164515495
9.0,0.013970492407679558
10.0,0.013151373714208603
11.0,0.012390613555908203
12.0,0.011670669540762901
13.0,0.011113916523754597
14.0,0.01058459933847189
15.0,0.010057669132947922
16.0,0.009574205614626408
18.0,0.008678323589265347
20.0,0.007839124649763107
22.0,0.00710146501660347
24.0,0.006506916135549545
26.0,0.005888438317924738
28.0,0.005278364755213261
30.0,0.004771599546074867
32.0,0.004429115913808346
36.0,0.004152195993810892
40.0,0.003821170423179865
44.0,0.0032042411621659994
48.0,0.002737272996455431
52.0,0.0025817351415753365
56.0,0.002322128275409341
60.0,0.001806949614547193
64.0,0.0015887337503954768
72.0,0.0015998001908883452
80.0,0.0016303074080497026
88.0,0.0010422756895422935
96.0,0.0008935806690715253
104.0,0.0003947530349250883
112.0,0.00013189051242079586
120.0,-0.0003124377108179033
128.0,-0.00035953399492427707
144.0,-0.00042914535151794553
160.0,-9.80325203272514e-05
176.0,0.0004772584361489862
192.0,0.0001888876868179068
208.0,4.397685552248731e-05
224.0,-0.0003395286912564188
240.0,-0.000811672885902226
256.0,-0.0007552849710918963
288.0,-0.0003214900498278439
320.0,-0.0013279381673783064
352.0,-0.000918371370062232
384.0,-9.13600015337579e-05
416.0,-0.0001767272042343393
448.0,-0.0002600642910692841
480.0,0.0003792875213548541
512.0,0.00015493786486331373
576.0,-0.00022719064145348966
640.0,0.00027340551605448127
704.0,0.0005791376461274922
768.0,0.0012306246208027005
832.0,-0.00020463681721594185
896.0,-0.0002628942602314055
960.0,0.00023065191635396332
1024.0,-0.00046528642997145653
1152.0,0.00017401647346559912
1280.0,0.000413368979934603
1408.0,0.0011313414433971047
1536.0,-3.5726072383113205e-05
1664.0,-0.00047932277084328234
1792.0,0.0003914443659596145
1920.0,0.0002350779832340777
2048.0,0.0003389445773791522
2304.0,-0.0001900367351481691
2560.0,-0.0006326616858132184
2816.0,0.0002466806909069419
3072.0,0.000318882055580616
3328.0,-0.00041119707748293877
3584.0,-0.000144379839184694
3840.0,-7.579397788504139e-05
4096.0,-0.00011418635403970256
4608.0,2.5413271941943094e-05
5120.0,-0.00019236576918046921
5632.0,-0.0001670567726250738
6144.0,-2.8478270905907266e-05
6656.0,-0.00036631105467677116
7168.0,-8.972599607659504e-05
7680.0,-0.00017278724408242851
8192.0,-0.0004623540735337883
9216.0,-0.00032579436083324254
10240.0,4.3614541937131435e-05
11264.0,0.00037432252429425716
12288.0,-4.278360938769765e-05
13312.0,-0.00026453370810486376
14336.0,-0.00022515760792884976
end
