version,3.0
numOfCh,1
type,point
parent_name,200-cuts
ch_type,1_1
kcount,1
numberNandB,1
brightnessNandB,1
carpet pos,0
pc,0
Time (ms),CH1 Auto-Correlation
1.0,0.09342138469219208
2.0,0.0854978859424591
3.0,0.07847050577402115
4.0,0.0722578763961792
5.0,0.0666886568069458
6.0,0.061999477446079254
7.0,0.05787041783332825
8.0,0.05404018983244896
9.0,0.05063026770949364
10.0,0.04761236160993576
11.0,0.044610120356082916
12.0,0.041879430413246155
13.0,0.03935167193412781
14.0,0.036713916808366776
15.0,0.03433142974972725
16.0,0.03237757086753845
18.0,0.029301520437002182
20.0,0.027036912739276886
22.0,0.025156309828162193
24.0,0.023286933079361916
26.0,0.02101995050907135
28.0,0.018536722287535667
30.0,0.016089027747511864
32.0,0.014295976608991623
36.0,0.012480847537517548
40.0,0.011599834077060223
44.0,0.010805141180753708
48.0,0.009016518481075764
52.0,0.006617540027946234
56.0,0.0048525528982281685
60.0,0.004015409387648106
64.0,0.0042134118266403675
72.0,0.003499893704429269
80.0,0.003954058047384024
88.0,0.0036386745050549507
96.0,0.004636144731193781
104.0,0.005164892878383398
112.0,0.006824183277785778
120.0,0.008208059705793858
128.0,0.008197561837732792
144.0,0.005771967116743326
160.0,0.002306383103132248
176.0,0.0008530992781743407
192.0,-0.0012577977031469345
208.0,-0.0014244400663301349
224.0,-0.00035145526635460556
240.0,0.0038420758210122585
256.0,0.001739727915264666
288.0,-0.0014330679550766945
320.0,-0.004112244118005037
352.0,-0.0013519313652068377
384.0,0.0009501915774308145
416.0,-0.001067001256160438
448.0,-0.0017649802612140775
480.0,0.0004700650169979781
512.0,-0.0002678138844203204
576.0,-0.0028331629000604153
640.0,-0.0015972882974892855
704.0,-0.0019160949159413576
768.0,0.0013590874150395393
832.0,-0.0018392049241811037
896.0,0.00024760267115198076
960.0,0.0012555363355204463
1024.0,0.0004679193370975554
1152.0,-0.0025541125796735287
1280.0,-0.0014802301302552223
1408.0,-0.0005429303855635226
1536.0,-0.0014829965075477958
1664.0,0.0004161249380558729
1792.0,-0.00014180292782839388
1920.0,-0.005465577356517315
2048.0,-0.003165947273373604
2304.0,0.0016690634656697512
2560.0,0.0026133600622415543
2816.0,-0.0010228692553937435
3072.0,-0.00022557565534953028
3328.0,0.0015761599643155932
3584.0,-0.0010930572170764208
3840.0,0.0008006105781532824
4096.0,-0.000696335278917104
4608.0,-0.0009227690752595663
5120.0,0.0010322623420506716
5632.0,-0.0019319760613143444
6144.0,0.0003894493274856359
6656.0,0.0007799082668498158
7168.0,0.0004376329598017037
7680.0,9.201004286296666e-05
8192.0,-0.00026225217152386904
9216.0,0.0014547802275046706
10240.0,-0.0026804758235812187
11264.0,0.0008221621392294765
12288.0,-8.454376074951142e-05
13312.0,-0.002268949756398797
14336.0,0.00224901526235044
end
