version,3.0
numOfCh,1
type,point
parent_name,200-cuts
ch_type,1_1
kcount,1
numberNandB,1
brightnessNandB,1
carpet pos,0
pc,0
Time (ms),CH1 Auto-Correlation
1.0,0.02842322178184986
2.0,0.025937991216778755
3.0,0.02379906177520752
4.0,0.02195166051387787
5.0,0.020335648208856583
6.0,0.018916193395853043
7.0,0.017630210146307945
8.0,0.016484908759593964
9.0,0.015450545586645603
10.0,0.014501889236271381
11.0,0.013614797033369541
12.0,0.012827886268496513
13.0,0.012033306062221527
14.0,0.011273317039012909
15.0,0.010566231794655323
16.0,0.009899252094328403
18.0,0.008717959746718407
20.0,0.007695918902754784
22.0,0.006936765741556883
24.0,0.006249514874070883
26.0,0.0056589809246361256
28.0,0.0051583354361355305
30.0,0.004734441637992859
32.0,0.004385650623589754
36.0,0.0037901834584772587
40.0,0.00314557203091681
44.0,0.00251215067692101
48.0,0.002194561529904604
52.0,0.0020454099867492914
56.0,0.0017759082838892937
60.0,0.0015851270873099566
64.0,0.0015113846166059375
72.0,0.0015361345140263438
80.0,0.001895384630188346
88.0,0.0020538836251944304
96.0,0.0015462536830455065
104.0,0.0007789976079948246
112.0,0.0005524493753910065
120.0,0.000519261637236923
128.0,0.0005696588195860386
144.0,-4.81216557091102e-05
160.0,0.00033174658892676234
176.0,0.00037565146340057254
192.0,0.0005134299863129854
208.0,0.0008086620946414769
224.0,0.0010042756330221891
240.0,0.0006384844891726971
256.0,0.00023413794406224042
288.0,-0.00023700151359662414
320.0,7.478824409190565e-05
352.0,0.0010449807159602642
384.0,0.0014564796583727002
416.0,0.0012686440022662282
448.0,-0.00025831005768850446
480.0,0.0002096592797897756
512.0,0.001285778940655291
576.0,-0.00018329232989344746
640.0,0.0006458217976614833
704.0,0.0007117046625353396
768.0,-0.00015386454469989985
832.0,-0.0005845677806064487
896.0,0.00022814160911366343
960.0,-0.00028408068465068936
1024.0,-0.00043695102795027196
1152.0,-0.0003503680054564029
1280.0,0.00039363771793432534
1408.0,-0.00023601268185302615
1536.0,-0.0008877046057023108
1664.0,-0.0002220627065980807
1792.0,-0.000515126041136682
1920.0,0.0003088015946559608
2048.0,0.0007973259198479354
2304.0,0.00015159657050389796
2560.0,6.161163037177175e-05
2816.0,4.068881753482856e-05
3072.0,1.3426717487163842e-05
3328.0,0.00045897645759396255
3584.0,-0.000491960090585053
3840.0,-0.0004320787265896797
4096.0,-0.0006715576164424419
4608.0,-0.0010655226651579142
5120.0,0.0006683943211100996
5632.0,0.0005705943331122398
6144.0,0.0002872402546927333
6656.0,-0.0002581588632892817
7168.0,6.783787102904171e-05
7680.0,-0.0005644375924021006
8192.0,0.0005012867040932178
9216.0,-0.00011906521103810519
10240.0,0.00027817164664156735
11264.0,-0.0011561585124582052
12288.0,-0.0004674301017075777
13312.0,-0.0008995540556497872
14336.0,-0.0004598364175762981
end
