version,3.0
numOfCh,1
type,point
parent_name,200-cuts
ch_type,1_1
kcount,1
numberNandB,1
brightnessNandB,1
carpet pos,0
pc,0
Time (ms),CH1 Auto-Correlation
1.0,0.0897861123085022
2.0,0.08188361674547195
3.0,0.07531047612428665
4.0,0.06935906410217285
5.0,0.06410643458366394
6.0,0.05962143465876579
7.0,0.05568496510386467
8.0,0.052110105752944946
9.0,0.048851512372493744
10.0,0.045923855155706406
11.0,0.043198250234127045
12.0,0.040866438299417496
13.0,0.03874332457780838
14.0,0.03674628958106041
15.0,0.034818682819604874
16.0,0.03327509015798569
18.0,0.031031090766191483
20.0,0.029232777655124664
22.0,0.028245065361261368
24.0,0.027502119541168213
26.0,0.026514871045947075
28.0,0.025487298145890236
30.0,0.024563195183873177
32.0,0.02405102178454399
36.0,0.023242581635713577
40.0,0.023335367441177368
44.0,0.022372005507349968
48.0,0.020536866039037704
52.0,0.018498262390494347
56.0,0.01685856655240059
60.0,0.014981779269874096
64.0,0.013197916559875011
72.0,0.010683262720704079
80.0,0.008875912986695766
88.0,0.007684864569455385
96.0,0.007474310230463743
104.0,0.0089559406042099
112.0,0.008005090057849884
120.0,0.007113487459719181
128.0,0.006195001769810915
144.0,0.0054549784399569035
160.0,0.0031984716188162565
176.0,0.0025036714505404234
192.0,0.0019258165266364813
208.0,0.0006732504698447883
224.0,0.00043107251985929906
240.0,0.0013041108613833785
256.0,-0.0008889692835509777
288.0,0.00020756390586029738
320.0,0.0009151773992925882
352.0,1.6478847101097926e-05
384.0,0.002000095322728157
416.0,0.0018476260593160987
448.0,0.0020999570842832327
480.0,0.0002719433978199959
512.0,-0.0019727624021470547
576.0,-0.002116721821948886
640.0,-0.004260461777448654
704.0,-0.0008767973049543798
768.0,0.0005047706072218716
832.0,0.002236083848401904
896.0,-0.0004916153848171234
960.0,0.0004009102704003453
1024.0,-0.00013865946675650775
1152.0,-0.0005093773361295462
1280.0,0.0019866200163960457
1408.0,0.00043411963270045817
1536.0,-0.0006548541132360697
1664.0,0.004657064098864794
1792.0,-0.001720814616419375
1920.0,-0.002046922454610467
2048.0,-0.0033979061990976334
2304.0,0.002059892751276493
2560.0,0.0015724573750048876
2816.0,0.0007588880253024399
3072.0,0.0003202758962288499
3328.0,0.00021735821792390198
3584.0,-0.0003800292615778744
3840.0,0.002907545305788517
4096.0,0.0017111985944211483
4608.0,-0.0003873186360578984
5120.0,-0.0018396812956780195
5632.0,-0.0019164762925356627
6144.0,-0.0032102048862725496
6656.0,-0.0016999460058286786
7168.0,0.000705868354998529
7680.0,-0.000975722330622375
8192.0,-0.000336791155859828
9216.0,-0.0006998814060352743
10240.0,-0.0021288031712174416
11264.0,0.00047301832819357514
12288.0,0.0002176254929509014
13312.0,0.0005969474441371858
14336.0,0.00043712230399250984
end
