version,3.0
numOfCh,1
type,point
parent_name,200-cuts
ch_type,1_1
kcount,1
numberNandB,1
brightnessNandB,1
carpet pos,0
pc,0
Time (ms),CH1 Auto-Correlation
1.0,0.08327630907297134
2.0,0.07551808655261993
3.0,0.0690469965338707
4.0,0.06343255937099457
5.0,0.05850435048341751
6.0,0.054115939885377884
7.0,0.049980662763118744
8.0,0.04622183367609978
9.0,0.04305395483970642
10.0,0.04038721323013306
11.0,0.037918683141469955
12.0,0.03579235076904297
13.0,0.03391772136092186
14.0,0.03207414969801903
15.0,0.03007926046848297
16.0,0.028257247060537338
18.0,0.025076599791646004
20.0,0.022374048829078674
22.0,0.0202637929469347
24.0,0.01855134591460228
26.0,0.01732596941292286
28.0,0.0160451028496027
30.0,0.015354056842625141
32.0,0.014764871448278427
36.0,0.013428173027932644
40.0,0.011386099271476269
44.0,0.00927637331187725
48.0,0.007749526295810938
52.0,0.0070473672822117805
56.0,0.006673823576420546
60.0,0.0063756536692380905
64.0,0.006257313769310713
72.0,0.0041376277804374695
80.0,0.0008543103467673063
88.0,-0.0009555156575515866
96.0,-0.002013238612562418
104.0,-0.0026897331699728966
112.0,-0.0025648477021604776
120.0,-0.0020822330843657255
128.0,-0.001249907654710114
144.0,-0.00019212777260690928
160.0,0.002527287695556879
176.0,0.003356647677719593
192.0,0.001921756425872445
208.0,0.00037996319588273764
224.0,-7.25602512829937e-05
240.0,0.00022539026394952089
256.0,0.00011000626545865089
288.0,0.0022880404721945524
320.0,0.0023736050352454185
352.0,0.004453927278518677
384.0,0.00249510002322495
416.0,0.0010701552964746952
448.0,-0.0008264692150987685
480.0,-0.0007731506484560668
512.0,-0.0006904317415319383
576.0,-0.0030528779607266188
640.0,-0.002072906820103526
704.0,0.0015111695975065231
768.0,0.001439455896615982
832.0,-0.0003305826394353062
896.0,-0.001737907761707902
960.0,0.00032679649302735925
1024.0,0.0005588784697465599
1152.0,0.002194196218624711
1280.0,-0.000566579052247107
1408.0,-0.00044642420834861696
1536.0,-0.0008877124055288732
1664.0,-0.0004989157314412296
1792.0,-0.0005687958910129964
1920.0,0.0005174898542463779
2048.0,-0.00018008014012593776
2304.0,-0.0022108701523393393
2560.0,0.0005638097645714879
2816.0,0.0013626145664602518
3072.0,0.0024055917747318745
3328.0,-0.000825474679004401
3584.0,-0.0009087774669751525
3840.0,-4.524851101450622e-05
4096.0,0.0007909003179520369
4608.0,0.0007488362025469542
5120.0,0.0012668078998103738
5632.0,0.0005962041323073208
6144.0,-0.0011431011371314526
6656.0,-0.00019622538820840418
7168.0,-0.0011442716931924224
7680.0,-0.0014333002036437392
8192.0,0.0007191543700173497
9216.0,-0.0010056451428681612
10240.0,-0.0016662039561197162
11264.0,-4.605801950674504e-05
12288.0,0.0002445884165354073
13312.0,-0.0031677898950874805
14336.0,-0.001095277490094304
end
