version,3.0
numOfCh,1
type,point
parent_name,200-cuts
ch_type,1_1
kcount,1
numberNandB,1
brightnessNandB,1
carpet pos,0
pc,0
Time (ms),CH1 Auto-Correlation
1.0,0.04157375171780586
2.0,0.03812320530414581
3.0,0.03513403981924057
4.0,0.03250532224774361
5.0,0.0302831269800663
6.0,0.028291327878832817
7.0,0.026580097153782845
8.0,0.025039710104465485
9.0,0.0237074363976717
10.0,0.02255641110241413
11.0,0.021448105573654175
12.0,0.020407019183039665
13.0,0.019438784569501877
14.0,0.01842743158340454
15.0,0.01751866191625595
16.0,0.016634561121463776
18.0,0.01520553883165121
20.0,0.013961096294224262
22.0,0.012983376160264015
24.0,0.012092698365449905
26.0,0.011302981525659561
28.0,0.010468237102031708
30.0,0.0097276009619236
32.0,0.00900684017688036
36.0,0.00787249207496643
40.0,0.007035588845610619
44.0,0.006185520906001329
48.0,0.004879985935986042
52.0,0.003923115786164999
56.0,0.00319625879637897
60.0,0.0023571131750941277
64.0,0.0019525709794834256
72.0,0.0011572332587093115
80.0,-0.0006419692072086036
88.0,-0.002438226481899619
96.0,-0.0029284677002578974
104.0,-0.0022153882309794426
112.0,-0.001942953560501337
120.0,-0.0021608113311231136
128.0,-0.0023329132236540318
144.0,-0.0023538731038570404
160.0,-0.0025149350985884666
176.0,-0.002000746550038457
192.0,-0.0007787276990711689
208.0,-0.0016129374271258712
224.0,-0.0019803568720817566
240.0,-0.0019163931719958782
256.0,-0.0015309230657294393
288.0,-0.0014624502509832382
320.0,0.00035074548213742673
352.0,0.0013071285793557763
384.0,0.0001134143240051344
416.0,3.82203288609162e-05
448.0,-0.000615315162576735
480.0,-0.0007760360604152083
512.0,-0.0013131048763170838
576.0,0.0009855389362201095
640.0,0.002242815913632512
704.0,0.00016085787501651794
768.0,0.0005296709132380784
832.0,0.0028087690006941557
896.0,0.00021676621690858155
960.0,-0.0013950059656053782
1024.0,-6.654841126874089e-05
1152.0,-6.410323840100318e-05
1280.0,0.0015904660103842616
1408.0,0.0005881800316274166
1536.0,0.0002716115559451282
1664.0,-0.0009230622090399265
1792.0,-0.0005196639685891569
1920.0,0.0008485689177177846
2048.0,-0.0005495693767443299
2304.0,0.00012540165334939957
2560.0,-0.00011033652845071629
2816.0,-4.701274883700535e-05
3072.0,-0.001103149144910276
3328.0,-3.72807371604722e-05
3584.0,-5.658027657773346e-05
3840.0,-0.0010019611800089478
4096.0,0.00040747338789515197
4608.0,-0.0007798802689649165
5120.0,-0.000445320998551324
5632.0,-0.00013032485730946064
6144.0,-0.0006236055633053184
6656.0,-0.00045536243123933673
7168.0,6.054101322661154e-05
7680.0,0.00038050691364333034
8192.0,0.000329869071720168
9216.0,0.0008775997557677329
10240.0,0.0002425534912617877
11264.0,0.0004436141171026975
12288.0,-0.00015791022451594472
13312.0,-0.0009040756849572062
14336.0,-0.0011136564426124096
end
