version,3.0
numOfCh,1
type,point
parent_name,200-cuts
ch_type,1_1
kcount,1
numberNandB,1
brightnessNandB,1
carpet pos,0
pc,0
Time (ms),CH1 Auto-Correlation
1.0,0.09649849683046341
2.0,0.08885238319635391
3.0,0.08228477090597153
4.0,0.07656560838222504
5.0,0.07178784906864166
6.0,0.06737904250621796
7.0,0.06344328075647354
8.0,0.059962235391139984
9.0,0.056798987090587616
10.0,0.05397254601120949
11.0,0.05142899230122566
12.0,0.049064282327890396
13.0,0.046689119189977646
14.0,0.04466421157121658
15.0,0.04281313344836235
16.0,0.04102465137839317
18.0,0.03816107660531998
20.0,0.03554636612534523
22.0,0.03329620137810707
24.0,0.03112935461103916
26.0,0.029243895784020424
28.0,0.02718381956219673
30.0,0.025242120027542114
32.0,0.02342885173857212
36.0,0.021102389320731163
40.0,0.018886251375079155
44.0,0.017026806250214577
48.0,0.01545274630188942
52.0,0.01452593132853508
56.0,0.013948389329016209
60.0,0.012318623252213001
64.0,0.011257932521402836
72.0,0.009833818301558495
80.0,0.007054965477436781
88.0,0.004871179815381765
96.0,0.004023014102131128
104.0,0.0035274887923151255
112.0,0.0040665254928171635
120.0,0.004062571097165346
128.0,0.0045234691351652145
144.0,0.0035640078131109476
160.0,0.0031875239219516516
176.0,0.0027199808973819017
192.0,0.0017335776938125491
208.0,0.00011885080311913043
224.0,0.00022180481755640358
240.0,0.0009383652941323817
256.0,3.312465196358971e-05
288.0,-0.0005587565246969461
320.0,0.0007540081278420985
352.0,0.003348330967128277
384.0,0.00021267808915581554
416.0,0.0027590268291532993
448.0,0.0012577725574374199
480.0,-0.0033441020641475916
512.0,-0.005330920219421387
576.0,-0.004111174028366804
640.0,-0.002959073521196842
704.0,0.0005102069699205458
768.0,-0.0010863972129300237
832.0,-0.0017587774200364947
896.0,-0.0023215804249048233
960.0,0.0023697831202298403
1024.0,0.004235999658703804
1152.0,-5.551938738790341e-05
1280.0,-0.0008901343680918217
1408.0,-0.00022404837363865227
1536.0,0.00431875791400671
1664.0,-0.0005709280958399177
1792.0,-0.0022500604391098022
1920.0,-0.0014227142091840506
2048.0,0.004062490537762642
2304.0,0.003704165108501911
2560.0,-0.0010122904786840081
2816.0,-0.0038724495097994804
3072.0,0.0014287078520283103
3328.0,-0.0021223470102995634
3584.0,-0.0019317048136144876
3840.0,0.0015499732689931989
4096.0,-0.0014242331963032484
4608.0,0.0011112280189990997
5120.0,-0.0024667810648679733
5632.0,5.879824675503187e-05
6144.0,0.0009036835981532931
6656.0,-0.0007872815476730466
7168.0,-0.0016672337660565972
7680.0,0.005863216705620289
8192.0,-0.004430836532264948
9216.0,-0.0012913666432723403
10240.0,0.000658892618957907
11264.0,-0.0007497735205106437
12288.0,4.953573807142675e-05
13312.0,0.00039784301770851016
14336.0,-0.005745159927755594
end
