version,3.0
numOfCh,1
type,point
parent_name,200-cuts
ch_type,1_1
kcount,1
numberNandB,1
brightnessNandB,1
carpet pos,0
pc,0
Time (ms),CH1 Auto-Correlation
1.0,0.04098992049694061
2.0,0.03741264343261719
3.0,0.03433346003293991
4.0,0.031700052320957184
5.0,0.02944793365895748
6.0,0.02742757275700569
7.0,0.025574836879968643
8.0,0.023991510272026062
9.0,0.022518793120980263
10.0,0.021172931417822838
11.0,0.02000758983194828
12.0,0.018949944525957108
13.0,0.01790698431432247
14.0,0.016961906105279922
15.0,0.016082221642136574
16.0,0.01528506726026535
18.0,0.013816183432936668
20.0,0.012559901922941208
22.0,0.011609398759901524
24.0,0.010584735311567783
26.0,0.0097514558583498
28.0,0.008756414987146854
30.0,0.007810591720044613
32.0,0.006923580542206764
36.0,0.005284492392092943
40.0,0.003949184902012348
44.0,0.00262032775208354
48.0,0.0015882659936323762
52.0,0.0008466150611639023
56.0,0.0002892469346988946
60.0,4.497432746575214e-05
64.0,-1.3798073268844746e-05
72.0,-9.919179865391925e-05
80.0,-0.0001357744913548231
88.0,-0.00015761618851684034
96.0,-0.0008707853849045932
104.0,-0.000990377040579915
112.0,-0.0008363319793716073
120.0,-0.001073557185009122
128.0,-0.000551649194676429
144.0,0.000615436234511435
160.0,0.00016885426884982735
176.0,0.00043038782314397395
192.0,0.0011601774021983147
208.0,0.00015633439761586487
224.0,-0.0014130024937912822
240.0,-0.0015039438148960471
256.0,-0.0015325265703722835
288.0,-0.0009826362365856767
320.0,-0.0009149926481768489
352.0,-0.001574252382852137
384.0,-0.0002722961944527924
416.0,0.0003213228774257004
448.0,8.714485738892108e-05
480.0,0.0012373768258839846
512.0,0.0008437791839241982
576.0,-0.00011399672803236172
640.0,-0.0002467055164743215
704.0,0.00025368077331222594
768.0,-0.0008718073950149119
832.0,-4.7586829168722034e-05
896.0,-8.075770892901346e-05
960.0,0.0013269591145217419
1024.0,0.00028869343805126846
1152.0,-0.0006674012984149158
1280.0,0.00023908478033263236
1408.0,0.0006670566508546472
1536.0,-0.00162464939057827
1664.0,-0.0008878186927177012
1792.0,-0.00011394535249564797
1920.0,0.0005717112799175084
2048.0,-0.001681012101471424
2304.0,-0.000733246561139822
2560.0,0.0006142902420833707
2816.0,-0.00020637057605199516
3072.0,-0.0007849736139178276
3328.0,0.00014013722829986364
3584.0,0.000857424340210855
3840.0,-0.00060076336376369
4096.0,-0.0007620723336003721
4608.0,0.0006630071438848972
5120.0,0.00033464093576185405
5632.0,-0.0005534050869755447
6144.0,0.0003905180492438376
6656.0,-0.0012840835843235254
7168.0,0.0004765208868775517
7680.0,-0.0005230872193351388
8192.0,0.0004488279519136995
9216.0,-0.00026670581428334117
10240.0,-5.315797170624137e-05
11264.0,0.0003200523497071117
12288.0,0.00030292599694803357
13312.0,-0.0001883125805761665
14336.0,0.00023487616272177547
end
