version,3.0
numOfCh,1
type,point
parent_name,200-cuts
ch_type,1_1
kcount,1
numberNandB,1
brightnessNandB,1
carpet pos,0
pc,0
Time (ms),CH1 Auto-Correlation
1.0,0.0899415984749794
2.0,0.08242279291152954
3.0,0.07598593831062317
4.0,0.07045190036296844
5.0,0.06573126465082169
6.0,0.061648476868867874
7.0,0.05802904814481735
8.0,0.05515718832612038
9.0,0.052626971155405045
10.0,0.050091374665498734
11.0,0.04760867357254028
12.0,0.045257341116666794
13.0,0.04310373216867447
14.0,0.04119468480348587
15.0,0.039256833493709564
16.0,0.03744801878929138
18.0,0.03380590304732323
20.0,0.03083464503288269
22.0,0.028680885210633278
24.0,0.02695162408053875
26.0,0.025541141629219055
28.0,0.02408127672970295
30.0,0.02240316942334175
32.0,0.020964674651622772
36.0,0.01929447613656521
40.0,0.016810866072773933
44.0,0.015116389840841293
48.0,0.013950765132904053
52.0,0.012479869648814201
56.0,0.01115304697304964
60.0,0.0097595090046525
64.0,0.008200089447200298
72.0,0.0054060667753219604
80.0,0.003508229972794652
88.0,0.0028349619824439287
96.0,0.0032777413725852966
104.0,0.0037967415992170572
112.0,0.002648675348609686
120.0,0.0008145726751536131
128.0,-0.0014035510830581188
144.0,-0.0008375195320695639
160.0,-0.002288720104843378
176.0,-0.0017281838227063417
192.0,0.0006384624284692109
208.0,0.0018290731823071837
224.0,0.0003713096957653761
240.0,-0.0013565975241363049
256.0,-0.002242317656055093
288.0,-0.004880840424448252
320.0,-0.0037857061251997948
352.0,0.0021203719079494476
384.0,0.0032989936880767345
416.0,0.0011632799869403243
448.0,0.00021509760699700564
480.0,-0.0011350794229656458
512.0,-0.0025158382486552
576.0,0.0020082329865545034
640.0,0.002563223708420992
704.0,0.00022521507344208658
768.0,0.0005628446815535426
832.0,-0.002331626368686557
896.0,-0.003935026004910469
960.0,0.0003430814831517637
1024.0,0.0011262152111157775
1152.0,0.004365876317024231
1280.0,-0.003505958244204521
1408.0,-0.0026604251470416784
1536.0,-0.001458012848161161
1664.0,0.0029509132727980614
1792.0,0.0033637131564319134
1920.0,0.0008687048102729023
2048.0,-0.0014664282789453864
2304.0,-0.004437781870365143
2560.0,-0.0018932817038148642
2816.0,-0.0007369531085714698
3072.0,0.00039960030699148774
3328.0,-0.00042645688517950475
3584.0,0.00042826728895306587
3840.0,-0.0013445054646581411
4096.0,-0.0009871537331491709
4608.0,0.00037931371480226517
5120.0,-0.0002889827301260084
5632.0,-0.00228499760851264
6144.0,-0.0011379510397091508
6656.0,0.0008409760775975883
7168.0,8.271697151940316e-05
7680.0,0.001502058352343738
8192.0,0.0031026785727590322
9216.0,0.00040860832086764276
10240.0,-0.002799122827127576
11264.0,0.00039846578147262335
12288.0,0.001439714222215116
13312.0,-0.0006674189935438335
14336.0,0.00015602968051098287
end
