version,3.0
numOfCh,1
type,point
parent_name,200-cuts
ch_type,1_1
kcount,1
numberNandB,1
brightnessNandB,1
carpet pos,0
pc,0
Time (ms),CH1 Auto-Correlation
1.0,0.0899265855550766
2.0,0.08195960521697998
3.0,0.07500039786100388
4.0,0.06905379891395569
5.0,0.06373687833547592
6.0,0.0592363066971302
7.0,0.05527773126959801
8.0,0.051671095192432404
9.0,0.04840332642197609
10.0,0.04535812512040138
11.0,0.0427599661052227
12.0,0.04044453799724579
13.0,0.038206133991479874
14.0,0.03615860641002655
15.0,0.03422045335173607
16.0,0.032630566507577896
18.0,0.029791146516799927
20.0,0.027274511754512787
22.0,0.02507118135690689
24.0,0.022806335240602493
26.0,0.020510660484433174
28.0,0.01857866533100605
30.0,0.01729632541537285
32.0,0.015990180894732475
36.0,0.013077797368168831
40.0,0.010882535949349403
44.0,0.009456073865294456
48.0,0.009058898314833641
52.0,0.00830658059567213
56.0,0.007898274809122086
60.0,0.008605639450252056
64.0,0.00912709441035986
72.0,0.0075563048012554646
80.0,0.005179137922823429
88.0,0.0032386069651693106
96.0,0.0013921699719503522
104.0,-0.00012260845687706023
112.0,0.00010586884309304878
120.0,0.0012209978885948658
128.0,0.0025529288686811924
144.0,0.0039887395687401295
160.0,0.0043542892672121525
176.0,0.005010537337511778
192.0,0.005103682167828083
208.0,0.002481881296262145
224.0,0.004219620954245329
240.0,0.0020800456404685974
256.0,0.0027484605088829994
288.0,0.005663233809173107
320.0,0.002691256580874324
352.0,0.0028158577624708414
384.0,0.0011485426221042871
416.0,0.00031853298423811793
448.0,-0.0016903836512938142
480.0,-0.0007591095636598766
512.0,0.000859446357935667
576.0,0.0027124180924147367
640.0,0.00033975052065216005
704.0,-0.004778969567269087
768.0,-0.003482668660581112
832.0,-0.0025240664836019278
896.0,-0.0001230376510648057
960.0,-0.001560400822199881
1024.0,-0.0021759236697107553
1152.0,0.0024942466989159584
1280.0,0.0025153765454888344
1408.0,0.00043528759852051735
1536.0,0.0032758181914687157
1664.0,0.0018456873949617147
1792.0,-0.0014452346367761493
1920.0,-0.0015891395742073655
2048.0,-0.002009420422837138
2304.0,0.00016394563135690987
2560.0,0.0018975745188072324
2816.0,-0.0006418933626264334
3072.0,-0.004419287666678429
3328.0,-0.005011722445487976
3584.0,-0.00020137244428042322
3840.0,0.0015912767266854644
4096.0,0.0008185411570593715
4608.0,-4.700565477833152e-05
5120.0,0.0007727985503152013
5632.0,0.00041513200267218053
6144.0,0.0016635502688586712
6656.0,-0.0006856012041680515
7168.0,-0.00030969252111390233
7680.0,-0.0001628586178412661
8192.0,-0.0025137485936284065
9216.0,-0.0019089443376287818
10240.0,-6.57401955095338e-08
11264.0,0.00246192654594779
12288.0,0.0005514784133993089
13312.0,-0.00343308481387794
14336.0,-0.011326010338962078
end
