version,3.0
numOfCh,1
type,point
parent_name,200-cuts
ch_type,1_1
kcount,1
numberNandB,1
brightnessNandB,1
carpet pos,0
pc,0
Time (ms),CH1 Auto-Correlation
1.0,0.08707476407289505
2.0,0.07952798902988434
3.0,0.07290488481521606
4.0,0.06700827926397324
5.0,0.06201404705643654
6.0,0.057600632309913635
7.0,0.053759653121232986
8.0,0.050273943692445755
9.0,0.047384776175022125
10.0,0.044641636312007904
11.0,0.04214821755886078
12.0,0.039887890219688416
13.0,0.037863701581954956
14.0,0.03624359890818596
15.0,0.03471769019961357
16.0,0.03326195105910301
18.0,0.030514540150761604
20.0,0.028301745653152466
22.0,0.02665628492832184
24.0,0.02504565380513668
26.0,0.023331372067332268
28.0,0.021827127784490585
30.0,0.020153755322098732
32.0,0.018452418968081474
36.0,0.015410799533128738
40.0,0.01366294827312231
44.0,0.011879903264343739
48.0,0.010387616232037544
52.0,0.009217027574777603
56.0,0.008719599805772305
60.0,0.00782136619091034
64.0,0.006867344956845045
72.0,0.003927495330572128
80.0,0.0013917157193645835
88.0,0.0004608180606737733
96.0,0.0001301176380366087
104.0,-0.0011954500805586576
112.0,-0.0018646839307621121
120.0,-0.002235029824078083
128.0,-0.0031773794908076525
144.0,-0.0030085265170782804
160.0,-0.002693429123610258
176.0,0.0001992721518035978
192.0,-0.0009369613835588098
208.0,-0.0026552521158009768
224.0,-0.001242755213752389
240.0,-0.0013889194233343005
256.0,-0.0016751047223806381
288.0,-0.0018277934286743402
320.0,-0.0030138189904391766
352.0,-0.0023185615427792072
384.0,0.00018877946422435343
416.0,0.0005720850895158947
448.0,-4.6994002332212403e-05
480.0,0.0016203040722757578
512.0,0.006623357534408569
576.0,0.0037099963519722223
640.0,0.0009834804804995656
704.0,-0.0014924104325473309
768.0,-0.0020135550294071436
832.0,9.703711839392781e-05
896.0,0.0005326181999407709
960.0,-0.0008692178525961936
1024.0,0.0009868316119536757
1152.0,-0.0008530095219612122
1280.0,-0.0012500054435804486
1408.0,-0.0013364361366257071
1536.0,0.0019858689047396183
1664.0,0.000910278526134789
1792.0,0.0023450409062206745
1920.0,-0.0010070892749354243
2048.0,-0.00047282828018069267
2304.0,0.0021393795032054186
2560.0,-0.00040132811409421265
2816.0,0.000735276029445231
3072.0,0.00032901662052609026
3328.0,-0.002564459340646863
3584.0,0.002091515576466918
3840.0,-0.002708100015297532
4096.0,0.0017233123071491718
4608.0,-0.0001993760233744979
5120.0,-3.2235169783234596e-05
5632.0,-0.0016613207990303636
6144.0,0.00041745021007955074
6656.0,0.00027047921321354806
7168.0,-0.001064123003743589
7680.0,-0.00047093522152863443
8192.0,-0.0014734097057953477
9216.0,0.00011386458209017292
10240.0,-0.0016761518782004714
11264.0,0.00013009247777517885
12288.0,-0.0003503638436086476
13312.0,0.00032793430727906525
14336.0,0.00026837369659915566
end
