version,3.0
numOfCh,1
type,point
parent_name,200-cuts
ch_type,1_1
kcount,1
numberNandB,1
brightnessNandB,1
carpet pos,0
pc,0
Time (ms),CH1 Auto-Correlation
1.0,0.02671697363257408
2.0,0.024311093613505363
3.0,0.02220681495964527
4.0,0.020329711958765984
5.0,0.018625902011990547
6.0,0.017133742570877075
7.0,0.015771491453051567
8.0,0.014480424113571644
9.0,0.013357195071876049
10.0,0.01238678302615881
11.0,0.011479423381388187
12.0,0.010665765032172203
13.0,0.009976104833185673
14.0,0.009291923604905605
15.0,0.008689772337675095
16.0,0.008139999583363533
18.0,0.007205793634057045
20.0,0.00638960488140583
22.0,0.005635281093418598
24.0,0.005033043213188648
26.0,0.004517281893640757
28.0,0.004116856958717108
30.0,0.00380496121942997
32.0,0.0035692467354238033
36.0,0.003349395701661706
40.0,0.00315986224450171
44.0,0.0027256193570792675
48.0,0.0024894699454307556
52.0,0.0025269673205912113
56.0,0.0026116485241800547
60.0,0.0024136495776474476
64.0,0.002119115088135004
72.0,0.0016167464200407267
80.0,0.0014392402954399586
88.0,0.0013158058281987906
96.0,0.000842874578665942
104.0,0.0007547925924882293
112.0,0.0006123965140432119
120.0,0.0002955304516945034
128.0,-0.0001869162661023438
144.0,7.047195686027408e-05
160.0,-0.000460978684714064
176.0,-5.160363798495382e-05
192.0,0.00010353387187933549
208.0,2.3040822270559147e-05
224.0,-0.0005273535498417914
240.0,-0.0007201456464827061
256.0,0.0002522871072869748
288.0,0.0007775112753733993
320.0,0.0006660310900770128
352.0,0.000529256765730679
384.0,-0.00012982607586309314
416.0,-0.0002755786990746856
448.0,-8.547306788386777e-05
480.0,0.00013002296327613294
512.0,-0.0004360012826509774
576.0,0.000245038972934708
640.0,0.0005060164839960635
704.0,-0.00037261791294440627
768.0,0.00013176082575228065
832.0,-5.0624534196686e-05
896.0,-0.0005523527506738901
960.0,-0.0004309957439545542
1024.0,-0.000154199093231
1152.0,-0.0006046933121979237
1280.0,-0.0010590471792966127
1408.0,-0.0005804644315503538
1536.0,-0.00047794674173928797
1664.0,-7.128320430638269e-05
1792.0,0.00036576020647771657
1920.0,0.0007177121588028967
2048.0,0.0007279821438714862
2304.0,2.1400208424893208e-05
2560.0,-0.00012794139911420643
2816.0,0.00030312011949718
3072.0,-0.0016093992162495852
3328.0,-0.00017117738025262952
3584.0,-0.0005692639388144016
3840.0,0.000496741384267807
4096.0,0.000255158229265362
4608.0,0.0001982360554393381
5120.0,-0.000758628360927105
5632.0,0.0004496352921705693
6144.0,0.0002886132278945297
6656.0,0.00017240502347704023
7168.0,-0.000885046785697341
7680.0,0.0001801237667677924
8192.0,0.0007779296138323843
9216.0,-0.0009012099471874535
10240.0,0.0006172433495521545
11264.0,-0.00025048453244380653
12288.0,0.0006206841790117323
13312.0,-0.0006846739561296999
14336.0,-0.0003035750414710492
end
