version,3.0
numOfCh,1
type,point
parent_name,200-cuts
ch_type,1_1
kcount,1
numberNandB,1
brightnessNandB,1
carpet pos,0
pc,0
Time (ms),CH1 Auto-Correlation
1.0,0.08652321994304657
2.0,0.07890362292528152
3.0,0.07206979393959045
4.0,0.06637029349803925
5.0,0.061541374772787094
6.0,0.05711357295513153
7.0,0.05324290320277214
8.0,0.0494992621243
9.0,0.046092528849840164
10.0,0.042880550026893616
11.0,0.04030404984951019
12.0,0.03783980756998062
13.0,0.03575626015663147
14.0,0.033844105899333954
15.0,0.032061025500297546
16.0,0.03059174120426178
18.0,0.027376646175980568
20.0,0.024346444755792618
22.0,0.02154090255498886
24.0,0.01881234720349312
26.0,0.016602355986833572
28.0,0.01485174335539341
30.0,0.013017606921494007
32.0,0.01127549260854721
36.0,0.008626679889857769
40.0,0.006679289508610964
44.0,0.006392223294824362
48.0,0.006321723572909832
52.0,0.0060230521485209465
56.0,0.005053140223026276
60.0,0.0035248950589448214
64.0,0.0024905174504965544
72.0,0.0033313347958028316
80.0,0.004099266137927771
88.0,0.0032693035900592804
96.0,0.0006937541766092181
104.0,-0.0009353128843940794
112.0,-0.0013801492750644684
120.0,-0.0011841959785670042
128.0,-0.0011053296038880944
144.0,0.0001029192644637078
160.0,0.0024501211009919643
176.0,0.006839127745479345
192.0,0.005019743461161852
208.0,0.0016235205112025142
224.0,0.0007124984404072165
240.0,0.001685292343609035
256.0,0.003379614558070898
288.0,0.0033662929199635983
320.0,-0.00039660916081629694
352.0,-0.004527166485786438
384.0,-0.002586787799373269
416.0,-0.004473691340535879
448.0,-0.003871222259476781
480.0,-0.0015968258958309889
512.0,-0.003726752009242773
576.0,-0.0008733178838156164
640.0,-0.0018967457581311464
704.0,0.0018045445904135704
768.0,-0.003023759229108691
832.0,-0.00033830635948106647
896.0,-0.00023011992743704468
960.0,-0.0037285867147147655
1024.0,-0.003817586461082101
1152.0,-0.0006327287410385907
1280.0,-8.634946425445378e-05
1408.0,0.0034701565746217966
1536.0,0.0003593782603275031
1664.0,0.0009429621859453619
1792.0,-0.0006373529904522002
1920.0,-0.002145797247067094
2048.0,-0.0003267288557253778
2304.0,0.00016819516895338893
2560.0,-0.0004014507576357573
2816.0,-0.0013009157264605165
3072.0,0.0011195667320862412
3328.0,0.0011715844739228487
3584.0,0.00030110988882370293
3840.0,0.00028884087805636227
4096.0,-0.0005070356419309974
4608.0,-0.000748706457670778
5120.0,-0.000930334790609777
5632.0,-0.00012389547191560268
6144.0,0.00047674725647084415
6656.0,0.00047850742703303695
7168.0,0.0021679445635527372
7680.0,-0.001465618726797402
8192.0,-0.0024643095675855875
9216.0,-0.00046314825885929167
10240.0,5.2012750529684126e-05
11264.0,-0.0007951997104100883
12288.0,-0.00010663904686225578
13312.0,0.0003462241729721427
14336.0,0.0016702167922630906
end
