version,3.0
numOfCh,1
type,point
parent_name,200-cuts
ch_type,1_1
kcount,1
numberNandB,1
brightnessNandB,1
carpet pos,0
pc,0
Time (ms),CH1 Auto-Correlation
1.0,0.038078635931015015
2.0,0.034485358744859695
3.0,0.0314369834959507
4.0,0.02885902114212513
5.0,0.026619408279657364
6.0,0.02459735982120037
7.0,0.022805143147706985
8.0,0.021154481917619705
9.0,0.01967397704720497
10.0,0.018228624016046524
11.0,0.016939841210842133
12.0,0.01580233871936798
13.0,0.014759146608412266
14.0,0.013911488465964794
15.0,0.013059275224804878
16.0,0.012210987508296967
18.0,0.010806244798004627
20.0,0.00972171314060688
22.0,0.008937668055295944
24.0,0.008278081193566322
26.0,0.007449972443282604
28.0,0.006909816525876522
30.0,0.006282603833824396
32.0,0.005648547317832708
36.0,0.004889972973614931
40.0,0.004084274638444185
44.0,0.003729212563484907
48.0,0.003883047727867961
52.0,0.003939600195735693
56.0,0.0032902834936976433
60.0,0.0028555812314152718
64.0,0.002494215965270996
72.0,0.0018962363246828318
80.0,0.0016945572569966316
88.0,0.0017125571612268686
96.0,0.001369633013382554
104.0,0.0014077047817409039
112.0,0.0021273947786539793
120.0,0.0018005759920924902
128.0,0.001066487398929894
144.0,0.0008401777013204992
160.0,5.233297633822076e-05
176.0,-0.0003129045944660902
192.0,-7.15152855264023e-05
208.0,0.0007068179547786713
224.0,0.0007030616980046034
240.0,-0.0005064873839728534
256.0,-0.0004530100559350103
288.0,-0.0002903639106079936
320.0,0.0005973000079393387
352.0,0.0003932606487069279
384.0,0.0008460035314783454
416.0,0.0009185677045024931
448.0,0.0006713944021612406
480.0,-8.507339953212067e-05
512.0,-0.0008807468111626804
576.0,-0.0009749812888912857
640.0,-0.00030402722768485546
704.0,-0.0005791370058432221
768.0,-0.0006493292166851461
832.0,-0.00022781155712436885
896.0,0.00016125943511724472
960.0,-0.0009226473048329353
1024.0,-0.000932058144826442
1152.0,-0.00041753108962439
1280.0,0.0006871848017908633
1408.0,-0.0004217558598611504
1536.0,0.00026081287069246173
1664.0,-0.0012744605774059892
1792.0,-0.0017433915054425597
1920.0,0.0001463825028622523
2048.0,-0.0014624027535319328
2304.0,0.0004187184094917029
2560.0,-0.000779869151301682
2816.0,0.0012521783355623484
3072.0,-0.00034112553112208843
3328.0,-0.0012128370581194758
3584.0,-0.0002841661626007408
3840.0,0.0013696993701159954
4096.0,0.0012185594532638788
4608.0,-0.0002024556597461924
5120.0,-0.0001901654904941097
5632.0,-0.00027194080757908523
6144.0,-0.0002332464646315202
6656.0,-4.2768195271492004e-05
7168.0,-0.00036106721381656826
7680.0,-0.0005266368389129639
8192.0,0.002150896703824401
9216.0,6.55939438729547e-05
10240.0,-0.0005078980466350913
11264.0,4.8682351916795596e-05
12288.0,-0.0007270673522725701
13312.0,-0.0004232497594784945
14336.0,0.0013329399516806006
end
