version,3.0
numOfCh,1
type,point
parent_name,200-cuts
ch_type,1_1
kcount,1
numberNandB,1
brightnessNandB,1
carpet pos,0
pc,0
Time (ms),CH1 Auto-Correlation
1.0,0.09976284205913544
2.0,0.09145301580429077
3.0,0.0840257778763771
4.0,0.07753945887088776
5.0,0.07194893807172775
6.0,0.06701113283634186
7.0,0.06278537213802338
8.0,0.059183649718761444
9.0,0.055753208696842194
10.0,0.052558302879333496
11.0,0.049630146473646164
12.0,0.046986449509859085
13.0,0.04474485293030739
14.0,0.04268746078014374
15.0,0.040520451962947845
16.0,0.038585662841796875
18.0,0.03496406227350235
20.0,0.031790975481271744
22.0,0.028555339202284813
24.0,0.025640400126576424
26.0,0.023652497678995132
28.0,0.022083377465605736
30.0,0.020495308563113213
32.0,0.019112836569547653
36.0,0.017756609246134758
40.0,0.01716754212975502
44.0,0.015509780496358871
48.0,0.013793367892503738
52.0,0.012714824639260769
56.0,0.011965479701757431
60.0,0.0117330402135849
64.0,0.011438135989010334
72.0,0.010181106626987457
80.0,0.009135732427239418
88.0,0.009547840803861618
96.0,0.010402226820588112
104.0,0.010986186563968658
112.0,0.010233424603939056
120.0,0.008167131803929806
128.0,0.007252558134496212
144.0,0.006037184502929449
160.0,0.0048074363730847836
176.0,0.003035180037841201
192.0,0.004184357356280088
208.0,0.002930153626948595
224.0,0.0017402173252776265
240.0,0.002094383118674159
256.0,0.003982676193118095
288.0,0.005467246752232313
320.0,0.0019324547611176968
352.0,-0.0016146539710462093
384.0,0.0011263972846791148
416.0,0.0012115429854020476
448.0,-0.0034448071382939816
480.0,-0.0015921633457764983
512.0,0.0025312593206763268
576.0,0.003928645979613066
640.0,-0.0019480700138956308
704.0,0.0006872398662380874
768.0,0.004041898529976606
832.0,0.004380065482109785
896.0,0.0008138894336298108
960.0,-0.0008156124968081713
1024.0,-0.0035807413514703512
1152.0,-0.0041403085924685
1280.0,-0.0008939745603129268
1408.0,0.0023025032132864
1536.0,7.842369086574763e-05
1664.0,0.004546263720840216
1792.0,-0.003318146802484989
1920.0,-0.004961471073329449
2048.0,-0.0029695462435483932
2304.0,0.0011959042167291045
2560.0,-0.0033577887807041407
2816.0,-0.0028698896057903767
3072.0,0.0012524581979960203
3328.0,-0.0004630003240890801
3584.0,-0.0034888547379523516
3840.0,0.00021529366495087743
4096.0,-0.0010537704220041633
4608.0,0.0007594419294036925
5120.0,-0.0022367944475263357
5632.0,0.0006762766861356795
6144.0,0.0031730937771499157
6656.0,-0.000619111058767885
7168.0,-0.0007610657485201955
7680.0,-0.001631360617466271
8192.0,-0.0015069448854774237
9216.0,-0.0030514500103890896
10240.0,-0.002953385002911091
11264.0,0.0011458282824605703
12288.0,0.004524899180978537
13312.0,0.0020431037992239
14336.0,-8.707901542948093e-06
end
