version,3.0
numOfCh,1
type,point
parent_name,200-cuts
ch_type,1_1
kcount,1
numberNandB,1
brightnessNandB,1
carpet pos,0
pc,0
Time (ms),CH1 Auto-Correlation
1.0,0.08335927873849869
2.0,0.0755203366279602
3.0,0.06868213415145874
4.0,0.06312671303749084
5.0,0.05827213078737259
6.0,0.054024506360292435
7.0,0.050390828400850296
8.0,0.04723278805613518
9.0,0.04437385872006416
10.0,0.04206801578402519
11.0,0.03989780694246292
12.0,0.03771214187145233
13.0,0.035658057779073715
14.0,0.0339292474091053
15.0,0.03211190551519394
16.0,0.030427228659391403
18.0,0.02753986418247223
20.0,0.024756334722042084
22.0,0.02264595590531826
24.0,0.020813152194023132
26.0,0.01909313164651394
28.0,0.017553016543388367
30.0,0.01564997062087059
32.0,0.013867820613086224
36.0,0.011524633504450321
40.0,0.009950642473995686
44.0,0.008288942277431488
48.0,0.006057245656847954
52.0,0.004644294735044241
56.0,0.0037780161947011948
60.0,0.003214691299945116
64.0,0.002837867010384798
72.0,0.0023874053731560707
80.0,0.0010548003483563662
88.0,0.0002489472390152514
96.0,-0.001075762789696455
104.0,-0.002080665435642004
112.0,-0.002659071935340762
120.0,-0.002136246534064412
128.0,-0.0007980359368957579
144.0,-0.0024125687777996063
160.0,-0.0016840664902701974
176.0,-0.0009056453709490597
192.0,0.001217226148582995
208.0,0.001666305004619062
224.0,0.00019836678984574974
240.0,-0.0016609388403594494
256.0,-0.0028509830590337515
288.0,-0.0013957088813185692
320.0,0.0031876300927251577
352.0,0.0031632266473025084
384.0,-0.0017460582312196493
416.0,-0.0021348746959120035
448.0,-0.0035957873333245516
480.0,-0.003319396171718836
512.0,-0.0020359165500849485
576.0,-0.0006864183815196157
640.0,0.0037562469951808453
704.0,0.00073351024184376
768.0,-0.0037413621321320534
832.0,-0.0036149711813777685
896.0,-0.0010243512224406004
960.0,0.00168199825566262
1024.0,0.0013105382677167654
1152.0,-0.0032453439198434353
1280.0,-0.0006223575328476727
1408.0,0.0017957242671400309
1536.0,0.0021889235358685255
1664.0,-8.102483116090298e-05
1792.0,-2.9271727726154495e-06
1920.0,-0.0018538576550781727
2048.0,-0.00026430204161442816
2304.0,-0.0016154220793396235
2560.0,-0.00437737163156271
2816.0,0.0027991102542728186
3072.0,0.0012003772426396608
3328.0,0.0006101513281464577
3584.0,0.0002924840955529362
3840.0,-0.0006924312910996377
4096.0,0.000419933523517102
4608.0,0.0010630154283717275
5120.0,0.00045343796955421567
5632.0,-0.0009806250454857945
6144.0,-0.00025689188623800874
6656.0,-0.0007060148636810482
7168.0,-0.0006104749627411366
7680.0,-0.00036992019158788025
8192.0,-6.32902592769824e-05
9216.0,0.0006691713933832943
10240.0,0.00016120924556162208
11264.0,-6.519736052723601e-05
12288.0,-0.0009677936905063689
13312.0,0.0008949108887463808
14336.0,-0.0002408498985460028
end
