version,3.0
numOfCh,1
type,point
parent_name,200-cuts
ch_type,1_1
kcount,1
numberNandB,1
brightnessNandB,1
carpet pos,0
pc,0
Time (ms),CH1 Auto-Correlation
1.0,0.02608942613005638
2.0,0.02366611734032631
3.0,0.021542802453041077
4.0,0.019688805565238
5.0,0.01808960922062397
6.0,0.016709716990590096
7.0,0.015493842773139477
8.0,0.014456444419920444
9.0,0.013487854041159153
10.0,0.012612185440957546
11.0,0.011719580739736557
12.0,0.011041616089642048
13.0,0.010399242863059044
14.0,0.009809940122067928
15.0,0.009300495497882366
16.0,0.008805186487734318
18.0,0.007912253960967064
20.0,0.007109253667294979
22.0,0.00636147940531373
24.0,0.005726915318518877
26.0,0.005196413490921259
28.0,0.00482551334425807
30.0,0.00447892164811492
32.0,0.004079016391187906
36.0,0.0034007669892162085
40.0,0.002845932962372899
44.0,0.002517702989280224
48.0,0.0020817022304981947
52.0,0.0015088218497112393
56.0,0.0011767164105549455
60.0,0.0011843090178444982
64.0,0.0012610884150490165
72.0,0.00089986965758726
80.0,0.00036088263732381165
88.0,0.00015331117901951075
96.0,0.00012307790166232735
104.0,-3.2434840250061825e-05
112.0,-9.13833937374875e-05
120.0,-0.00047909721615724266
128.0,-0.00041553625487722456
144.0,-0.0011596411932259798
160.0,-0.001155221601948142
176.0,-0.0008404184482060373
192.0,-0.0013886026572436094
208.0,-0.0010131463641300797
224.0,0.0001820827164920047
240.0,0.0005184633191674948
256.0,0.0006905790651217103
288.0,0.0015114365378394723
320.0,0.0008120235288515687
352.0,0.00016841146862134337
384.0,-0.00015776779036968946
416.0,-0.0004184727440588176
448.0,-0.0018053256208077073
480.0,-0.0014834824251011014
512.0,-0.00020536858937703073
576.0,0.00023366304230876267
640.0,2.255623803648632e-05
704.0,0.001294512185268104
768.0,0.0003864494792651385
832.0,0.000702757912222296
896.0,-0.00042509628110565245
960.0,-0.0004653659707400948
1024.0,-0.00044220327981747687
1152.0,-0.00029401102801784873
1280.0,0.00044527804129756987
1408.0,0.000482030474813655
1536.0,-0.0005482216947712004
1664.0,-0.0004733954556286335
1792.0,-0.0006743026315234601
1920.0,-0.0004644571163225919
2048.0,0.0002525108866393566
2304.0,-0.00012434649397619069
2560.0,0.0002690995461307466
2816.0,-0.0002504010044503957
3072.0,7.569844456156716e-05
3328.0,-5.548977787839249e-05
3584.0,-8.586022158851847e-05
3840.0,-4.4614098442252725e-05
4096.0,-0.0005543340812437236
4608.0,0.0004755159025080502
5120.0,-0.00037574945599772036
5632.0,0.0005480662803165615
6144.0,-0.0002479090471751988
6656.0,0.00016051277634687722
7168.0,-2.5821462259045802e-05
7680.0,-5.967136166873388e-05
8192.0,-0.00010302288137609139
9216.0,-0.0001741894375300035
10240.0,0.00038949609734117985
11264.0,-0.0005434334161691368
12288.0,-0.00046364584704861045
13312.0,-0.0003238444624003023
14336.0,3.337277303216979e-05
end
