version,3.0
numOfCh,1
type,point
parent_name,200-cuts
ch_type,1_1
kcount,1
numberNandB,1
brightnessNandB,1
carpet pos,0
pc,0
Time (ms),CH1 Auto-Correlation
1.0,0.09057601541280746
2.0,0.08265646547079086
3.0,0.07594913244247437
4.0,0.07004538923501968
5.0,0.064915232360363
6.0,0.06048191338777542
7.0,0.05654086917638779
8.0,0.05289135128259659
9.0,0.04935241490602493
10.0,0.04617789760231972
11.0,0.04350385069847107
12.0,0.040895115584135056
13.0,0.03878225013613701
14.0,0.036856040358543396
15.0,0.03478902578353882
16.0,0.03293295577168465
18.0,0.029489362612366676
20.0,0.026497190818190575
22.0,0.02358395978808403
24.0,0.021119194105267525
26.0,0.018755340948700905
28.0,0.01676972396671772
30.0,0.015164396725594997
32.0,0.013442473486065865
36.0,0.009319829754531384
40.0,0.0068540554493665695
44.0,0.005120868794620037
48.0,0.003851408837363124
52.0,0.0022473896387964487
56.0,0.0007822871557436883
60.0,0.0003699332010000944
64.0,0.00022527205874212086
72.0,0.0012523452751338482
80.0,0.002891016425564885
88.0,0.00103528902400285
96.0,-0.00033661778434179723
104.0,-0.0019522510701790452
112.0,-0.0016009995015338063
120.0,-0.0027099563740193844
128.0,-0.003503844141960144
144.0,-0.0017700388561934233
160.0,-0.001021869364194572
176.0,-0.0021295002661645412
192.0,5.189791863813298e-06
208.0,-0.00014175791875459254
224.0,-0.0013812409015372396
240.0,-0.002725712489336729
256.0,-0.00395135348662734
288.0,-0.002749919891357422
320.0,0.001298614195547998
352.0,0.0037748594768345356
384.0,0.0033285499084740877
416.0,0.0036517037078738213
448.0,0.0017552472418174148
480.0,-0.0035979480016976595
512.0,-0.005981470458209515
576.0,-0.0030161479953676462
640.0,-0.0009695208282209933
704.0,0.0008968168403953314
768.0,-0.00013809993106406182
832.0,-0.0019230782054364681
896.0,0.0012784454738721251
960.0,0.0006237772176973522
1024.0,-0.002825650619342923
1152.0,0.0006575083825737238
1280.0,0.00027601589681580663
1408.0,0.0026184378657490015
1536.0,0.0008489812607876956
1664.0,-0.0038555373903363943
1792.0,-0.0005766447284258902
1920.0,-0.0023967688903212547
2048.0,-0.0010673769284039736
2304.0,0.00044136997894383967
2560.0,0.00036915502278134227
2816.0,0.0004889126284979284
3072.0,-0.0017147037433460355
3328.0,-0.0005284366779960692
3584.0,0.0022631834726780653
3840.0,0.001134266727603972
4096.0,-0.00011473561607999727
4608.0,-0.0015626070089638233
5120.0,-0.000603042368311435
5632.0,0.0006854554521851242
6144.0,-0.0005894824862480164
6656.0,0.001182763953693211
7168.0,0.0008574538514949381
7680.0,-0.0005930323386564851
8192.0,-0.0005615722038783133
9216.0,0.0011347775580361485
10240.0,-0.00043805938912555575
11264.0,-0.002458189846947789
12288.0,0.0003381031274329871
13312.0,0.001595973619259894
14336.0,-8.354766032425687e-05
end
