version,3.0
numOfCh,1
type,point
parent_name,200-cuts
ch_type,1_1
kcount,1
numberNandB,1
brightnessNandB,1
carpet pos,0
pc,0
Time (ms),CH1 Auto-Correlation
1.0,0.04298217594623566
2.0,0.039289798587560654
3.0,0.035991065204143524
4.0,0.03309300169348717
5.0,0.030375534668564796
6.0,0.028055107221007347
7.0,0.02597377635538578
8.0,0.024187134578824043
9.0,0.02262106165289879
10.0,0.02136494219303131
11.0,0.020147087052464485
12.0,0.019103508442640305
13.0,0.01814335770905018
14.0,0.017275430262088776
15.0,0.01653037965297699
16.0,0.015795817598700523
18.0,0.014502949081361294
20.0,0.013397264294326305
22.0,0.01239984855055809
24.0,0.011667258106172085
26.0,0.010802360251545906
28.0,0.009832418523728848
30.0,0.008939879015088081
32.0,0.008193193934857845
36.0,0.007169782649725676
40.0,0.006287463940680027
44.0,0.005519231781363487
48.0,0.004735863767564297
52.0,0.003969000652432442
56.0,0.0036609231028705835
60.0,0.004146995954215527
64.0,0.004112731199711561
72.0,0.0036157043650746346
80.0,0.0031494672875851393
88.0,0.0032477760687470436
96.0,0.0032205176539719105
104.0,0.002449985360726714
112.0,0.0010233817156404257
120.0,-3.7391611840575933e-05
128.0,0.00020713155390694737
144.0,6.588494579773396e-05
160.0,0.001236208714544773
176.0,0.0019415306160226464
192.0,0.0014351545833051205
208.0,0.0019731330685317516
224.0,0.002290514763444662
240.0,0.001631939667277038
256.0,0.0013726393226534128
288.0,0.0005671664839610457
320.0,0.002101755002513528
352.0,0.0019351798109710217
384.0,-4.7918390919221565e-05
416.0,0.00018485230975784361
448.0,0.0005993609665893018
480.0,-5.344865348888561e-05
512.0,0.00029887427808716893
576.0,0.0013518513878807425
640.0,0.0004864425864070654
704.0,-0.00018807745072990656
768.0,0.0004791483806911856
832.0,0.0008898648084141314
896.0,0.0010338863357901573
960.0,-0.0003706375719048083
1024.0,-0.0012403789442032576
1152.0,0.0011026738211512566
1280.0,-0.0005994978710077703
1408.0,-0.0021558799780905247
1536.0,-0.001529108383692801
1664.0,0.0004760311858262867
1792.0,-0.000411374494433403
1920.0,0.00011369229468982667
2048.0,-0.0009972252883017063
2304.0,-0.0003686209092848003
2560.0,-0.0005116215907037258
2816.0,0.0006282782997004688
3072.0,0.0010232367785647511
3328.0,0.0004996455973014235
3584.0,-0.0008988332701846957
3840.0,0.0021424030419439077
4096.0,-0.0003947680233977735
4608.0,-0.0007266280008479953
5120.0,-0.0003858789859805256
5632.0,-0.0010782689787447453
6144.0,-0.0013256097445264459
6656.0,-0.0001491765578975901
7168.0,-0.001203665742650628
7680.0,-0.0008109069894999266
8192.0,1.5426026948262006e-05
9216.0,0.0001080305955838412
10240.0,-0.0005513502983376384
11264.0,0.0015318153891712427
12288.0,0.0014831030275672674
13312.0,-0.0010130765149369836
14336.0,-0.000913142052013427
end
