version,3.0
numOfCh,1
type,point
parent_name,200-cuts
ch_type,1_1
kcount,1
numberNandB,1
brightnessNandB,1
carpet pos,0
pc,0
Time (ms),CH1 Auto-Correlation
1.0,0.02872423455119133
2.0,0.026264429092407227
3.0,0.024129102006554604
4.0,0.022372910752892494
5.0,0.020834418013691902
6.0,0.01944441720843315
7.0,0.018254419788718224
8.0,0.017185019329190254
9.0,0.016177073121070862
10.0,0.01523897796869278
11.0,0.014476952143013477
12.0,0.01372459251433611
13.0,0.013000900857150555
14.0,0.012308085337281227
15.0,0.011737019754946232
16.0,0.01115462463349104
18.0,0.010239394381642342
20.0,0.00952280405908823
22.0,0.008741063997149467
24.0,0.008041108958423138
26.0,0.007391141727566719
28.0,0.0068985698744654655
30.0,0.0065190899185836315
32.0,0.006141898222267628
36.0,0.005487225484102964
40.0,0.005112305283546448
44.0,0.004754778929054737
48.0,0.004516209475696087
52.0,0.004007919691503048
56.0,0.0035222331061959267
60.0,0.003274560207501054
64.0,0.002976009389385581
72.0,0.002500358270481229
80.0,0.002382385777309537
88.0,0.0019813545513898134
96.0,0.0015170752303674817
104.0,0.0014212867245078087
112.0,0.001240924815647304
120.0,0.0009070441010408103
128.0,0.000606822723057121
144.0,0.0006678977515548468
160.0,0.0006552259437739849
176.0,0.0007351001841016114
192.0,0.0007409584359265864
208.0,0.00016635369684081525
224.0,0.0002363721141591668
240.0,-0.000552634650375694
256.0,-0.0012869967613369226
288.0,-1.7307227608398534e-05
320.0,-4.5671935367863625e-05
352.0,0.0006983464118093252
384.0,0.0005870522581972182
416.0,0.0005127037293277681
448.0,0.000680354016367346
480.0,0.000964693259447813
512.0,-0.000265653885435313
576.0,5.743116616940824e-06
640.0,-0.0005438484949991107
704.0,-0.0007068745326250792
768.0,-0.0008776228642091155
832.0,0.0002511393395252526
896.0,-0.0004891560529358685
960.0,-0.00038573972415179014
1024.0,0.0009333782945759594
1152.0,0.0004572848847601563
1280.0,-0.00033088724012486637
1408.0,-0.0012799594551324844
1536.0,-0.0007442144560627639
1664.0,6.478476279880852e-05
1792.0,-0.00040613117744214833
1920.0,-0.001096466789022088
2048.0,-8.337694453075528e-05
2304.0,0.0006482009775936604
2560.0,-9.391555795446038e-05
2816.0,1.143622739618877e-06
3072.0,-0.00010012973507400602
3328.0,-0.0002969999623019248
3584.0,-0.000761097704526037
3840.0,-0.0009030539076775312
4096.0,-0.000585852365475148
4608.0,7.631324115209281e-05
5120.0,0.00023541662085335702
5632.0,-0.0003087978984694928
6144.0,-0.000750170846004039
6656.0,0.000729799794498831
7168.0,-5.3318741265684366e-05
7680.0,0.000380086712539196
8192.0,5.723879803554155e-05
9216.0,5.095564483781345e-05
10240.0,-0.0006823459989391267
11264.0,0.0003475960111245513
12288.0,0.000535835511982441
13312.0,-5.43172936886549e-05
14336.0,0.0007134673069231212
end
