version,3.0
numOfCh,1
type,point
parent_name,200-cuts
ch_type,1_1
kcount,1
numberNandB,1
brightnessNandB,1
carpet pos,0
pc,0
Time (ms),CH1 Auto-Correlation
1.0,0.08991950750350952
2.0,0.08184568583965302
3.0,0.0752856507897377
4.0,0.06951789557933807
5.0,0.06450410187244415
6.0,0.06010443717241287
7.0,0.05603087320923805
8.0,0.052324894815683365
9.0,0.04890270531177521
10.0,0.04583102464675903
11.0,0.04279130697250366
12.0,0.04010611027479172
13.0,0.037537168711423874
14.0,0.035334061831235886
15.0,0.03335412219166756
16.0,0.03158820793032646
18.0,0.028521442785859108
20.0,0.026013173162937164
22.0,0.023841239511966705
24.0,0.021904362365603447
26.0,0.020049316808581352
28.0,0.01899060606956482
30.0,0.018328795209527016
32.0,0.01772432215511799
36.0,0.015961775556206703
40.0,0.01393452100455761
44.0,0.0128635223954916
48.0,0.01191614754498005
52.0,0.010181267745792866
56.0,0.008171957917511463
60.0,0.0066634840331971645
64.0,0.006012437865138054
72.0,0.0046445634216070175
80.0,0.0027206141967326403
88.0,0.0024092483799904585
96.0,0.0018963591428473592
104.0,0.0014908561715856194
112.0,0.0018111640820279717
120.0,0.0031040653120726347
128.0,0.003698070766404271
144.0,0.002205487107858062
160.0,0.000614654622040689
176.0,0.0011455088388174772
192.0,0.003073057858273387
208.0,0.0018825930310413241
224.0,0.0017821007641032338
240.0,-0.0016769439680501819
256.0,-0.002344434382393956
288.0,-0.004342549480497837
320.0,-0.005591776687651873
352.0,-0.004566279239952564
384.0,-0.0037819319404661655
416.0,-0.005895598325878382
448.0,-0.005192745476961136
480.0,-0.0010926165850833058
512.0,0.0020972341299057007
576.0,-0.002029042923822999
640.0,-0.003500957740470767
704.0,-0.00445691728964448
768.0,0.004787290934473276
832.0,0.0006257413770072162
896.0,9.173010039376095e-05
960.0,0.00111903075594455
1024.0,0.004508124198764563
1152.0,0.0016282007563859224
1280.0,0.00020186435722280294
1408.0,-0.00017789409321267158
1536.0,3.52815113728866e-05
1664.0,-7.507097325287759e-05
1792.0,-0.002214243169873953
1920.0,-0.002858223859220743
2048.0,-0.001081071444787085
2304.0,0.0021668514236807823
2560.0,0.0023108243476599455
2816.0,-0.00019319113926030695
3072.0,-0.00017871626187115908
3328.0,0.0011791459983214736
3584.0,-0.0031026508659124374
3840.0,0.0013239927357062697
4096.0,-0.004027158487588167
4608.0,0.0005967167671769857
5120.0,-0.001885351026430726
5632.0,0.0019216110231354833
6144.0,-0.00369332917034626
6656.0,1.3570288501796313e-05
7168.0,-0.0011866423301398754
7680.0,-0.0007595292408950627
8192.0,0.0009850234491750598
9216.0,-0.00011674278357531875
10240.0,-0.0002450489846523851
11264.0,0.0005936858360655606
12288.0,-8.177928975783288e-06
13312.0,0.00033771287417039275
14336.0,0.0007586277206428349
end
