version,3.0
numOfCh,1
type,point
parent_name,200-cuts
ch_type,1_1
kcount,1
numberNandB,1
brightnessNandB,1
carpet pos,0
pc,0
Time (ms),CH1 Auto-Correlation
1.0,0.041805725544691086
2.0,0.038053255528211594
3.0,0.03489643335342407
4.0,0.03219282999634743
5.0,0.02985101006925106
6.0,0.02773221582174301
7.0,0.025880854576826096
8.0,0.024188382551074028
9.0,0.022721022367477417
10.0,0.021374806761741638
11.0,0.020218921825289726
12.0,0.019257472828030586
13.0,0.018350379541516304
14.0,0.017394907772541046
15.0,0.016594959422945976
16.0,0.015909260138869286
18.0,0.014765195548534393
20.0,0.013520861975848675
22.0,0.012558705173432827
24.0,0.011844011023640633
26.0,0.011121795512735844
28.0,0.010421683080494404
30.0,0.009828293696045876
32.0,0.009395713917911053
36.0,0.008393683470785618
40.0,0.007539269980043173
44.0,0.006811798550188541
48.0,0.005878121126443148
52.0,0.005309454631060362
56.0,0.0048748403787612915
60.0,0.0047330730594694614
64.0,0.004707959480583668
72.0,0.004145514219999313
80.0,0.003664289368316531
88.0,0.002237953944131732
96.0,0.001453665317967534
104.0,0.0016990822041407228
112.0,0.002173292450606823
120.0,0.0024257260374724865
128.0,0.0029454107861965895
144.0,0.0013210128527134657
160.0,0.00020954827778041363
176.0,0.00040338560938835144
192.0,0.0008268875535577536
208.0,0.00048074027290567756
224.0,-0.00021143282356206328
240.0,-0.001039898837916553
256.0,-0.0015140606556087732
288.0,-0.0001341357419732958
320.0,0.0012026148615404963
352.0,0.0019703051075339317
384.0,0.0023114390205591917
416.0,0.0008230956154875457
448.0,-0.0003065155469812453
480.0,0.000499982968904078
512.0,-0.00041014686576090753
576.0,-0.001864310004748404
640.0,3.118380845990032e-05
704.0,-0.0011684704804793
768.0,-0.0024501271545886993
832.0,-0.0014552552020177245
896.0,-0.001845178077928722
960.0,-0.0011997927213087678
1024.0,-0.0014936954248696566
1152.0,-0.0015266516711562872
1280.0,0.0009748544543981552
1408.0,0.0021137555595487356
1536.0,0.0025577708147466183
1664.0,0.0012611127458512783
1792.0,-0.00013270882482174784
1920.0,-0.0008111799252219498
2048.0,-0.0002672586415428668
2304.0,-0.0010363953188061714
2560.0,-0.0023391118738800287
2816.0,0.0011833638418465853
3072.0,0.0013643749989569187
3328.0,0.0011164461029693484
3584.0,-0.0002382856182521209
3840.0,-0.001319647766649723
4096.0,-0.001289108768105507
4608.0,0.0008077395032159984
5120.0,-1.3321126061782707e-05
5632.0,-0.0012172218412160873
6144.0,-0.00011735339649021626
6656.0,0.0001452914293622598
7168.0,-0.001604591147042811
7680.0,0.00030065575265325606
8192.0,-0.00016239525575656444
9216.0,-0.0004206527373753488
10240.0,6.155476057756459e-07
11264.0,-0.00036710535641759634
12288.0,0.0005844064289703965
13312.0,0.0007782277534715831
14336.0,-0.00047694603563286364
end
