version,3.0
numOfCh,1
type,point
parent_name,200-cuts
ch_type,1_1
kcount,1
numberNandB,1
brightnessNandB,1
carpet pos,0
pc,0
Time (ms),CH1 Auto-Correlation
1.0,0.027572359889745712
2.0,0.024971256032586098
3.0,0.02270922064781189
4.0,0.020708687603473663
5.0,0.018943767994642258
6.0,0.017369786277413368
7.0,0.016041306778788567
8.0,0.014833585359156132
9.0,0.013724001124501228
10.0,0.012651903554797173
11.0,0.011686486192047596
12.0,0.010810659267008305
13.0,0.010066778399050236
14.0,0.00941625889390707
15.0,0.008853523060679436
16.0,0.00833802204579115
18.0,0.007524872664362192
20.0,0.006744479760527611
22.0,0.005997755564749241
24.0,0.005252372939139605
26.0,0.004637787584215403
28.0,0.004093528725206852
30.0,0.003534464631229639
32.0,0.0031286771409213543
36.0,0.002426731400191784
40.0,0.0019439592724666
44.0,0.0014335792511701584
48.0,0.001136845094151795
52.0,0.000856712693348527
56.0,0.0005463283741846681
60.0,0.0005636476562358439
64.0,0.00046351851779036224
72.0,0.00021534136612899601
80.0,0.00017267414659727365
88.0,0.0005203710170462728
96.0,0.0008910505566745996
104.0,0.0006762928678654134
112.0,0.0005684403004124761
120.0,0.0007070733117870986
128.0,0.00054414093028754
144.0,-0.00010947242117254063
160.0,7.784176705172285e-05
176.0,-0.0005203132750466466
192.0,-0.0002756374015007168
208.0,-0.0002569441858213395
224.0,0.00029906778945587575
240.0,-0.00010314502287656069
256.0,-0.0008717284654267132
288.0,-0.0009811611380428076
320.0,-0.0011394286993891
352.0,-0.0005712906131520867
384.0,-0.0007666862802579999
416.0,3.998422471340746e-05
448.0,-0.0009696322958916426
480.0,-6.835483509348705e-05
512.0,-0.00029875978361815214
576.0,0.00047913260641507804
640.0,-0.00027559438603930175
704.0,0.00017571295029483736
768.0,0.00014020691742189229
832.0,0.00046164754894562066
896.0,-0.0009699576767161489
960.0,0.0004734888207167387
1024.0,0.0009246786939911544
1152.0,0.00042635484714992344
1280.0,0.0005195280537009239
1408.0,1.422417517460417e-05
1536.0,0.0003398151893634349
1664.0,0.00012494096881709993
1792.0,3.529396781232208e-05
1920.0,-0.00022467563394457102
2048.0,-0.0003165285161230713
2304.0,0.0004095692129340023
2560.0,0.0005223396583460271
2816.0,-6.102561019361019e-05
3072.0,0.00011654871923383325
3328.0,-0.00014852055755909532
3584.0,0.00019539693312253803
3840.0,-0.00017697013390716165
4096.0,0.00043747579911723733
4608.0,-0.00041287249769084156
5120.0,0.0005161077715456486
5632.0,-0.0002896374207921326
6144.0,2.3836439140723087e-05
6656.0,-0.00036246603121981025
7168.0,-0.0006773313507437706
7680.0,0.00014253465633373708
8192.0,-9.98263421934098e-05
9216.0,-0.00028153281891718507
10240.0,-0.000370266119716689
11264.0,9.319803211838007e-05
12288.0,-1.0404822205600794e-05
13312.0,3.925181954400614e-05
14336.0,0.0004011246492154896
end
