version,3.0
numOfCh,1
type,point
parent_name,200-cuts
ch_type,1_1
kcount,1
numberNandB,1
brightnessNandB,1
carpet pos,0
pc,0
Time (ms),CH1 Auto-Correlation
1.0,0.08856271952390671
2.0,0.08093369007110596
3.0,0.07431095838546753
4.0,0.06871113181114197
5.0,0.06374453008174896
6.0,0.059291720390319824
7.0,0.05526864156126976
8.0,0.05164293199777603
9.0,0.04849294573068619
10.0,0.04556642472743988
11.0,0.042921364307403564
12.0,0.040574099868535995
13.0,0.038214512169361115
14.0,0.035731349140405655
15.0,0.0334952250123024
16.0,0.03135371953248978
18.0,0.02753957360982895
20.0,0.024492477998137474
22.0,0.022015217691659927
24.0,0.019571885466575623
26.0,0.017247892916202545
28.0,0.015288176015019417
30.0,0.01385489758104086
32.0,0.012555562891066074
36.0,0.010984132997691631
40.0,0.010173775255680084
44.0,0.01020503044128418
48.0,0.010047205723822117
52.0,0.009337718598544598
56.0,0.008549554273486137
60.0,0.007789544761180878
64.0,0.006894644349813461
72.0,0.005672710482031107
80.0,0.0043366593308746815
88.0,0.001574045978486538
96.0,0.0013983453391119838
104.0,0.0025968248955905437
112.0,0.0028539346531033516
120.0,0.002735772402957082
128.0,0.002347023459151387
144.0,-0.0013482124777510762
160.0,-0.003047970123589039
176.0,-0.002034905133768916
192.0,-0.0010481728240847588
208.0,-0.001383703202009201
224.0,0.0019185856217518449
240.0,0.0006758688250556588
256.0,-0.0016149920411407948
288.0,0.000879816070664674
320.0,-0.002440471900627017
352.0,0.00039866124279797077
384.0,0.0007941588410176337
416.0,0.0002499207039363682
448.0,-0.0012221651850268245
480.0,-0.00028576410841196775
512.0,0.0019099251367151737
576.0,0.00011763395741581917
640.0,0.0008397013298235834
704.0,-0.004659145604819059
768.0,-0.0034705623984336853
832.0,-0.0015843671280890703
896.0,0.0011729405960068107
960.0,-0.003855654504150152
1024.0,-0.002362920669838786
1152.0,-0.0032004767563194036
1280.0,0.0016088758129626513
1408.0,0.0005791970179416239
1536.0,0.0004120794765185565
1664.0,0.0008887198055163026
1792.0,-0.0003466473426669836
1920.0,0.002375597832724452
2048.0,0.0014275865396484733
2304.0,0.0033670663833618164
2560.0,0.00018551782704889774
2816.0,0.00021891501091886312
3072.0,-0.0024655533488839865
3328.0,-0.0018746231216937304
3584.0,0.002138467039912939
3840.0,-0.00046140720951370895
4096.0,0.00026113708736374974
4608.0,0.0011690377723425627
5120.0,-0.0008222646429203451
5632.0,0.0006429796339944005
6144.0,-0.001131137483753264
6656.0,0.0006243404350243509
7168.0,0.00043759576510638
7680.0,-0.0020890759769827127
8192.0,0.00036663911305367947
9216.0,-0.0011078192619606853
10240.0,-0.00020261462486814708
11264.0,4.99536981806159e-05
12288.0,-0.0018378838431090117
13312.0,0.0003203562810085714
14336.0,-0.0013100678334012628
end
