version,3.0
numOfCh,1
type,point
parent_name,200-cuts
ch_type,1_1
kcount,1
numberNandB,1
brightnessNandB,1
carpet pos,0
pc,0
Time (ms),CH1 Auto-Correlation
1.0,0.04094555974006653
2.0,0.0374167338013649
3.0,0.03435470163822174
4.0,0.03176506236195564
5.0,0.029512442648410797
6.0,0.027488986030220985
7.0,0.02567913383245468
8.0,0.023940594866871834
9.0,0.022285105660557747
10.0,0.020736292004585266
11.0,0.01936563290655613
12.0,0.018255257979035378
13.0,0.017235860228538513
14.0,0.016291016712784767
15.0,0.015447317622601986
16.0,0.014643094502389431
18.0,0.013233298435807228
20.0,0.011859811842441559
22.0,0.010775107890367508
24.0,0.009695432148873806
26.0,0.008712591603398323
28.0,0.007768463809043169
30.0,0.0072090402245521545
32.0,0.006871601566672325
36.0,0.006428486667573452
40.0,0.005861946381628513
44.0,0.004566868767142296
48.0,0.003170953830704093
52.0,0.0021940877195447683
56.0,0.001345677301287651
60.0,0.001176917809061706
64.0,0.0010581613751128316
72.0,0.0013201312394812703
80.0,0.0014637935673817992
88.0,0.0014091728953644633
96.0,0.0010810408275574446
104.0,0.0007302453159354627
112.0,0.0009089175728149712
120.0,0.0009324091952294111
128.0,0.0006032817764207721
144.0,0.00033557714777998626
160.0,-0.000526118092238903
176.0,-0.00012600759509950876
192.0,0.0003482807951513678
208.0,0.0004307771159801632
224.0,0.00023121596314013004
240.0,-0.0010180516401305795
256.0,-0.0004381217295303941
288.0,0.0004035847960039973
320.0,0.0005135397659614682
352.0,-0.000918061938136816
384.0,0.001082230475731194
416.0,0.0021454545203596354
448.0,0.0012255224864929914
480.0,0.00017859804211184382
512.0,0.0003224042011424899
576.0,0.0005067071178928018
640.0,0.0015573359560221434
704.0,0.0011039493838325143
768.0,-0.001531015383079648
832.0,-0.001652020844630897
896.0,-0.0019914130680263042
960.0,-0.0002480781695339829
1024.0,0.0021678456105291843
1152.0,0.0005555098759941757
1280.0,0.0006177835166454315
1408.0,-0.0004230339836794883
1536.0,-0.00048373520257882774
1664.0,0.0008360181818716228
1792.0,0.00041587866144254804
1920.0,-0.003207287285476923
2048.0,-0.001972659258171916
2304.0,-0.0003192359290551394
2560.0,-0.0015731132589280605
2816.0,0.0005557527183555067
3072.0,-0.0006702943937852979
3328.0,-8.359191269846633e-05
3584.0,-0.0005785920075140893
3840.0,0.0003428245836403221
4096.0,0.0002432001056149602
4608.0,0.0007031334680505097
5120.0,-0.00019213401537854224
5632.0,-0.0006885192124173045
6144.0,-0.0009388644830323756
6656.0,0.00028257581288926303
7168.0,0.00037791256909258664
7680.0,0.0008000805974006653
8192.0,0.0005508578033186495
9216.0,-0.00018857284158002585
10240.0,-0.0007615453214384615
11264.0,-0.0003637446789070964
12288.0,0.00104743882548064
13312.0,0.0005466515431180596
14336.0,-0.0012319989036768675
end
