version,3.0
numOfCh,1
type,point
parent_name,200-cuts
ch_type,1_1
kcount,1
numberNandB,1
brightnessNandB,1
carpet pos,0
pc,0
Time (ms),CH1 Auto-Correlation
1.0,0.0852612778544426
2.0,0.07790374010801315
3.0,0.07154402881860733
4.0,0.0659625232219696
5.0,0.0611632838845253
6.0,0.056851886212825775
7.0,0.053100381046533585
8.0,0.049777645617723465
9.0,0.046868208795785904
10.0,0.04411129280924797
11.0,0.04161360487341881
12.0,0.03911422938108444
13.0,0.036730363965034485
14.0,0.03465171530842781
15.0,0.03288104757666588
16.0,0.031175320968031883
18.0,0.028424853459000587
20.0,0.02596774697303772
22.0,0.02361227385699749
24.0,0.021477924659848213
26.0,0.01938619464635849
28.0,0.01798425242304802
30.0,0.016970349475741386
32.0,0.016147354617714882
36.0,0.014612773433327675
40.0,0.012672735378146172
44.0,0.01106987427920103
48.0,0.010645288974046707
52.0,0.011054497212171555
56.0,0.010753442533314228
60.0,0.009950913488864899
64.0,0.008799129165709019
72.0,0.008332546800374985
80.0,0.006476027425378561
88.0,0.004769864026457071
96.0,0.004383781924843788
104.0,0.0025465688668191433
112.0,0.00012571035767905414
120.0,0.00036489355261437595
128.0,0.0001981889654416591
144.0,-0.002423409838229418
160.0,-0.0028220342937856913
176.0,-0.0031757489778101444
192.0,-0.0034606230910867453
208.0,-0.001920165028423071
224.0,-0.0018216145690530539
240.0,-0.0018046506447717547
256.0,-0.0030960633885115385
288.0,-0.0015855832025408745
320.0,0.00318849622271955
352.0,0.003056088462471962
384.0,-1.4000227565702517e-05
416.0,-0.002279001986607909
448.0,-0.0014482693513855338
480.0,-0.00026286818319931626
512.0,-0.0012342112604528666
576.0,-0.0023048825096338987
640.0,-0.0030557536520063877
704.0,-0.001687723444774747
768.0,-0.0012378894025459886
832.0,-0.00023540013353340328
896.0,-0.00032889441354200244
960.0,0.0024405380245298147
1024.0,0.00035931088495999575
1152.0,0.002811437239870429
1280.0,-0.0005723666399717331
1408.0,0.001682683127000928
1536.0,8.729705587029457e-05
1664.0,-0.0031522170174866915
1792.0,-0.002035553799942136
1920.0,0.0008790175779722631
2048.0,-0.001787177287042141
2304.0,0.0031347344629466534
2560.0,-0.00025936056044884026
2816.0,-0.0021594625432044268
3072.0,-0.00012938266445416957
3328.0,-0.00037726262235082686
3584.0,-0.0026251894887536764
3840.0,-0.00024735592887736857
4096.0,0.0019737565889954567
4608.0,-0.002617339137941599
5120.0,-4.330369483795948e-05
5632.0,-0.00021370463946368545
6144.0,0.001015744055621326
6656.0,-0.0006146699888631701
7168.0,-0.0004903265507891774
7680.0,-0.00019525927200447768
8192.0,0.0010281400755047798
9216.0,-0.0002142455632565543
10240.0,0.0011682790936902165
11264.0,-0.0010570476297289133
12288.0,0.0011653905967250466
13312.0,-0.001069525838829577
14336.0,-0.0017153911758214235
end
