version,3.0
numOfCh,1
type,point
parent_name,200-cuts
ch_type,1_1
kcount,1
numberNandB,1
brightnessNandB,1
carpet pos,0
pc,0
Time (ms),CH1 Auto-Correlation
1.0,0.027386462315917015
2.0,0.02490498684346676
3.0,0.022745328024029732
4.0,0.020998695865273476
5.0,0.01949978619813919
6.0,0.018176181241869926
7.0,0.016975339502096176
8.0,0.015934981405735016
9.0,0.014979124069213867
10.0,0.014043050818145275
11.0,0.013160674832761288
12.0,0.012338883243501186
13.0,0.011605389416217804
14.0,0.01100088283419609
15.0,0.010396146215498447
16.0,0.00986621342599392
18.0,0.009046869352459908
20.0,0.008495787158608437
22.0,0.007929340936243534
24.0,0.007206677459180355
26.0,0.006573069375008345
28.0,0.006076501216739416
30.0,0.005689604207873344
32.0,0.005371501669287682
36.0,0.004895856138318777
40.0,0.00449766032397747
44.0,0.004031674936413765
48.0,0.003433982376009226
52.0,0.002981084631755948
56.0,0.002912642201408744
60.0,0.0026754329446703196
64.0,0.0026743391063064337
72.0,0.002881852677091956
80.0,0.002887855749577284
88.0,0.0019763701129704714
96.0,0.001295181573368609
104.0,0.0007442633504979312
112.0,0.0012567288940772414
120.0,0.001760719227604568
128.0,0.0018841598648577929
144.0,0.0010451610432937741
160.0,0.0002491454069968313
176.0,0.00010052020661532879
192.0,-0.0005559102864935994
208.0,-0.001161283697001636
224.0,-0.0014855887275189161
240.0,-0.0014515004586428404
256.0,-0.001584177720360458
288.0,-0.0002997347037307918
320.0,0.0003702833491843194
352.0,0.0006295759230852127
384.0,0.00012640978093259037
416.0,-0.00041057172347791493
448.0,-3.6259395983506693e-06
480.0,5.031066757510416e-05
512.0,0.0011758034816011786
576.0,0.0002504936419427395
640.0,-0.00027302256785333157
704.0,-0.0001953322789631784
768.0,-0.0011562223080545664
832.0,-0.0015754889464005828
896.0,-0.0001534454495413229
960.0,-0.0005275270086713135
1024.0,-0.0005732345744036138
1152.0,-9.832089745032135e-06
1280.0,0.0005813906900584698
1408.0,-0.0003561651101335883
1536.0,-0.00017291371477767825
1664.0,1.5438419723068364e-05
1792.0,-0.0009167551179416478
1920.0,-0.00015307911962736398
2048.0,-3.465516056166962e-05
2304.0,-0.0005284581566229463
2560.0,0.0003583724028430879
2816.0,0.00034158272319473326
3072.0,-0.00013788162323180586
3328.0,0.0007901129429228604
3584.0,-0.00015411421190947294
3840.0,-0.0004476330941542983
4096.0,0.00043956772424280643
4608.0,0.00020553379727061838
5120.0,6.960421887924895e-05
5632.0,-0.00048653240082785487
6144.0,0.0005579449934884906
6656.0,0.0001160273895948194
7168.0,-0.0004324170295149088
7680.0,-0.0003093599225394428
8192.0,-0.000713803805410862
9216.0,0.0003837011172436178
10240.0,0.00030912418151274323
11264.0,-0.0010369722731411457
12288.0,-0.0002303760265931487
13312.0,6.700374069623649e-05
14336.0,-0.00017436023335903883
end
