version,3.0
numOfCh,1
type,point
parent_name,200-cuts
ch_type,1_1
kcount,1
numberNandB,1
brightnessNandB,1
carpet pos,0
pc,0
Time (ms),CH1 Auto-Correlation
1.0,0.04345390945672989
2.0,0.03973804786801338
3.0,0.036519136279821396
4.0,0.03370882570743561
5.0,0.031199943274259567
6.0,0.029010845348238945
7.0,0.027186378836631775
8.0,0.025600869208574295
9.0,0.02407430112361908
10.0,0.02275209315121174
11.0,0.021421611309051514
12.0,0.02022823691368103
13.0,0.019063416868448257
14.0,0.018056467175483704
15.0,0.01712985709309578
16.0,0.016138993203639984
18.0,0.014406897127628326
20.0,0.012945003807544708
22.0,0.01159826759248972
24.0,0.010558086447417736
26.0,0.009632714092731476
28.0,0.008915228769183159
30.0,0.008291775360703468
32.0,0.007797800004482269
36.0,0.00685209920629859
40.0,0.005801052320748568
44.0,0.004588471259921789
48.0,0.0037431884557008743
52.0,0.002761787734925747
56.0,0.0020362543873488903
60.0,0.0015030148206278682
64.0,0.0009699016809463501
72.0,0.00047564704436808825
80.0,0.00047031493159011006
88.0,0.0009495419799350202
96.0,0.0008809511200524867
104.0,0.001045352779328823
112.0,0.00195359718054533
120.0,0.001989176729694009
128.0,0.002243598224595189
144.0,0.001319168135523796
160.0,7.38655508030206e-05
176.0,0.00023826854885555804
192.0,1.89330803550547e-05
208.0,-0.0006122448830865324
224.0,-0.00012223429803270847
240.0,0.0015951349632814527
256.0,0.001149423886090517
288.0,0.0010758971329778433
320.0,0.00026512963813729584
352.0,-0.00040457298746332526
384.0,-0.0014867940917611122
416.0,-0.0011244355700910091
448.0,-0.0010218393290415406
480.0,-0.001271323999390006
512.0,-0.0021616066806018353
576.0,-0.0026835897006094456
640.0,0.0008130815112963319
704.0,0.0001788279478205368
768.0,-0.0006157266325317323
832.0,0.0013272399082779884
896.0,0.0013879496837034822
960.0,0.001779252546839416
1024.0,-0.0009490041411481798
1152.0,0.0015897734556347132
1280.0,-0.0003127923118881881
1408.0,-0.00210877344943583
1536.0,-0.001783273066394031
1664.0,-0.001292322762310505
1792.0,-0.001632504747249186
1920.0,-4.564246046356857e-05
2048.0,0.0023616114631295204
2304.0,0.00012105037603760138
2560.0,2.1632940843119286e-05
2816.0,-0.001414697733707726
3072.0,0.0006653067539446056
3328.0,0.00045765028335154057
3584.0,-0.0002713057619985193
3840.0,-0.002243462484329939
4096.0,-0.0009546252549625933
4608.0,3.757132435566746e-05
5120.0,0.00023596927348989993
5632.0,0.0006816585664637387
6144.0,0.00035358135937713087
6656.0,-0.0007228414178825915
7168.0,1.8608401660458185e-05
7680.0,0.0003351509803906083
8192.0,0.0014754064613953233
9216.0,-0.0002972549118567258
10240.0,-0.00026093050837516785
11264.0,-0.00046914524864405394
12288.0,-0.0006660955841653049
13312.0,-0.00021220871713012457
14336.0,0.0006214211462065578
end
