version,3.0
numOfCh,1
type,point
parent_name,200-cuts
ch_type,1_1
kcount,1
numberNandB,1
brightnessNandB,1
carpet pos,0
pc,0
Time (ms),CH1 Auto-Correlation
1.0,0.026442646980285645
2.0,0.024097410961985588
3.0,0.022117502987384796
4.0,0.020450640469789505
5.0,0.018986502662301064
6.0,0.017701542004942894
7.0,0.01650691032409668
8.0,0.015448255464434624
9.0,0.014486446976661682
10.0,0.013622448779642582
11.0,0.012783857062458992
12.0,0.012012222781777382
13.0,0.011294513940811157
14.0,0.010658289305865765
15.0,0.010071163065731525
16.0,0.009526022709906101
18.0,0.00850936770439148
20.0,0.007638668641448021
22.0,0.0069116391241550446
24.0,0.006240044254809618
26.0,0.005574711598455906
28.0,0.005120042245835066
30.0,0.0046560680493712425
32.0,0.004181444179266691
36.0,0.003435948397964239
40.0,0.0028333754744380713
44.0,0.00255570444278419
48.0,0.002564226044341922
52.0,0.002340108621865511
56.0,0.0020775701850652695
60.0,0.001451661461032927
64.0,0.0010646432638168335
72.0,0.0005398081266321242
80.0,0.00011972618813160807
88.0,-0.0004265632596798241
96.0,-0.00011818624625448138
104.0,0.00016097976185847074
112.0,2.0017851056763902e-05
120.0,-0.00012055017577949911
128.0,-0.0002867357397917658
144.0,-0.00031600974034518003
160.0,-0.0005836461205035448
176.0,-0.00012410362251102924
192.0,-0.0004228962352499366
208.0,-0.0001245268213097006
224.0,0.0004895611200481653
240.0,0.0009734210907481611
256.0,0.000949016772210598
288.0,0.0014882390387356281
320.0,0.0009314764756709337
352.0,-0.00021475770336110145
384.0,-3.5633256629807875e-05
416.0,-0.0005605601472780108
448.0,-0.0009678217465989292
480.0,-0.0010445611551404
512.0,4.460791024030186e-05
576.0,-0.00026375611196272075
640.0,-0.0006523333140648901
704.0,-0.0007105150725692511
768.0,-0.0005488250753842294
832.0,-0.0002480702823959291
896.0,-0.0004908283590339124
960.0,-0.0010036787716671824
1024.0,-0.0014469987945631146
1152.0,-0.0002482251438777894
1280.0,0.00010959212522720918
1408.0,0.0005820313817821443
1536.0,-0.0013218733947724104
1664.0,0.0009586335509084165
1792.0,-0.00025369093054905534
1920.0,0.00015642411017324775
2048.0,-0.00016216063522733748
2304.0,-0.0006491560488939285
2560.0,-7.190318865468726e-05
2816.0,0.0001210466944030486
3072.0,0.00010414596908958629
3328.0,-0.0002459145325701684
3584.0,-0.00031046674121171236
3840.0,-9.217989281751215e-05
4096.0,0.00013472442515194416
4608.0,0.0005731930141337216
5120.0,4.59799230156932e-05
5632.0,-0.00016054807929322124
6144.0,-8.085184526862577e-05
6656.0,0.00011332488793414086
7168.0,-0.0001953000173671171
7680.0,-0.0001406715891789645
8192.0,-0.00037571691791526973
9216.0,0.001092427410185337
10240.0,-0.0007977855275385082
11264.0,0.00023409364803228527
12288.0,-0.0006954136770218611
13312.0,0.0005332415457814932
14336.0,0.0005936524830758572
end
