version,3.0
numOfCh,1
type,point
parent_name,200-cuts
ch_type,1_1
kcount,1
numberNandB,1
brightnessNandB,1
carpet pos,0
pc,0
Time (ms),CH1 Auto-Correlation
1.0,0.02615075558423996
2.0,0.023829136043787003
3.0,0.02181128039956093
4.0,0.020056607201695442
5.0,0.018522415310144424
6.0,0.017135022208094597
7.0,0.015924669802188873
8.0,0.01485095452517271
9.0,0.013906065374612808
10.0,0.013049454428255558
11.0,0.012279737740755081
12.0,0.011542120017111301
13.0,0.010830787010490894
14.0,0.010219424031674862
15.0,0.00967487320303917
16.0,0.009084906429052353
18.0,0.007998613640666008
20.0,0.006985238287597895
22.0,0.006186239421367645
24.0,0.005501877516508102
26.0,0.004928644746541977
28.0,0.004546504933387041
30.0,0.004120803903788328
32.0,0.0037436536513268948
36.0,0.003325077937915921
40.0,0.002983721438795328
44.0,0.002567230025306344
48.0,0.0019613653421401978
52.0,0.001810791902244091
56.0,0.001618668669834733
60.0,0.0013177574146538973
64.0,0.0008661497849971056
72.0,3.485413617454469e-05
80.0,-0.00026891878223977983
88.0,-0.00022193259792402387
96.0,-0.0003855249669868499
104.0,-0.0006253920146264136
112.0,-0.00027051789220422506
120.0,-0.00034873076947405934
128.0,-0.0004928064299747348
144.0,-0.00012877510744147003
160.0,-0.00024625679361633956
176.0,-0.00020816417236346751
192.0,-0.0004867948009632528
208.0,-0.0003481352177914232
224.0,-0.0006834489176981151
240.0,-0.0007426965748891234
256.0,-0.0011022870894521475
288.0,-0.0004965248517692089
320.0,-0.00029436653130687773
352.0,0.0002050474868156016
384.0,0.000651988317258656
416.0,0.00013952911831438541
448.0,-0.00048614427214488387
480.0,9.912055975291878e-05
512.0,-3.458600622252561e-05
576.0,-0.0006029323558323085
640.0,-0.00015687594714108855
704.0,-0.0004621942061930895
768.0,-0.00016777795099187642
832.0,-0.0003210419963579625
896.0,-0.00019019050523638725
960.0,-0.0006820447742938995
1024.0,-0.0006993334391154349
1152.0,4.013832949567586e-05
1280.0,-0.0011358576593920588
1408.0,-0.0011459343368187547
1536.0,0.0005596140981651843
1664.0,0.0001104683760786429
1792.0,0.00015498198627028614
1920.0,-0.00017773224681150168
2048.0,0.00021176692098379135
2304.0,0.00029721506871283054
2560.0,-0.00027014483930543065
2816.0,0.0005494275828823447
3072.0,0.000462587020592764
3328.0,0.0001071746155503206
3584.0,-0.0006143036880530417
3840.0,-1.9018823877559043e-05
4096.0,-7.825686043361202e-05
4608.0,0.00017343281069770455
5120.0,-0.00017985072918236256
5632.0,0.0001257464027730748
6144.0,-0.00017841503722593188
6656.0,0.0002195126289734617
7168.0,0.00011668746446957812
7680.0,-0.000494398467708379
8192.0,-0.00013074804155621678
9216.0,6.452048546634614e-05
10240.0,-0.0002802113594952971
11264.0,0.00039561098674312234
12288.0,-0.0005818123463541269
13312.0,0.00022644798445980996
14336.0,-3.450921212788671e-05
end
