version,3.0
numOfCh,1
type,point
parent_name,200-cuts
ch_type,1_1
kcount,1
numberNandB,1
brightnessNandB,1
carpet pos,0
pc,0
Time (ms),CH1 Auto-Correlation
1.0,0.042344700545072556
2.0,0.038885921239852905
3.0,0.03589518740773201
4.0,0.03337986767292023
5.0,0.0312441885471344
6.0,0.02933834306895733
7.0,0.027620449662208557
8.0,0.02593718096613884
9.0,0.024226997047662735
10.0,0.02281065098941326
11.0,0.021513549610972404
12.0,0.02036801539361477
13.0,0.01938159577548504
14.0,0.018519572913646698
15.0,0.017775101587176323
16.0,0.016897078603506088
18.0,0.015319942496716976
20.0,0.013765030540525913
22.0,0.01242762990295887
24.0,0.011345014907419682
26.0,0.010433128103613853
28.0,0.009706924669444561
30.0,0.009135517291724682
32.0,0.008554610423743725
36.0,0.0078063420951366425
40.0,0.0074565354734659195
44.0,0.007287154905498028
48.0,0.006550675258040428
52.0,0.005940727423876524
56.0,0.0051071736961603165
60.0,0.004340857733041048
64.0,0.003900999203324318
72.0,0.0035789799876511097
80.0,0.002620611572638154
88.0,0.001586001948453486
96.0,0.0005099697737023234
104.0,-0.0007043737568892539
112.0,-0.0010942005319520831
120.0,-0.001141193090006709
128.0,-0.00130846060346812
144.0,-0.0013412069529294968
160.0,-0.0010045348899438977
176.0,-0.0015437910333275795
192.0,-0.002694563940167427
208.0,-0.0012022448936477304
224.0,-0.000851873483043164
240.0,-0.0007611157489009202
256.0,0.0009534095879644156
288.0,0.0011546214809641242
320.0,-0.00047684102901257575
352.0,-0.0008060105028562248
384.0,0.0009351900080218911
416.0,0.00011281680053798482
448.0,-0.0014839147916063666
480.0,-0.0006796328234486282
512.0,-0.0003896133857779205
576.0,7.284519961103797e-05
640.0,4.861163688474335e-05
704.0,0.0005968728801235557
768.0,-0.0014516974333673716
832.0,-0.0006445305189117789
896.0,-0.00040843209717422724
960.0,0.0011138718109577894
1024.0,0.00026922940742224455
1152.0,-0.0003425493778195232
1280.0,0.0003780358820222318
1408.0,-0.0010898537002503872
1536.0,0.0009700453374534845
1664.0,-0.0002504207950551063
1792.0,-0.0024092253297567368
1920.0,-0.001290941028855741
2048.0,-0.0007039813790470362
2304.0,-0.0008317051106132567
2560.0,-0.00045779894571751356
2816.0,0.0012019944842904806
3072.0,-0.0012955265119671822
3328.0,0.0017852865858003497
3584.0,-0.0012866778997704387
3840.0,-0.0008756354218348861
4096.0,0.000426042010076344
4608.0,0.0001772738469298929
5120.0,-0.0003723773406818509
5632.0,-6.018678686814383e-05
6144.0,-0.0002429559244774282
6656.0,0.00025949475821107626
7168.0,0.0003410997160244733
7680.0,0.0005756637547165155
8192.0,-0.00032672498491592705
9216.0,0.0005191197851672769
10240.0,0.00012850236089434475
11264.0,-0.001514884759671986
12288.0,0.0002580977452453226
13312.0,-0.0006958247977308929
14336.0,0.0023914917837828398
end
