version,3.0
numOfCh,1
type,point
parent_name,200-cuts
ch_type,1_1
kcount,1
numberNandB,1
brightnessNandB,1
carpet pos,0
pc,0
Time (ms),CH1 Auto-Correlation
1.0,0.08293966948986053
2.0,0.07549158483743668
3.0,0.06917358934879303
4.0,0.06340049207210541
5.0,0.05826461687684059
6.0,0.05383610725402832
7.0,0.04969944432377815
8.0,0.04593919590115547
9.0,0.04243188351392746
10.0,0.039255838841199875
11.0,0.03657133877277374
12.0,0.03426395356655121
13.0,0.032290875911712646
14.0,0.030519019812345505
15.0,0.029153091832995415
16.0,0.02793199010193348
18.0,0.025721779093146324
20.0,0.023716973140835762
22.0,0.0213924590498209
24.0,0.01914605125784874
26.0,0.017372088506817818
28.0,0.016119258478283882
30.0,0.014501036144793034
32.0,0.012064481154084206
36.0,0.007907525636255741
40.0,0.005402940791100264
44.0,0.00440766429528594
48.0,0.0036655517760664225
52.0,0.0029040512163192034
56.0,0.002503043506294489
60.0,0.002561454428359866
64.0,0.002135019749403
72.0,0.0014438932994380593
80.0,0.0011073913192376494
88.0,0.0004596604558173567
96.0,0.0008090964984148741
104.0,0.0006638229242525995
112.0,0.00041064992547035217
120.0,-0.0005882960977032781
128.0,0.00119421212002635
144.0,0.0030749484430998564
160.0,0.001956180902197957
176.0,-8.69972282089293e-05
192.0,-0.00224126479588449
208.0,-0.0013960261130705476
224.0,0.0015022780280560255
240.0,0.0020646369084715843
256.0,-0.0011199730215594172
288.0,-0.0026012854650616646
320.0,-0.0027662140782922506
352.0,-0.0011602799640968442
384.0,-0.002279694890603423
416.0,-0.0022797128185629845
448.0,-0.0027565716300159693
480.0,0.0005730686825700104
512.0,0.002088164445012808
576.0,2.447026599838864e-05
640.0,-0.0019590395968407393
704.0,-0.0006977067096158862
768.0,0.00013723950542043895
832.0,-0.0006031437660567462
896.0,-0.0035596550442278385
960.0,-0.0039078239351511
1024.0,-0.0015006978064775467
1152.0,-0.001830221968702972
1280.0,-0.0017447574064135551
1408.0,0.002896334044635296
1536.0,-0.00026836225879378617
1664.0,-0.00027907517505809665
1792.0,-0.002118447097018361
1920.0,0.0007997890934348106
2048.0,-0.0008312691352330148
2304.0,0.00027533440152183175
2560.0,-0.00031520906486548483
2816.0,0.00037378616980277
3072.0,0.001104285242035985
3328.0,-0.0009405829478055239
3584.0,0.0018811816116794944
3840.0,-0.0011008441215381026
4096.0,-0.0027231278363615274
4608.0,0.0002305406960658729
5120.0,-8.503208664478734e-05
5632.0,0.0015481032896786928
6144.0,-0.000609465001616627
6656.0,-0.0015915060648694634
7168.0,0.000391315232263878
7680.0,-0.000376499054254964
8192.0,-1.0935578757198527e-05
9216.0,6.37428747722879e-05
10240.0,0.0003281669341959059
11264.0,-0.00019877658633049577
12288.0,2.7040632630814798e-05
13312.0,-0.0015649786219000816
14336.0,0.0026368063408881426
end
