version,3.0
numOfCh,1
type,point
parent_name,200-cuts
ch_type,1_1
kcount,1
numberNandB,1
brightnessNandB,1
carpet pos,0
pc,0
Time (ms),CH1 Auto-Correlation
1.0,0.09844085574150085
2.0,0.09030089527368546
3.0,0.08298925310373306
4.0,0.07673496007919312
5.0,0.07131893187761307
6.0,0.06652789562940598
7.0,0.06210893765091896
8.0,0.058172233402729034
9.0,0.054482463747262955
10.0,0.05115560442209244
11.0,0.04821407049894333
12.0,0.04555021971464157
13.0,0.04327087849378586
14.0,0.041124146431684494
15.0,0.039210379123687744
16.0,0.037439409643411636
18.0,0.033963482826948166
20.0,0.03080565109848976
22.0,0.02844182215631008
24.0,0.02600209228694439
26.0,0.023670438677072525
28.0,0.02216346003115177
30.0,0.02098766341805458
32.0,0.019483454525470734
36.0,0.01685997284948826
40.0,0.015799619257450104
44.0,0.014470045454800129
48.0,0.012913401238620281
52.0,0.011077138595283031
56.0,0.009515201672911644
60.0,0.007953078486025333
64.0,0.0060837846249341965
72.0,0.0043481034226715565
80.0,0.004722337704151869
88.0,0.004163798876106739
96.0,0.0022687087766826153
104.0,0.002634564181789756
112.0,0.00253251101821661
120.0,0.002881878986954689
128.0,0.00492078298702836
144.0,0.004524833057075739
160.0,0.0015188104007393122
176.0,-0.0022896716836839914
192.0,-0.0007442283676937222
208.0,0.0004840590409003198
224.0,0.0003196046163793653
240.0,0.0013562815729528666
256.0,0.0017530382610857487
288.0,-0.0007208595052361488
320.0,-0.00110847398173064
352.0,-0.0012198790209367871
384.0,0.004657496232539415
416.0,0.0030748271383345127
448.0,0.0022984384559094906
480.0,-0.0015918932622298598
512.0,-0.0005142816808074713
576.0,-0.003040353301912546
640.0,-0.0024825637228786945
704.0,-0.001375739579088986
768.0,-0.005330685991793871
832.0,-0.0003981832123827189
896.0,-0.003749130992218852
960.0,-0.004716243129223585
1024.0,-0.0024325919803231955
1152.0,0.0044263326562941074
1280.0,0.0004846350639127195
1408.0,0.003171920543536544
1536.0,0.0025852874387055635
1664.0,-0.0010874309809878469
1792.0,0.0053801024332642555
1920.0,-0.0026268085930496454
2048.0,-0.0022633124608546495
2304.0,-0.000439438852481544
2560.0,-0.0013592698378488421
2816.0,-0.00012962102482561022
3072.0,-0.00500888517126441
3328.0,-0.002057969104498625
3584.0,0.0005479951505549252
3840.0,0.003331949934363365
4096.0,0.003564939834177494
4608.0,-0.0020257895812392235
5120.0,-0.0017230064840987325
5632.0,0.0024880545679479837
6144.0,0.002190203871577978
6656.0,-0.004803732503205538
7168.0,-0.002621464664116502
7680.0,0.002083762548863888
8192.0,-0.0021934635005891323
9216.0,5.745283851865679e-05
10240.0,-0.0008748414111323655
11264.0,0.001947283511981368
12288.0,-0.0022529559209942818
13312.0,0.002116608899086714
14336.0,-0.0012321281246840954
end
