version,3.0
numOfCh,1
type,point
parent_name,200-cuts
ch_type,1_1
kcount,1
numberNandB,1
brightnessNandB,1
carpet pos,0
pc,0
Time (ms),CH1 Auto-Correlation
1.0,0.043624524027109146
2.0,0.03990821912884712
3.0,0.036705709993839264
4.0,0.03388331085443497
5.0,0.03146566450595856
6.0,0.02931004948914051
7.0,0.027381842955946922
8.0,0.025616314262151718
9.0,0.024084636941552162
10.0,0.0227337758988142
11.0,0.02142711542546749
12.0,0.020348532125353813
13.0,0.019363414496183395
14.0,0.018521931022405624
15.0,0.017727922648191452
16.0,0.01702352985739708
18.0,0.015739694237709045
20.0,0.0146970609202981
22.0,0.013669351115822792
24.0,0.012677987106144428
26.0,0.011853281408548355
28.0,0.01108694076538086
30.0,0.010500434786081314
32.0,0.00984665285795927
36.0,0.008479098789393902
40.0,0.007436379790306091
44.0,0.006398044992238283
48.0,0.005527722183614969
52.0,0.004919194150716066
56.0,0.004688646178692579
60.0,0.004499288275837898
64.0,0.004111866001039743
72.0,0.0030653979629278183
80.0,0.0018281174125149846
88.0,0.0018229616107419133
96.0,0.00162151746917516
104.0,0.0010268401820212603
112.0,0.0016166408313438296
120.0,0.0015794020146131516
128.0,0.0010630757315084338
144.0,0.0004263547598384321
160.0,-0.0007751332013867795
176.0,-0.0011140708811581135
192.0,0.00011371778236934915
208.0,0.0009920749580487609
224.0,-5.6914381275419146e-05
240.0,-0.0011768665863201022
256.0,0.00023966222943272442
288.0,-0.0007943135569803417
320.0,-0.0015239148633554578
352.0,-0.0011881572427228093
384.0,-0.000877736893016845
416.0,-0.0007153318729251623
448.0,-0.001333830994553864
480.0,-0.00048257646267302334
512.0,-0.0015127507504075766
576.0,-0.0011141190771013498
640.0,-0.00017238548025488853
704.0,0.0017471595201641321
768.0,0.0005982635775581002
832.0,-0.0011241167085245252
896.0,-0.0008354519377462566
960.0,-0.0018298137001693249
1024.0,-0.0019037117017433047
1152.0,0.0008238640148192644
1280.0,6.646056135650724e-05
1408.0,0.0014864976983517408
1536.0,0.0010393854463472962
1664.0,0.0008505514706484973
1792.0,-0.0003623145748861134
1920.0,-4.837429150938988e-05
2048.0,-0.002829507226124406
2304.0,-0.0013580479426309466
2560.0,0.0007167637231759727
2816.0,0.000981946475803852
3072.0,0.0008352115983143449
3328.0,-0.00047009761328808963
3584.0,0.00023432674061041325
3840.0,-0.0005944901495240629
4096.0,0.00015354383504018188
4608.0,-0.00011440825619501993
5120.0,-0.0005718805477954447
5632.0,-0.0006682156817987561
6144.0,-0.00029196616378612816
6656.0,0.00027551891980692744
7168.0,-0.0014139559352770448
7680.0,6.583659705938771e-05
8192.0,0.0013338167918846011
9216.0,-4.989192166249268e-05
10240.0,-0.0011562816798686981
11264.0,0.0009074619156308472
12288.0,-2.3327324925048742e-06
13312.0,0.00030954298563301563
14336.0,0.00028738772380165756
end
