version,3.0
numOfCh,1
type,point
parent_name,100-cuts
ch_type,1_1
kcount,1
numberNandB,1
brightnessNandB,1
carpet pos,0
pc,0
Time (ms),CH1 Auto-Correlation
1.0,0.06373045593500137
2.0,0.06283481419086456
3.0,0.06194071099162102
4.0,0.0610467903316021
5.0,0.060156624764204025
6.0,0.05926666036248207
7.0,0.05837692320346832
8.0,0.05748220533132553
9.0,0.05661290884017944
10.0,0.05577947199344635
11.0,0.054951850324869156
12.0,0.054142795503139496
13.0,0.05335383117198944
14.0,0.052563849836587906
15.0,0.05178423225879669
16.0,0.0510115846991539
18.0,0.04947779327630997
20.0,0.04798031598329544
22.0,0.046550389379262924
24.0,0.04520057141780853
26.0,0.04391327500343323
28.0,0.04265804961323738
30.0,0.04142263904213905
32.0,0.040233977138996124
36.0,0.037912480533123016
40.0,0.03565915673971176
44.0,0.033638134598731995
48.0,0.03167438879609108
52.0,0.029679086059331894
56.0,0.027768613770604134
60.0,0.025958985090255737
64.0,0.024335840716958046
72.0,0.021441921591758728
80.0,0.019207458943128586
88.0,0.017433566972613335
96.0,0.01592954993247986
104.0,0.014592739753425121
112.0,0.013403579592704773
120.0,0.012185683473944664
128.0,0.01119146030396223
144.0,0.00979529693722725
160.0,0.008883911184966564
176.0,0.008982791565358639
192.0,0.009372568689286709
208.0,0.010202836245298386
224.0,0.011394857428967953
240.0,0.012140894308686256
256.0,0.012319075874984264
288.0,0.011623146012425423
320.0,0.007651573978364468
352.0,0.002121906727552414
384.0,-0.00195771805010736
416.0,-0.0021748635917901993
448.0,-0.0011420228984206915
480.0,-0.0005883134435862303
512.0,-0.0004557294596452266
576.0,-0.002418720629066229
640.0,-0.006064475513994694
704.0,-0.004708864726126194
768.0,-0.0014814327005296946
832.0,-0.003962683491408825
896.0,-0.0034964722581207752
960.0,-0.002062977058812976
1024.0,-0.00022204991546459496
1152.0,-0.0008559291600249708
1280.0,-0.00016417853476013988
1408.0,-0.0023946096189320087
1536.0,-0.0016689709154888988
1664.0,-0.003178190905600786
1792.0,-0.004284208174794912
1920.0,-0.010981072671711445
2048.0,-0.0045041050761938095
2304.0,-0.001538847922347486
2560.0,0.002275933511555195
2816.0,0.001739855040796101
3072.0,-0.00422371830791235
3328.0,-0.0019473284482955933
3584.0,0.0042046974413096905
3840.0,0.00557243637740612
4096.0,0.002796596148982644
4608.0,-0.004352193791419268
5120.0,-0.00283629959449172
5632.0,-0.001562092686071992
6144.0,-0.0022001517936587334
6656.0,0.003914384171366692
7168.0,0.0031169780995696783
7680.0,-0.0031585092656314373
8192.0,-0.0015916147967800498
9216.0,0.0005353695596568286
10240.0,0.0045482986606657505
11264.0,-0.004464761354029179
12288.0,0.0018721530213952065
13312.0,0.010888418182730675
14336.0,-0.005293685477226973
end
