version,3.0
numOfCh,1
type,point
parent_name,100-cuts
ch_type,1_1
kcount,1
numberNandB,1
brightnessNandB,1
carpet pos,0
pc,0
Time (ms),CH1 Auto-Correlation
1.0,0.025174278765916824
2.0,0.02483292482793331
3.0,0.024500207975506783
4.0,0.024172062054276466
5.0,0.023854469880461693
6.0,0.023538339883089066
7.0,0.023227661848068237
8.0,0.022926760837435722
9.0,0.022625748068094254
10.0,0.022323355078697205
11.0,0.022026201710104942
12.0,0.021727941930294037
13.0,0.02143458090722561
14.0,0.021147284656763077
15.0,0.020871009677648544
16.0,0.020599983632564545
18.0,0.02004806511104107
20.0,0.019495200365781784
22.0,0.018965324386954308
24.0,0.018453164026141167
26.0,0.017948484048247337
28.0,0.017454521730542183
30.0,0.016960235312581062
32.0,0.016483750194311142
36.0,0.015577107667922974
40.0,0.01471578050404787
44.0,0.013909224420785904
48.0,0.013147852383553982
52.0,0.012353823520243168
56.0,0.01156742312014103
60.0,0.010832175612449646
64.0,0.010182967409491539
72.0,0.009115619584918022
80.0,0.008250350132584572
88.0,0.0075033497996628284
96.0,0.006857058499008417
104.0,0.006251033395528793
112.0,0.005769419018179178
120.0,0.005419724155217409
128.0,0.005162948742508888
144.0,0.004570357035845518
160.0,0.003996687009930611
176.0,0.003504900960251689
192.0,0.003139000153169036
208.0,0.002703214529901743
224.0,0.0022986342664808035
240.0,0.0021209758706390858
256.0,0.001976368948817253
288.0,0.002060486236587167
320.0,0.001632309635169804
352.0,0.0015153371496126056
384.0,0.0019950694404542446
416.0,0.0019004896748811007
448.0,0.0009326779399998486
480.0,7.365911005763337e-05
512.0,-6.937907892279327e-05
576.0,0.001173631171695888
640.0,0.0030156727880239487
704.0,0.0031117128673940897
768.0,0.0015442516887560487
832.0,-0.0005263332859613001
896.0,-0.000945985724683851
960.0,6.726658466504887e-05
1024.0,0.001212464994750917
1152.0,0.0009146217489615083
1280.0,0.0009074080153368413
1408.0,5.524350126506761e-05
1536.0,-0.0029806813690811396
1664.0,-0.0027969172224402428
1792.0,-0.0012627560645341873
1920.0,-6.073775875847787e-05
2048.0,0.0014102526474744081
2304.0,-0.00014803779777139425
2560.0,0.0020128909964114428
2816.0,-0.0017632474191486835
3072.0,-0.0014345203526318073
3328.0,0.0010623026173561811
3584.0,-0.0019300640560686588
3840.0,-0.0013169713784009218
4096.0,-0.0025972463190555573
4608.0,0.0007491177530027926
5120.0,-0.0005004517734050751
5632.0,-0.0004908210830762982
6144.0,-0.0015497959684580564
6656.0,-0.001245708204805851
7168.0,0.0007266798638738692
7680.0,-0.0017918992089107633
8192.0,0.00014541894779540598
9216.0,0.0006776677328161895
10240.0,-0.0007612252957187593
11264.0,-0.00107396743260324
12288.0,0.0017456087516620755
13312.0,-0.001064291107468307
14336.0,0.0009506080532446504
end
