version,3.0
numOfCh,1
type,point
parent_name,100-cuts
ch_type,1_1
kcount,1
numberNandB,1
brightnessNandB,1
carpet pos,0
pc,0
Time (ms),CH1 Auto-Correlation
1.0,0.07418753206729889
2.0,0.07336823642253876
3.0,0.07255739718675613
4.0,0.07177537679672241
5.0,0.07101825624704361
6.0,0.07026932388544083
7.0,0.0695212185382843
8.0,0.06876513361930847
9.0,0.06803474575281143
10.0,0.06729671359062195
11.0,0.06657177954912186
12.0,0.06585267186164856
13.0,0.06512536108493805
14.0,0.06440365314483643
15.0,0.06370620429515839
16.0,0.06301162391901016
18.0,0.06167281046509743
20.0,0.060355186462402344
22.0,0.0590713769197464
24.0,0.05781133472919464
26.0,0.05662412568926811
28.0,0.05546417832374573
30.0,0.05435963720083237
32.0,0.05327391251921654
36.0,0.051153648644685745
40.0,0.04907824471592903
44.0,0.047141749411821365
48.0,0.04540952295064926
52.0,0.043820109218358994
56.0,0.04223126918077469
60.0,0.040714096277952194
64.0,0.03925030678510666
72.0,0.03630838543176651
80.0,0.03335752338171005
88.0,0.03090888261795044
96.0,0.02887616865336895
104.0,0.027085211127996445
112.0,0.025650162249803543
120.0,0.024703344330191612
128.0,0.023760979995131493
144.0,0.022084275260567665
160.0,0.02041545696556568
176.0,0.018270011991262436
192.0,0.015346995554864407
208.0,0.01275622844696045
224.0,0.010676849633455276
240.0,0.008598752319812775
256.0,0.006656472571194172
288.0,0.004553783219307661
320.0,0.003551759524270892
352.0,0.002678634598851204
384.0,0.0011387409176677465
416.0,-0.0008151428773999214
448.0,-0.0025442505721002817
480.0,-0.003908324986696243
512.0,-0.0034780248533934355
576.0,-0.0010906180832535028
640.0,-0.0005714455619454384
704.0,-0.005354538094252348
768.0,-0.008986052125692368
832.0,-0.0071202171966433525
896.0,-0.006522588897496462
960.0,-0.009695455431938171
1024.0,-0.012790398672223091
1152.0,-0.0065540471114218235
1280.0,-0.000359709607437253
1408.0,0.0002216879656771198
1536.0,0.004731975495815277
1664.0,0.006008451338857412
1792.0,0.00810061115771532
1920.0,0.005704632494598627
2048.0,0.008791465312242508
2304.0,0.0009729275479912758
2560.0,-0.009705998003482819
2816.0,-0.016038553789258003
3072.0,-0.007336768321692944
3328.0,0.002247581258416176
3584.0,0.009510657750070095
3840.0,0.008195709437131882
4096.0,0.0014427310088649392
4608.0,-0.010805904865264893
5120.0,0.004230238031595945
5632.0,0.00224612676538527
6144.0,-0.005144457332789898
6656.0,-0.004155728500336409
7168.0,0.007582995109260082
7680.0,0.00505477748811245
8192.0,-0.01305793970823288
9216.0,0.0018431731732562184
10240.0,-0.0021189767867326736
11264.0,0.0031341491267085075
12288.0,-0.006829180754721165
13312.0,0.0029696053825318813
14336.0,-0.002183304401114583
end
