version,3.0
numOfCh,1
type,point
parent_name,100-cuts
ch_type,1_1
kcount,1
numberNandB,1
brightnessNandB,1
carpet pos,0
pc,0
Time (ms),CH1 Auto-Correlation
1.0,0.12618310749530792
2.0,0.12467146664857864
3.0,0.12315838038921356
4.0,0.12167072296142578
5.0,0.12017475813627243
6.0,0.11869610846042633
7.0,0.11723524332046509
8.0,0.11586262285709381
9.0,0.11453192681074142
10.0,0.11319712549448013
11.0,0.11193867772817612
12.0,0.11069612950086594
13.0,0.10948295146226883
14.0,0.10831066966056824
15.0,0.10714969784021378
16.0,0.10597112029790878
18.0,0.10373979061841965
20.0,0.10154475271701813
22.0,0.0993533506989479
24.0,0.09718497097492218
26.0,0.09508025646209717
28.0,0.09301385283470154
30.0,0.09105339646339417
32.0,0.0890963152050972
36.0,0.08533639460802078
40.0,0.08163406699895859
44.0,0.07813858240842819
48.0,0.0748567059636116
52.0,0.07172887027263641
56.0,0.06880497187376022
60.0,0.06598295271396637
64.0,0.06327804177999496
72.0,0.057968638837337494
80.0,0.05282195657491684
88.0,0.04824606329202652
96.0,0.04400726407766342
104.0,0.03967561945319176
112.0,0.03576686233282089
120.0,0.032477810978889465
128.0,0.029790615662932396
144.0,0.02615208923816681
160.0,0.025088725611567497
176.0,0.025631386786699295
192.0,0.026213103905320168
208.0,0.025558456778526306
224.0,0.0234494861215353
240.0,0.020566454157233238
256.0,0.016663791611790657
288.0,0.0077329957857728004
320.0,0.000298920989735052
352.0,-0.003599414834752679
384.0,-0.0024708507116883993
416.0,0.0005757627659477293
448.0,0.003909569699317217
480.0,0.004004696384072304
512.0,0.0036577286664396524
576.0,-0.003869794076308608
640.0,-0.007113532163202763
704.0,-0.009359224699437618
768.0,-0.01649286225438118
832.0,-0.013931814581155777
896.0,-0.009321444667875767
960.0,-0.0067131370306015015
1024.0,-0.012256750836968422
1152.0,-0.0025843256153166294
1280.0,0.008624719455838203
1408.0,0.010768054984509945
1536.0,0.0050040436908602715
1664.0,0.003289437387138605
1792.0,0.0004045761888846755
1920.0,0.0031181101221591234
2048.0,0.0019178538350388408
2304.0,-0.008343584835529327
2560.0,-0.013678519986569881
2816.0,-0.01224509347230196
3072.0,-0.00660310685634613
3328.0,-0.008510628715157509
3584.0,-0.0076774354092776775
3840.0,-0.004595187958329916
4096.0,0.001213715528137982
4608.0,0.017135320231318474
5120.0,-0.0030012833885848522
5632.0,-0.007027053274214268
6144.0,0.002447195118293166
6656.0,0.004910648334771395
7168.0,-0.01294370461255312
7680.0,-0.01104279700666666
8192.0,-0.00015034482930786908
9216.0,0.011448250152170658
10240.0,0.0058858199045062065
11264.0,-0.0096988994628191
12288.0,-0.020321210846304893
13312.0,0.0017188189085572958
14336.0,0.010545744560658932
end
