version,3.0
numOfCh,1
type,point
parent_name,100-cuts
ch_type,1_1
kcount,1
numberNandB,1
brightnessNandB,1
carpet pos,0
pc,0
Time (ms),CH1 Auto-Correlation
1.0,0.09762243181467056
2.0,0.09631684422492981
3.0,0.09501532465219498
4.0,0.09376603364944458
5.0,0.09252163022756577
6.0,0.09127090871334076
7.0,0.0900481790304184
8.0,0.08892381191253662
9.0,0.0878257006406784
10.0,0.08675820380449295
11.0,0.08567718416452408
12.0,0.08459149301052094
13.0,0.08351215720176697
14.0,0.08245348930358887
15.0,0.08141126483678818
16.0,0.08036108314990997
18.0,0.07831154763698578
20.0,0.07629482448101044
22.0,0.0742393285036087
24.0,0.07220665365457535
26.0,0.07026026397943497
28.0,0.0684155598282814
30.0,0.06663413345813751
32.0,0.06490445137023926
36.0,0.06167733296751976
40.0,0.058672476559877396
44.0,0.055926721543073654
48.0,0.05334804952144623
52.0,0.05088931694626808
56.0,0.04854873940348625
60.0,0.046201013028621674
64.0,0.04403061047196388
72.0,0.03966262936592102
80.0,0.035633187741041183
88.0,0.03252851963043213
96.0,0.02963005006313324
104.0,0.027368968352675438
112.0,0.025541948154568672
120.0,0.023558638989925385
128.0,0.021683137863874435
144.0,0.017750965431332588
160.0,0.013191143982112408
176.0,0.009233636781573296
192.0,0.006592531222850084
208.0,0.0033755062613636255
224.0,-1.3134258551872335e-05
240.0,-0.0022868062369525433
256.0,-0.004004293121397495
288.0,-0.003211352741345763
320.0,0.00030569586670026183
352.0,0.002695782808586955
384.0,0.004222904797643423
416.0,0.00461394852027297
448.0,0.0048451549373567104
480.0,0.006327399518340826
512.0,0.007907255552709103
576.0,0.006012786645442247
640.0,-0.003767925314605236
704.0,-0.01103595457971096
768.0,-0.013315831311047077
832.0,-0.013837814331054688
896.0,-0.007819623686373234
960.0,-0.004355636890977621
1024.0,-0.0023105908185243607
1152.0,-0.01399057637900114
1280.0,-0.012281987816095352
1408.0,-0.011674240231513977
1536.0,-0.0038105780258774757
1664.0,-0.0030374587513506413
1792.0,-0.010301601141691208
1920.0,0.003324412275105715
2048.0,0.021255193278193474
2304.0,0.009818651713430882
2560.0,0.0023945446591824293
2816.0,-0.007655357476323843
3072.0,-0.0007192732882685959
3328.0,-0.006351697724312544
3584.0,-0.007846208289265633
3840.0,-0.00948744360357523
4096.0,0.004420139826834202
4608.0,-0.0014561469433829188
5120.0,-0.006739009637385607
5632.0,0.0007357402937486768
6144.0,0.002986256033182144
6656.0,0.0019854120910167694
7168.0,2.31556568905944e-05
7680.0,0.009294518269598484
8192.0,0.0009394544176757336
9216.0,-0.005385672673583031
10240.0,0.006070700008422136
11264.0,-0.006233851425349712
12288.0,-0.0036526969633996487
13312.0,0.005618922412395477
14336.0,-0.0003669549187179655
end
