version,3.0
numOfCh,1
type,point
parent_name,100-cuts
ch_type,1_1
kcount,1
numberNandB,1
brightnessNandB,1
carpet pos,0
pc,0
Time (ms),CH1 Auto-Correlation
1.0,0.041801486164331436
2.0,0.04133233055472374
3.0,0.04087638854980469
4.0,0.04043331369757652
5.0,0.03999476879835129
6.0,0.039545781910419464
7.0,0.03909614682197571
8.0,0.03865804895758629
9.0,0.038223978132009506
10.0,0.037801697850227356
11.0,0.0373852364718914
12.0,0.03696821630001068
13.0,0.03655377775430679
14.0,0.03614775463938713
15.0,0.03575115278363228
16.0,0.035354919731616974
18.0,0.03456687927246094
20.0,0.03378291055560112
22.0,0.033021751791238785
24.0,0.03226451203227043
26.0,0.03151217848062515
28.0,0.03077719174325466
30.0,0.030060065910220146
32.0,0.029354598373174667
36.0,0.028006842359900475
40.0,0.026759319007396698
44.0,0.025562508031725883
48.0,0.024409785866737366
52.0,0.02326788753271103
56.0,0.02214210107922554
60.0,0.02102838084101677
64.0,0.01994672417640686
72.0,0.01802065782248974
80.0,0.016503138467669487
88.0,0.014980139210820198
96.0,0.013441258110105991
104.0,0.012047480791807175
112.0,0.01083088107407093
120.0,0.009769635275006294
128.0,0.008776476606726646
144.0,0.006610489450395107
160.0,0.004439659882336855
176.0,0.0025020968168973923
192.0,0.0010049960110336542
208.0,-0.00017646170454099774
224.0,-0.0008565120515413582
240.0,-0.0011658453149721026
256.0,-0.0011096075177192688
288.0,-0.0008764368831180036
320.0,-0.000997208058834076
352.0,-0.0023489976301789284
384.0,-0.004229229409247637
416.0,-0.004986570682376623
448.0,-0.004084971267729998
480.0,-0.0032372933346778154
512.0,-0.003088824450969696
576.0,-0.0006904789479449391
640.0,-8.146231266437098e-06
704.0,0.0006171691929921508
768.0,0.0009067353676073253
832.0,0.0035389172844588757
896.0,0.005946641322225332
960.0,0.004725762642920017
1024.0,0.004329552408307791
1152.0,0.0034259692765772343
1280.0,-0.0009715977357700467
1408.0,-0.00510175758972764
1536.0,-0.00510982284322381
1664.0,0.00035819067852571607
1792.0,0.0035249546635895967
1920.0,0.004697972908616066
2048.0,0.0035220917779952288
2304.0,-0.001901130424812436
2560.0,-0.0039024248253554106
2816.0,0.0010407031513750553
3072.0,-0.0010470796842128038
3328.0,3.77369906345848e-05
3584.0,-0.0014778831973671913
3840.0,4.530452497419901e-05
4096.0,-0.0002775699831545353
4608.0,-0.002658889628946781
5120.0,-0.0006266537820920348
5632.0,0.0025004264898598194
6144.0,0.0033010824117809534
6656.0,0.0002974833478219807
7168.0,0.00341954012401402
7680.0,0.0004493796732276678
8192.0,7.396361979772337e-06
9216.0,-0.0003279958909843117
10240.0,-0.002088820794597268
11264.0,-0.0034428194630891085
12288.0,-0.0009028979111462831
13312.0,-0.0011472039623185992
14336.0,-0.003971504513174295
end
