version,3.0
numOfCh,1
type,point
parent_name,100-cuts
ch_type,1_1
kcount,1
numberNandB,1
brightnessNandB,1
carpet pos,0
pc,0
Time (ms),CH1 Auto-Correlation
1.0,0.07648779451847076
2.0,0.07558674365282059
3.0,0.07470891624689102
4.0,0.0738271102309227
5.0,0.07297447323799133
6.0,0.07212880253791809
7.0,0.07129595428705215
8.0,0.07049363851547241
9.0,0.06971005350351334
10.0,0.0689394623041153
11.0,0.0681663379073143
12.0,0.06742285937070847
13.0,0.06669212877750397
14.0,0.06595872342586517
15.0,0.06519366055727005
16.0,0.06446393579244614
18.0,0.06302192062139511
20.0,0.061653073877096176
22.0,0.060322415083646774
24.0,0.059003159403800964
26.0,0.0577038936316967
28.0,0.05644361302256584
30.0,0.05526513606309891
32.0,0.05410074070096016
36.0,0.051720403134822845
40.0,0.049510326236486435
44.0,0.04740412160754204
48.0,0.045433275401592255
52.0,0.043522581458091736
56.0,0.041749682277441025
60.0,0.040168263018131256
64.0,0.03873785585165024
72.0,0.03582485392689705
80.0,0.03309611603617668
88.0,0.030721090734004974
96.0,0.028657138347625732
104.0,0.026957573369145393
112.0,0.02547263354063034
120.0,0.02393343299627304
128.0,0.02282845601439476
144.0,0.02094217948615551
160.0,0.019329940900206566
176.0,0.017911165952682495
192.0,0.017287205904722214
208.0,0.01614789292216301
224.0,0.015270665287971497
240.0,0.014574086293578148
256.0,0.013873985968530178
288.0,0.013366335071623325
320.0,0.012083638459444046
352.0,0.008490659296512604
384.0,0.0033296607434749603
416.0,-0.0019615679048001766
448.0,-0.0029294397681951523
480.0,-0.0018086598720401525
512.0,-0.00129569205455482
576.0,-0.0030904775485396385
640.0,-0.0036832981277257204
704.0,-0.005494899116456509
768.0,-0.005205173511058092
832.0,-0.0008587692282162607
896.0,1.666811658651568e-05
960.0,0.001436568796634674
1024.0,-0.0005278433673083782
1152.0,0.004713373724371195
1280.0,0.010967262089252472
1408.0,0.0061406358145177364
1536.0,0.002418150193989277
1664.0,-0.0018392006168141961
1792.0,-0.004598044790327549
1920.0,-0.0012534036068245769
2048.0,-0.007412869483232498
2304.0,0.002208123914897442
2560.0,0.00261139078065753
2816.0,-0.005275730509310961
3072.0,-0.01261218823492527
3328.0,-0.01322757638990879
3584.0,-0.0037874667905271053
3840.0,0.003601084230467677
4096.0,-0.0067745097912848
4608.0,-0.010762984864413738
5120.0,-0.0008878950029611588
5632.0,-0.007453419268131256
6144.0,-0.00010408183879917488
6656.0,0.008265851996839046
7168.0,0.01078998576849699
7680.0,0.0039747110567986965
8192.0,0.00432223966345191
9216.0,0.0013216037768870592
10240.0,-0.003254706272855401
11264.0,-0.0017931829206645489
12288.0,-0.0027404525317251682
13312.0,-0.005796279292553663
14336.0,0.002968448679894209
end
