version,3.0
numOfCh,1
type,point
parent_name,100-cuts
ch_type,1_1
kcount,1
numberNandB,1
brightnessNandB,1
carpet pos,0
pc,0
Time (ms),CH1 Auto-Correlation
1.0,0.02708246186375618
2.0,0.026707129552960396
3.0,0.02633398212492466
4.0,0.025980252772569656
5.0,0.025623997673392296
6.0,0.025278015062212944
7.0,0.024939239025115967
8.0,0.024611448869109154
9.0,0.024299394339323044
10.0,0.024002477526664734
11.0,0.023708401247859
12.0,0.023422881960868835
13.0,0.023141367360949516
14.0,0.022865887731313705
15.0,0.02259727753698826
16.0,0.02233622595667839
18.0,0.02181762270629406
20.0,0.0213504396378994
22.0,0.020895030349493027
24.0,0.02044488862156868
26.0,0.02000228688120842
28.0,0.01958286762237549
30.0,0.01917993277311325
32.0,0.018768049776554108
36.0,0.017918813973665237
40.0,0.017115794122219086
44.0,0.016384758055210114
48.0,0.015704618766903877
52.0,0.01511616725474596
56.0,0.014583435840904713
60.0,0.014092547819018364
64.0,0.013602574355900288
72.0,0.012592894956469536
80.0,0.01163520384579897
88.0,0.010787241160869598
96.0,0.010055546648800373
104.0,0.009443123824894428
112.0,0.008848031982779503
120.0,0.008314069360494614
128.0,0.00788148120045662
144.0,0.007240263745188713
160.0,0.0066879247315227985
176.0,0.005909894127398729
192.0,0.005128229968249798
208.0,0.004412542562931776
224.0,0.0038710348308086395
240.0,0.003191047813743353
256.0,0.002403928665444255
288.0,0.0008883384289219975
320.0,-0.00011533821816556156
352.0,-0.00010922964429482818
384.0,0.0002181481395382434
416.0,-0.0002952973882202059
448.0,-0.0008664632914587855
480.0,-0.0016802375903353095
512.0,-0.0016347484197467566
576.0,0.0006092753610573709
640.0,0.001933584688231349
704.0,0.0013712983345612884
768.0,0.0009114009444601834
832.0,0.0005756350001320243
896.0,-0.0006093478878028691
960.0,0.0010879577603191137
1024.0,0.0017755518201738596
1152.0,0.001132342149503529
1280.0,0.00036898558028042316
1408.0,0.0003139454056508839
1536.0,0.0012040006695315242
1664.0,-0.0006342091946862638
1792.0,-0.0026407104451209307
1920.0,-0.0018065167823806405
2048.0,-0.0005309910047799349
2304.0,0.0013417964801192284
2560.0,0.0008988217450678349
2816.0,0.0016912835417315364
3072.0,0.002373551484197378
3328.0,0.0007053058943711221
3584.0,0.00020988582400605083
3840.0,0.00025917377206496894
4096.0,-0.0024924774188548326
4608.0,-0.000999240786768496
5120.0,-0.0027104257605969906
5632.0,0.0014974696096032858
6144.0,-0.0032691597007215023
6656.0,0.0014876797795295715
7168.0,-0.001467585563659668
7680.0,-0.0019870286341756582
8192.0,-0.000607033318374306
9216.0,0.002928217640146613
10240.0,-0.0003293388872407377
11264.0,-0.004735870752483606
12288.0,0.002813611878082156
13312.0,-0.002964475890621543
14336.0,-0.005316732916980982
end
