version,3.0
numOfCh,1
type,point
parent_name,100-cuts
ch_type,1_1
kcount,1
numberNandB,1
brightnessNandB,1
carpet pos,0
pc,0
Time (ms),CH1 Auto-Correlation
1.0,0.12189911305904388
2.0,0.12082438915967941
3.0,0.1197490394115448
4.0,0.1186925545334816
5.0,0.11764241009950638
6.0,0.11660490930080414
7.0,0.11561547964811325
8.0,0.11465024948120117
9.0,0.11370793730020523
10.0,0.1128234714269638
11.0,0.11192557960748672
12.0,0.1110287457704544
13.0,0.11014685034751892
14.0,0.10925812274217606
15.0,0.10837921500205994
16.0,0.1074952706694603
18.0,0.10574254393577576
20.0,0.1040228009223938
22.0,0.10234729200601578
24.0,0.10066691786050797
26.0,0.09902907907962799
28.0,0.09742220491170883
30.0,0.09584459662437439
32.0,0.09431613236665726
36.0,0.0913754254579544
40.0,0.08857041597366333
44.0,0.08592363446950912
48.0,0.08330710232257843
52.0,0.08063414692878723
56.0,0.07797946035861969
60.0,0.07560330629348755
64.0,0.07356579601764679
72.0,0.06992973387241364
80.0,0.06665366142988205
88.0,0.0633886456489563
96.0,0.0604361854493618
104.0,0.05758141726255417
112.0,0.055155958980321884
120.0,0.05255115404725075
128.0,0.04993567243218422
144.0,0.04460183531045914
160.0,0.039540186524391174
176.0,0.03468212112784386
192.0,0.03103889897465706
208.0,0.0283493772149086
224.0,0.025014376267790794
240.0,0.02078600786626339
256.0,0.017139237374067307
288.0,0.011329026892781258
320.0,0.007083447650074959
352.0,0.003347297664731741
384.0,-0.0017334175063297153
416.0,-0.0046754986979067326
448.0,-0.0072001186199486256
480.0,-0.006341008935123682
512.0,-0.003295239759609103
576.0,0.00531592546030879
640.0,0.007072557229548693
704.0,0.008067064918577671
768.0,0.005073451437056065
832.0,-0.002441477496176958
896.0,-0.0063882810063660145
960.0,-0.007141506299376488
1024.0,-0.010196094401180744
1152.0,-0.010835222899913788
1280.0,-0.00517548993229866
1408.0,-0.0035659978166222572
1536.0,0.004011943470686674
1664.0,0.00991071853786707
1792.0,0.007505836430937052
1920.0,0.007466346491128206
2048.0,-0.002262827707454562
2304.0,0.009508341550827026
2560.0,-0.004184729885309935
2816.0,-0.007281923666596413
3072.0,0.005175167694687843
3328.0,0.007678969297558069
3584.0,0.003003448946401477
3840.0,0.003023170866072178
4096.0,0.002607946516945958
4608.0,-0.006802349351346493
5120.0,-0.004501621704548597
5632.0,0.010546877048909664
6144.0,0.0018578018061816692
6656.0,-0.008447391912341118
7168.0,-0.00799422524869442
7680.0,-8.102665015030652e-05
8192.0,0.0010045835515484214
9216.0,0.007771889213472605
10240.0,-0.011381844989955425
11264.0,0.008822180330753326
12288.0,-0.021098049357533455
13312.0,-0.009618131443858147
14336.0,-0.054697874933481216
end
