version,3.0
numOfCh,1
type,point
parent_name,100-cuts
ch_type,1_1
kcount,1
numberNandB,1
brightnessNandB,1
carpet pos,0
pc,0
Time (ms),CH1 Auto-Correlation
1.0,0.022702191025018692
2.0,0.022352023050189018
3.0,0.022003887221217155
4.0,0.021655716001987457
5.0,0.021321142092347145
6.0,0.02099830098450184
7.0,0.020684728398919106
8.0,0.020373361185193062
9.0,0.02006131410598755
10.0,0.01974920928478241
11.0,0.019442299380898476
12.0,0.01913776807487011
13.0,0.01883525401353836
14.0,0.018532635644078255
15.0,0.0182336512953043
16.0,0.017932932823896408
18.0,0.017327243462204933
20.0,0.01674986258149147
22.0,0.016211220994591713
24.0,0.015702635049819946
26.0,0.015214299783110619
28.0,0.01476856879889965
30.0,0.014346466399729252
32.0,0.013941370882093906
36.0,0.013179968111217022
40.0,0.012489096261560917
44.0,0.01183668989688158
48.0,0.01124623604118824
52.0,0.010707021690905094
56.0,0.010191231034696102
60.0,0.009693605825304985
64.0,0.009220480918884277
72.0,0.008367929607629776
80.0,0.007728818338364363
88.0,0.007238038815557957
96.0,0.006823706440627575
104.0,0.006427722051739693
112.0,0.005989781580865383
120.0,0.005560155957937241
128.0,0.005204441957175732
144.0,0.004662207327783108
160.0,0.004400372505187988
176.0,0.0041382089257240295
192.0,0.0037136052269488573
208.0,0.0035067128483206034
224.0,0.003759378334507346
240.0,0.003841431112959981
256.0,0.003862472716718912
288.0,0.003478745464235544
320.0,0.002618507482111454
352.0,0.001433050143532455
384.0,-0.00012539123417809606
416.0,-0.0011194716207683086
448.0,-0.0013112269807606936
480.0,-0.00055879499996081
512.0,0.00024826949811540544
576.0,0.00024411304912064224
640.0,0.0002919232938438654
704.0,0.0004348203365225345
768.0,0.0002510746126063168
832.0,-2.983287049573846e-05
896.0,0.000641657505184412
960.0,8.297296881210059e-05
1024.0,-0.0008036386570893228
1152.0,-0.0012044067261740565
1280.0,8.552669896744192e-05
1408.0,0.0008163784514181316
1536.0,0.0016659084940329194
1664.0,0.0010886433301493526
1792.0,0.0006829109624959528
1920.0,-0.0014019357040524483
2048.0,-0.0014314193977043033
2304.0,-0.0005943579599261284
2560.0,-0.0014766264939680696
2816.0,-0.0025818925350904465
3072.0,-0.0003073858970310539
3328.0,-0.0015616754535585642
3584.0,-0.002333190059289336
3840.0,-0.0021405057050287724
4096.0,-0.0011115364031866193
4608.0,0.0005089123151265085
5120.0,9.985022188629955e-05
5632.0,5.3146155551075935e-05
6144.0,0.0009497361606918275
6656.0,0.0009906563209369779
7168.0,-0.0006788031896576285
7680.0,-4.3070536776212975e-05
8192.0,-0.0007294443785212934
9216.0,0.00028523791115731
10240.0,-0.002189415041357279
11264.0,0.0009886688785627484
12288.0,0.0017759850015863776
13312.0,-0.0017524071736261249
14336.0,0.0018882079748436809
end
