version,3.0
numOfCh,1
type,point
parent_name,100-cuts
ch_type,1_1
kcount,1
numberNandB,1
brightnessNandB,1
carpet pos,0
pc,0
Time (ms),CH1 Auto-Correlation
1.0,0.08603794127702713
2.0,0.0850001722574234
3.0,0.08398771286010742
4.0,0.08298245072364807
5.0,0.0820005014538765
6.0,0.08105107396841049
7.0,0.08009451627731323
8.0,0.07919140160083771
9.0,0.07830622792243958
10.0,0.07746090739965439
11.0,0.07664661109447479
12.0,0.07586600631475449
13.0,0.07510051131248474
14.0,0.07434146851301193
15.0,0.07359976321458817
16.0,0.07285664975643158
18.0,0.0713806226849556
20.0,0.07000194489955902
22.0,0.06873731315135956
24.0,0.06745525449514389
26.0,0.06612977385520935
28.0,0.06485916674137115
30.0,0.06358993053436279
32.0,0.06234094500541687
36.0,0.059839971363544464
40.0,0.057351481169462204
44.0,0.05499180406332016
48.0,0.05271495506167412
52.0,0.05050654709339142
56.0,0.04842822998762131
60.0,0.04639136791229248
64.0,0.04452085122466087
72.0,0.04120396450161934
80.0,0.038240041583776474
88.0,0.03558634966611862
96.0,0.033033519983291626
104.0,0.030535947531461716
112.0,0.028308777138590813
120.0,0.02653396502137184
128.0,0.02508421801030636
144.0,0.021826116368174553
160.0,0.01876584067940712
176.0,0.0163992028683424
192.0,0.014931472949683666
208.0,0.014386055059731007
224.0,0.014034917578101158
240.0,0.013863950036466122
256.0,0.014633377082645893
288.0,0.014474530704319477
320.0,0.012997234240174294
352.0,0.009486149065196514
384.0,0.006748363841325045
416.0,0.006196078844368458
448.0,0.00582010205835104
480.0,0.005378998350352049
512.0,0.004339044913649559
576.0,0.0002857214130926877
640.0,-0.00374931120313704
704.0,-0.0007873668218962848
768.0,0.001739011611789465
832.0,-0.0006049995427019894
896.0,-0.005209391936659813
960.0,-0.006283159833401442
1024.0,-0.003615176770836115
1152.0,-0.008259907364845276
1280.0,-0.00962270051240921
1408.0,-0.009550537914037704
1536.0,-0.014332151040434837
1664.0,-0.015520105138421059
1792.0,-0.01208510622382164
1920.0,-0.013538883067667484
2048.0,-0.008109364658594131
2304.0,0.003890848718583584
2560.0,0.008460207842290401
2816.0,0.009938514791429043
3072.0,0.01059949491173029
3328.0,0.002290110569447279
3584.0,-0.0023127817548811436
3840.0,-0.007060000207275152
4096.0,-0.007316073402762413
4608.0,-0.011293211951851845
5120.0,-0.004165615886449814
5632.0,-0.0029899515211582184
6144.0,0.004876201506704092
6656.0,0.006497735157608986
7168.0,-0.003712365636602044
7680.0,0.003092968137934804
8192.0,-0.005183227825909853
9216.0,0.006251684855669737
10240.0,-0.0036841502878814936
11264.0,0.0008458993397653103
12288.0,-0.00157957524061203
13312.0,-0.008078091777861118
14336.0,0.013164703734219074
end
