version,3.0
numOfCh,1
type,point
parent_name,100-cuts
ch_type,1_1
kcount,1
numberNandB,1
brightnessNandB,1
carpet pos,0
pc,0
Time (ms),CH1 Auto-Correlation
1.0,0.06749118864536285
2.0,0.06660999357700348
3.0,0.06574606150388718
4.0,0.06488513201475143
5.0,0.06406134366989136
6.0,0.06322123110294342
7.0,0.06241650879383087
8.0,0.06160225719213486
9.0,0.06081489101052284
10.0,0.06004302576184273
11.0,0.05926307290792465
12.0,0.05849567800760269
13.0,0.05773359537124634
14.0,0.056969285011291504
15.0,0.05620262399315834
16.0,0.05546317249536514
18.0,0.05398324504494667
20.0,0.05258546024560928
22.0,0.051219962537288666
24.0,0.04984644055366516
26.0,0.048479508608579636
28.0,0.04714345932006836
30.0,0.0458282046020031
32.0,0.044530827552080154
36.0,0.04208530858159065
40.0,0.03997839614748955
44.0,0.03807032108306885
48.0,0.03620673343539238
52.0,0.03442342206835747
56.0,0.03277736157178879
60.0,0.03128887340426445
64.0,0.029905499890446663
72.0,0.027445031329989433
80.0,0.024929236620664597
88.0,0.02253149449825287
96.0,0.020588058978319168
104.0,0.019057339057326317
112.0,0.01757749915122986
120.0,0.01606173627078533
128.0,0.014676500111818314
144.0,0.012641537003219128
160.0,0.010731598362326622
176.0,0.008724142797291279
192.0,0.006664298474788666
208.0,0.004734280984848738
224.0,0.0033870043698698282
240.0,0.002465525409206748
256.0,0.0016984718386083841
288.0,0.0007351974491029978
320.0,-0.0008020008099265397
352.0,-0.0023270149249583483
384.0,-0.0037554712034761906
416.0,-0.00578392343595624
448.0,-0.00614869175478816
480.0,-0.006052689626812935
512.0,-0.006395117379724979
576.0,-0.0033551363740116358
640.0,-0.0026701821479946375
704.0,-0.003817350836470723
768.0,-0.003167524002492428
832.0,-0.004822296556085348
896.0,-0.003596722846850753
960.0,-0.0023537154775112867
1024.0,-0.002047158544883132
1152.0,-0.001665216637775302
1280.0,-0.0010856661247089505
1408.0,0.0007344642654061317
1536.0,-0.0017356196185573936
1664.0,-0.006836566608399153
1792.0,-0.007148779463022947
1920.0,-0.007578753866255283
2048.0,-0.0008655811543576419
2304.0,0.004774889443069696
2560.0,0.007474254816770554
2816.0,-0.0006583229987882078
3072.0,-0.005303437355905771
3328.0,-0.00914450641721487
3584.0,0.00158133904915303
3840.0,0.004505737219005823
4096.0,0.0031183245591819286
4608.0,0.0019240661058574915
5120.0,0.0021205712109804153
5632.0,-0.007629901170730591
6144.0,-0.0024657335598021746
6656.0,0.0029435825999826193
7168.0,0.006285182200372219
7680.0,0.0032085981220006943
8192.0,-0.007300283759832382
9216.0,0.003346469020470977
10240.0,-0.004125236067920923
11264.0,-0.0002565452014096081
12288.0,-0.000589480681810528
13312.0,0.00027332984609529376
14336.0,0.0024991061072796583
end
