version,3.0
numOfCh,1
type,point
parent_name,100-cuts
ch_type,1_1
kcount,1
numberNandB,1
brightnessNandB,1
carpet pos,0
pc,0
Time (ms),CH1 Auto-Correlation
1.0,0.027364889159798622
2.0,0.026939757168293
3.0,0.0265232864767313
4.0,0.02611788548529148
5.0,0.025713540613651276
6.0,0.025318002328276634
7.0,0.024925554171204567
8.0,0.024536432698369026
9.0,0.0241518747061491
10.0,0.02378256246447563
11.0,0.023420007899403572
12.0,0.023061776533722878
13.0,0.022710537537932396
14.0,0.0223549772053957
15.0,0.022013098001480103
16.0,0.021678389981389046
18.0,0.021035974845290184
20.0,0.020404018461704254
22.0,0.01980733871459961
24.0,0.019236987456679344
26.0,0.018698880448937416
28.0,0.018166618421673775
30.0,0.017646685242652893
32.0,0.017153669148683548
36.0,0.01621001400053501
40.0,0.015338352881371975
44.0,0.014552393928170204
48.0,0.013818258419632912
52.0,0.01313772238790989
56.0,0.012485412880778313
60.0,0.011853325180709362
64.0,0.011222747154533863
72.0,0.010213332250714302
80.0,0.009558295831084251
88.0,0.009037137031555176
96.0,0.008480879478156567
104.0,0.007950879633426666
112.0,0.00750632444396615
120.0,0.006964217405766249
128.0,0.006409804802387953
144.0,0.005189193412661552
160.0,0.003883667290210724
176.0,0.0032471518497914076
192.0,0.0028327270410954952
208.0,0.002541354624554515
224.0,0.0024713531602174044
240.0,0.0023135202936828136
256.0,0.002367753768339753
288.0,0.0020999456755816936
320.0,0.0005682140472345054
352.0,-0.0017835599137470126
384.0,-0.003171645337715745
416.0,-0.003792660776525736
448.0,-0.004294786136597395
480.0,-0.0031296873930841684
512.0,-0.0014548066537827253
576.0,0.00046131262206472456
640.0,0.0011930953478440642
704.0,0.002029858762398362
768.0,0.0034470323007553816
832.0,0.004281157627701759
896.0,0.004297267179936171
960.0,0.0033290996216237545
1024.0,0.0016473454888910055
1152.0,-0.0017027907306328416
1280.0,-0.003387515200302005
1408.0,-0.002302405657246709
1536.0,0.0009632873698137701
1664.0,0.0013325409963726997
1792.0,0.001390216057188809
1920.0,0.0015976963331922889
2048.0,2.042756477749208e-06
2304.0,-0.0005538309924304485
2560.0,0.0019422040786594152
2816.0,0.0023831159342080355
3072.0,-0.0008321131463162601
3328.0,0.003025190206244588
3584.0,0.002223766641691327
3840.0,-0.0009231037693098187
4096.0,-0.00044927853741683066
4608.0,-0.00026451333542354405
5120.0,-0.001086366712115705
5632.0,0.00011761581845348701
6144.0,-0.0005260011530481279
6656.0,-0.0006089251837693155
7168.0,-0.0011046984000131488
7680.0,-0.0015353140188381076
8192.0,-0.0014030494494363666
9216.0,-0.0013356591807678342
10240.0,-0.002895384095609188
11264.0,-0.0005108984187245369
12288.0,-0.0009927162900567055
13312.0,-0.0018263148376718163
14336.0,0.0025585873518139124
end
