version,3.0
numOfCh,1
type,point
parent_name,100-cuts
ch_type,1_1
kcount,1
numberNandB,1
brightnessNandB,1
carpet pos,0
pc,0
Time (ms),CH1 Auto-Correlation
1.0,0.06126823276281357
2.0,0.06044085696339607
3.0,0.059625450521707535
4.0,0.058817457407712936
5.0,0.05801650881767273
6.0,0.05723021551966667
7.0,0.05647049471735954
8.0,0.05571923777461052
9.0,0.05497816577553749
10.0,0.05424903705716133
11.0,0.05354118347167969
12.0,0.05284637585282326
13.0,0.05215318128466606
14.0,0.0514785461127758
15.0,0.05080384761095047
16.0,0.05013413354754448
18.0,0.04881082847714424
20.0,0.047498878091573715
22.0,0.046225424855947495
24.0,0.04499971121549606
26.0,0.043834928423166275
28.0,0.04266366735100746
30.0,0.04150282219052315
32.0,0.04036358371376991
36.0,0.038193635642528534
40.0,0.03625575080513954
44.0,0.03441574424505234
48.0,0.03260084241628647
52.0,0.030946459621191025
56.0,0.0293026901781559
60.0,0.027736341580748558
64.0,0.026226939633488655
72.0,0.023296086117625237
80.0,0.020705634728074074
88.0,0.018495259806513786
96.0,0.01689186878502369
104.0,0.015602614730596542
112.0,0.014772851020097733
120.0,0.014015918597579002
128.0,0.01314464583992958
144.0,0.011165084317326546
160.0,0.009163239039480686
176.0,0.007515845820307732
192.0,0.00673950370401144
208.0,0.0065733930096030235
224.0,0.006088390946388245
240.0,0.005698331166058779
256.0,0.0051628947257995605
288.0,0.0036026209127157927
320.0,0.0016478105681017041
352.0,0.0011083949357271194
384.0,0.001115567283704877
416.0,0.0009707441204227507
448.0,0.000567639886867255
480.0,0.0011951085180044174
512.0,0.0019513050792738795
576.0,-0.00043686837307177484
640.0,-0.00037725205766037107
704.0,0.0010697615798562765
768.0,-0.000421198143158108
832.0,4.244565934641287e-05
896.0,0.0016586967976763844
960.0,0.0014020302332937717
1024.0,0.0007265743333846331
1152.0,-0.00045044152648188174
1280.0,-0.002461733529344201
1408.0,-0.007047425024211407
1536.0,-0.0058449930511415005
1664.0,-0.0044044870883226395
1792.0,0.001099788467399776
1920.0,0.004252961371093988
2048.0,0.003699616529047489
2304.0,-0.0017484613927081227
2560.0,-0.002141739707440138
2816.0,-0.0017824409296736121
3072.0,-0.00014932506019249558
3328.0,-0.004030031617730856
3584.0,-0.004528492223471403
3840.0,0.0006699307705275714
4096.0,-0.004412835463881493
4608.0,-0.0002937257813755423
5120.0,0.0028184137772768736
5632.0,-0.004052633419632912
6144.0,-0.0036955091636627913
6656.0,-0.0007876561721786857
7168.0,0.009159947745501995
7680.0,0.0008717969176359475
8192.0,0.0016829054802656174
9216.0,0.0019407329382374883
10240.0,-0.0014380826614797115
11264.0,-0.001365908421576023
12288.0,-0.00693403510376811
13312.0,-0.000715496251359582
14336.0,0.007172908168286085
end
