version,3.0
numOfCh,1
type,point
parent_name,100-cuts
ch_type,1_1
kcount,1
numberNandB,1
brightnessNandB,1
carpet pos,0
pc,0
Time (ms),CH1 Auto-Correlation
1.0,0.06439332664012909
2.0,0.06355281174182892
3.0,0.06271978467702866
4.0,0.06189552694559097
5.0,0.061069294810295105
6.0,0.060258883982896805
7.0,0.05945439264178276
8.0,0.058658722788095474
9.0,0.05784659460186958
10.0,0.057058729231357574
11.0,0.05629909411072731
12.0,0.055530812591314316
13.0,0.05478140339255333
14.0,0.05403353273868561
15.0,0.05329041928052902
16.0,0.05256573483347893
18.0,0.05117259547114372
20.0,0.049816906452178955
22.0,0.04848134145140648
24.0,0.04722527042031288
26.0,0.046035636216402054
28.0,0.04490235447883606
30.0,0.04379263520240784
32.0,0.04270847141742706
36.0,0.040543392300605774
40.0,0.03852685168385506
44.0,0.036646898835897446
48.0,0.03481777012348175
52.0,0.03314730152487755
56.0,0.03152827173471451
60.0,0.030004069209098816
64.0,0.02852368913590908
72.0,0.025627704337239265
80.0,0.02312849648296833
88.0,0.020853834226727486
96.0,0.018609827384352684
104.0,0.016477735713124275
112.0,0.014697784557938576
120.0,0.013114914298057556
128.0,0.011656945571303368
144.0,0.009243623353540897
160.0,0.008074462413787842
176.0,0.007974522188305855
192.0,0.00770605867728591
208.0,0.007270253263413906
224.0,0.00738241383805871
240.0,0.008061917498707771
256.0,0.007434628438204527
288.0,0.007864403538405895
320.0,0.009298612363636494
352.0,0.009912715293467045
384.0,0.008638454601168633
416.0,0.006347301881760359
448.0,0.0052711195312440395
480.0,0.0031874841079115868
512.0,0.0029037087224423885
576.0,0.0030899762641638517
640.0,0.0004986412823200226
704.0,-0.0005544774467125535
768.0,-0.0015168196987360716
832.0,-0.00044694202370010316
896.0,-0.0011193035170435905
960.0,-0.0019681379199028015
1024.0,-0.002238811459392309
1152.0,-0.003434523241594434
1280.0,-0.003932909574359655
1408.0,0.0002661810431163758
1536.0,-0.002631549257785082
1664.0,-0.005606517661362886
1792.0,-0.0024151322431862354
1920.0,0.0009508637012913823
2048.0,0.00013545416004490107
2304.0,-0.0031923481728881598
2560.0,-0.0006633081356994808
2816.0,-0.004936115350574255
3072.0,-0.0010716174729168415
3328.0,0.0025593149475753307
3584.0,0.004783318843692541
3840.0,0.006180658936500549
4096.0,-0.0039038704708218575
4608.0,-0.010102550499141216
5120.0,-0.010754560120403767
5632.0,-0.00036249225377105176
6144.0,-0.0009420030401088297
6656.0,0.001751987379975617
7168.0,0.002630559727549553
7680.0,0.006178527604788542
8192.0,-0.00463862344622612
9216.0,0.004706676118075848
10240.0,0.0035905614495277405
11264.0,-0.0022458790335804224
12288.0,-0.0029482690151780844
13312.0,-0.0037418422289192677
14336.0,-9.195885650115088e-05
end
