version,3.0
numOfCh,1
type,point
parent_name,100-cuts
ch_type,1_1
kcount,1
numberNandB,1
brightnessNandB,1
carpet pos,0
pc,0
Time (ms),CH1 Auto-Correlation
1.0,0.02420000731945038
2.0,0.02387196011841297
3.0,0.023548979312181473
4.0,0.02323422208428383
5.0,0.022924071177840233
6.0,0.02260889671742916
7.0,0.022296465933322906
8.0,0.02199064940214157
9.0,0.021691445261240005
10.0,0.02139270305633545
11.0,0.02110132947564125
12.0,0.02081770822405815
13.0,0.020540710538625717
14.0,0.020268848165869713
15.0,0.01999606005847454
16.0,0.019726699218153954
18.0,0.019190367311239243
20.0,0.018679887056350708
22.0,0.01818152889609337
24.0,0.017696190625429153
26.0,0.01724293641746044
28.0,0.01681692712008953
30.0,0.01642189919948578
32.0,0.016034143045544624
36.0,0.015313019044697285
40.0,0.014662698842585087
44.0,0.014084303751587868
48.0,0.013548680581152439
52.0,0.01299210637807846
56.0,0.012388937175273895
60.0,0.011817862279713154
64.0,0.011279496364295483
72.0,0.010237799026072025
80.0,0.009313530288636684
88.0,0.008527799509465694
96.0,0.007855603471398354
104.0,0.007347477599978447
112.0,0.006951897405087948
120.0,0.006583905778825283
128.0,0.006420352961868048
144.0,0.006458870135247707
160.0,0.006295835133641958
176.0,0.006025527138262987
192.0,0.0056033264845609665
208.0,0.005095370579510927
224.0,0.004558509681373835
240.0,0.0038001968059688807
256.0,0.0034625863190740347
288.0,0.002802102128043771
320.0,0.0021672132425010204
352.0,0.0018180200131610036
384.0,0.0011149730999022722
416.0,0.000957877782639116
448.0,0.0003567060048226267
480.0,6.829903577454388e-05
512.0,-0.0003731469332706183
576.0,-0.00014906880096532404
640.0,0.0004968837019987404
704.0,0.0008953086799010634
768.0,0.0011298023164272308
832.0,0.0010241706622764468
896.0,0.00048473881906829774
960.0,-0.0005533585790544748
1024.0,-0.0007946742698550224
1152.0,-0.0007000784389674664
1280.0,-0.0012668619165197015
1408.0,-0.0013024560175836086
1536.0,-0.0015287278220057487
1664.0,-0.001294628600589931
1792.0,-0.0017056665383279324
1920.0,-0.00405663950368762
2048.0,-0.0041915299370884895
2304.0,-0.0016938218614086509
2560.0,-0.002010228345170617
2816.0,-0.001372544327750802
3072.0,0.0015840287087485194
3328.0,0.0019726690370589495
3584.0,0.0012609539553523064
3840.0,0.0021326960995793343
4096.0,0.0018975030397996306
4608.0,-0.001255541923455894
5120.0,0.0005133622325956821
5632.0,-0.00037075046566314995
6144.0,-0.0019741838332265615
6656.0,-0.0006618259940296412
7168.0,7.64036758482689e-06
7680.0,0.00019157073984388262
8192.0,0.0003845661412924528
9216.0,-0.0011641286546364427
10240.0,-0.001144732115790248
11264.0,0.0007180863176472485
12288.0,0.001504173269495368
13312.0,0.0011399000650271773
14336.0,-0.0009178661275655031
end
