version,3.0
numOfCh,1
type,point
parent_name,100-cuts
ch_type,1_1
kcount,1
numberNandB,1
brightnessNandB,1
carpet pos,0
pc,0
Time (ms),CH1 Auto-Correlation
1.0,0.045689113438129425
2.0,0.04513747990131378
3.0,0.044595733284950256
4.0,0.044061701744794846
5.0,0.04352116584777832
6.0,0.04298984631896019
7.0,0.042458418756723404
8.0,0.04192277416586876
9.0,0.04138700291514397
10.0,0.040858976542949677
11.0,0.04034402221441269
12.0,0.03984135016798973
13.0,0.03934165835380554
14.0,0.0388464517891407
15.0,0.03836017847061157
16.0,0.03788309916853905
18.0,0.036951351910829544
20.0,0.036044903099536896
22.0,0.03514880686998367
24.0,0.034295208752155304
26.0,0.03346746414899826
28.0,0.032630279660224915
30.0,0.03184421360492706
32.0,0.0310747642070055
36.0,0.029638636857271194
40.0,0.028387781232595444
44.0,0.027317767962813377
48.0,0.02638322114944458
52.0,0.025581609457731247
56.0,0.024816719815135002
60.0,0.024103356525301933
64.0,0.023382853716611862
72.0,0.022056039422750473
80.0,0.02065427601337433
88.0,0.01924402453005314
96.0,0.01781076192855835
104.0,0.016445299610495567
112.0,0.015034312382340431
120.0,0.013437100686132908
128.0,0.01178793329745531
144.0,0.008480139076709747
160.0,0.006201907992362976
176.0,0.004775659181177616
192.0,0.0034398953430354595
208.0,0.0022688377648591995
224.0,0.001116028637625277
240.0,-0.0003433804668020457
256.0,-0.0016040069749578834
288.0,-0.004414616152644157
320.0,-0.006203799974173307
352.0,-0.006012358237057924
384.0,-0.00518856942653656
416.0,-0.004101111087948084
448.0,-0.0029021918307989836
480.0,-0.002361374907195568
512.0,-0.002409937558695674
576.0,-0.0020034604240208864
640.0,-0.0027320662047713995
704.0,-8.545539458282292e-05
768.0,0.003031716914847493
832.0,0.005917724221944809
896.0,0.004763693083077669
960.0,0.0034531757701188326
1024.0,0.0001223907311214134
1152.0,-0.002715450245887041
1280.0,-0.0004198081442154944
1408.0,-0.0003727503935806453
1536.0,0.002628791844472289
1664.0,0.0018463010201230645
1792.0,-0.001907043973915279
1920.0,-0.003836157498881221
2048.0,0.0026494222693145275
2304.0,0.007658413145691156
2560.0,0.001956160878762603
2816.0,0.0005794775788672268
3072.0,0.000666319509036839
3328.0,-0.002270838711410761
3584.0,0.0010088334092870355
3840.0,0.002319884020835161
4096.0,-0.005397189408540726
4608.0,0.0013777565909549594
5120.0,-0.0014845498371869326
5632.0,-0.0002434053603792563
6144.0,-0.0009761309484019876
6656.0,-0.002022255677729845
7168.0,0.0003446664777584374
7680.0,-0.0018721033120527864
8192.0,-0.0026727307122200727
9216.0,0.0007113402243703604
10240.0,-0.0033919047564268112
11264.0,-0.0016674697399139404
12288.0,0.003680181922391057
13312.0,-0.006614732556045055
14336.0,0.005822150502353907
end
