version,3.0
numOfCh,1
type,point
parent_name,100-cuts
ch_type,1_1
kcount,1
numberNandB,1
brightnessNandB,1
carpet pos,0
pc,0
Time (ms),CH1 Auto-Correlation
1.0,0.020618461072444916
2.0,0.020349495112895966
3.0,0.02007593773305416
4.0,0.019808508455753326
5.0,0.019543923437595367
6.0,0.01928042620420456
7.0,0.01902078650891781
8.0,0.01876000501215458
9.0,0.01849331520497799
10.0,0.01823476329445839
11.0,0.017979826778173447
12.0,0.01772284135222435
13.0,0.01746412366628647
14.0,0.017214467748999596
15.0,0.01696969009935856
16.0,0.016729576513171196
18.0,0.016268691048026085
20.0,0.01581316441297531
22.0,0.015363479033112526
24.0,0.014931879006326199
26.0,0.014510785229504108
28.0,0.014116702601313591
30.0,0.013728279620409012
32.0,0.013341447338461876
36.0,0.012624905444681644
40.0,0.012007941491901875
44.0,0.011422502808272839
48.0,0.010879113338887691
52.0,0.01037775631994009
56.0,0.00987922865897417
60.0,0.009429499506950378
64.0,0.008995802141726017
72.0,0.0082108648493886
80.0,0.0074712964706122875
88.0,0.006780681665986776
96.0,0.006178581155836582
104.0,0.005631625186651945
112.0,0.0050446465611457825
120.0,0.004530908074229956
128.0,0.004151355475187302
144.0,0.0036143315955996513
160.0,0.0034115531016141176
176.0,0.003225109539926052
192.0,0.0033768981229513884
208.0,0.0035698621068149805
224.0,0.0034634945914149284
240.0,0.0030277809128165245
256.0,0.0023243457544595003
288.0,0.0017973377835005522
320.0,0.0016202040715143085
352.0,0.0016331078950315714
384.0,0.0019182123942300677
416.0,0.001921450486406684
448.0,0.0018438369734212756
480.0,0.001489814487285912
512.0,0.0009327750885859132
576.0,0.00021147345250938088
640.0,0.0012729293666779995
704.0,0.002407242078334093
768.0,0.001284810365177691
832.0,0.00044927195995114744
896.0,0.00013001024490222335
960.0,-0.000933335511945188
1024.0,-0.0013724265154451132
1152.0,-0.0005224396591074765
1280.0,0.0001277070987271145
1408.0,0.00020018417853862047
1536.0,0.000250408222200349
1664.0,-0.0008698945748619735
1792.0,-0.0009191744029521942
1920.0,-0.0003286990977358073
2048.0,-0.000648115121293813
2304.0,-0.00038719575968571007
2560.0,-0.002392408438026905
2816.0,-0.0021641813218593597
3072.0,-0.0008115225937217474
3328.0,-0.0019711218774318695
3584.0,-0.0004446771927177906
3840.0,-0.0009880907600745559
4096.0,-0.0012390435440465808
4608.0,0.0007997674401849508
5120.0,0.0004684460873249918
5632.0,-0.0004224592412356287
6144.0,-0.00046761956764385104
6656.0,4.4229807826923206e-05
7168.0,-0.002723333425819874
7680.0,-0.00010455464507685974
8192.0,0.001278064213693142
9216.0,0.0015763406408950686
10240.0,0.0014797578332945704
11264.0,0.00032145489240065217
12288.0,-0.0036761865485459566
13312.0,0.0010165078565478325
14336.0,0.0013238571118563414
end
