version,3.0
numOfCh,1
type,point
parent_name,100-cuts
ch_type,1_1
kcount,1
numberNandB,1
brightnessNandB,1
carpet pos,0
pc,0
Time (ms),CH1 Auto-Correlation
1.0,0.02686968632042408
2.0,0.02648281492292881
3.0,0.02611047402024269
4.0,0.025747939944267273
5.0,0.02539309859275818
6.0,0.025035768747329712
7.0,0.024693677201867104
8.0,0.024367280304431915
9.0,0.024041879922151566
10.0,0.023722650483250618
11.0,0.02341155894100666
12.0,0.023101387545466423
13.0,0.022792501375079155
14.0,0.022480780258774757
15.0,0.02218015119433403
16.0,0.021884234622120857
18.0,0.021314289420843124
20.0,0.020765606313943863
22.0,0.020206598564982414
24.0,0.019655823707580566
26.0,0.01912817358970642
28.0,0.01861347071826458
30.0,0.018117204308509827
32.0,0.01765514351427555
36.0,0.016728514805436134
40.0,0.015816587954759598
44.0,0.014965054579079151
48.0,0.0141674829646945
52.0,0.013460436835885048
56.0,0.01277613453567028
60.0,0.01210848055779934
64.0,0.011478799395263195
72.0,0.010319240391254425
80.0,0.009181826375424862
88.0,0.008215706795454025
96.0,0.007365318480879068
104.0,0.006495373323559761
112.0,0.005694409366697073
120.0,0.005007307976484299
128.0,0.004361433908343315
144.0,0.003743093693628907
160.0,0.003108211327344179
176.0,0.002392268506810069
192.0,0.0017298206221312284
208.0,0.0014534625224769115
224.0,0.0012063132598996162
240.0,0.0011010642629116774
256.0,0.0009691973682492971
288.0,0.0007314500398933887
320.0,0.0005386299453675747
352.0,0.0005622755852527916
384.0,0.0006665271939709783
416.0,0.0005848701694048941
448.0,0.0001995337224798277
480.0,4.2979419959010556e-05
512.0,0.00018210259440820664
576.0,-0.0007858055760152638
640.0,-0.00038623466389253736
704.0,0.0003330796607770026
768.0,0.0018972419202327728
832.0,0.002555751008912921
896.0,0.00044103426625952125
960.0,-0.0016746229957789183
1024.0,-0.002198545727878809
1152.0,0.00025122638908214867
1280.0,0.002675246214494109
1408.0,0.0014093491481617093
1536.0,0.002013054210692644
1664.0,-0.00010127321002073586
1792.0,-0.000912859570235014
1920.0,0.0006869213539175689
2048.0,-0.00016703539586160332
2304.0,-0.0019497808534651995
2560.0,0.0009508344228379428
2816.0,-0.00039833973278291523
3072.0,-0.0004858269530814141
3328.0,0.0011964954901486635
3584.0,-0.001601104624569416
3840.0,0.0012429853668436408
4096.0,0.0005204478511586785
4608.0,-0.00047963688848540187
5120.0,-0.0017894651973620057
5632.0,0.0017098869429901242
6144.0,-0.000662035949062556
6656.0,0.0016477357130497694
7168.0,-0.0009529382805339992
7680.0,0.0009155200677923858
8192.0,-0.002136007184162736
9216.0,-4.496006295084953e-05
10240.0,-0.0006972821429371834
11264.0,-0.0027333919424563646
12288.0,-0.0034120306372642517
13312.0,-0.00042692985152825713
14336.0,0.0006089197122491896
end
