version,3.0
numOfCh,1
type,point
parent_name,100-cuts
ch_type,1_1
kcount,1
numberNandB,1
brightnessNandB,1
carpet pos,0
pc,0
Time (ms),CH1 Auto-Correlation
1.0,0.05691004917025566
2.0,0.05618104711174965
3.0,0.05545295774936676
4.0,0.05474470555782318
5.0,0.05404786393046379
6.0,0.053354572504758835
7.0,0.05266401544213295
8.0,0.05198884382843971
9.0,0.05132424458861351
10.0,0.05066336691379547
11.0,0.05003038048744202
12.0,0.049411699175834656
13.0,0.04881126433610916
14.0,0.048220373690128326
15.0,0.04763573035597801
16.0,0.047047365456819534
18.0,0.04586552456021309
20.0,0.044676680117845535
22.0,0.04346068575978279
24.0,0.0422719269990921
26.0,0.04112854599952698
28.0,0.040051598101854324
30.0,0.039012085646390915
32.0,0.037997934967279434
36.0,0.036081407219171524
40.0,0.03428640961647034
44.0,0.03259886056184769
48.0,0.03091835230588913
52.0,0.029395481571555138
56.0,0.028063174337148666
60.0,0.02680869586765766
64.0,0.025613298639655113
72.0,0.023091884329915047
80.0,0.020439108833670616
88.0,0.01818484626710415
96.0,0.016136053949594498
104.0,0.014232085086405277
112.0,0.012536062858998775
120.0,0.010843109339475632
128.0,0.009319738484919071
144.0,0.006668435875326395
160.0,0.005179334431886673
176.0,0.0040857139974832535
192.0,0.002891215495765209
208.0,0.002124723047018051
224.0,0.0015768363373354077
240.0,0.0011366945691406727
256.0,0.000665516359731555
288.0,-0.0012150967959314585
320.0,-0.0026391916908323765
352.0,-0.003404217539355159
384.0,-0.0033738126512616873
416.0,-0.0011804720852524042
448.0,0.0017684460617601871
480.0,0.0031242487020790577
512.0,0.0027425838634371758
576.0,0.001194633892737329
640.0,0.0007641537231393158
704.0,0.002597842365503311
768.0,0.00901638250797987
832.0,0.00911136157810688
896.0,0.004286173731088638
960.0,0.0005874215275980532
1024.0,0.0008748288382776082
1152.0,0.0022248895838856697
1280.0,0.0034458921290934086
1408.0,0.0034681542310863733
1536.0,0.0005283068749122322
1664.0,0.001311462838202715
1792.0,0.0010557587957009673
1920.0,-0.0006516929715871811
2048.0,-0.00021860278502572328
2304.0,-0.002204607706516981
2560.0,-0.0023425533436238766
2816.0,-0.007721865549683571
3072.0,-0.004840351641178131
3328.0,-0.002717209281399846
3584.0,-0.004421181045472622
3840.0,0.0014484935672953725
4096.0,0.0022379448637366295
4608.0,-0.000998068368062377
5120.0,0.004308699630200863
5632.0,0.002934513846412301
6144.0,0.0045457701198756695
6656.0,-0.0013230874901637435
7168.0,-0.0025876141153275967
7680.0,-0.0033242274075746536
8192.0,-0.00586721720173955
9216.0,-0.0068216449581086636
10240.0,0.00029707394423894584
11264.0,0.0039136880077421665
12288.0,0.004716828931123018
13312.0,-0.00039764572284184396
14336.0,-0.00339235900901258
end
