version,3.0
numOfCh,1
type,point
parent_name,100-cuts
ch_type,1_1
kcount,1
numberNandB,1
brightnessNandB,1
carpet pos,0
pc,0
Time (ms),CH1 Auto-Correlation
1.0,0.06885665655136108
2.0,0.06777159124612808
3.0,0.0667247548699379
4.0,0.06568056344985962
5.0,0.06468679010868073
6.0,0.06370043754577637
7.0,0.0627143606543541
8.0,0.06176425516605377
9.0,0.06081663817167282
10.0,0.05987215042114258
11.0,0.05892980098724365
12.0,0.05795614421367645
13.0,0.05701231583952904
14.0,0.05608697235584259
15.0,0.055163703858852386
16.0,0.054235510528087616
18.0,0.052403517067432404
20.0,0.05064160004258156
22.0,0.04891887679696083
24.0,0.04725930094718933
26.0,0.04567553848028183
28.0,0.04416489973664284
30.0,0.042698830366134644
32.0,0.04125586524605751
36.0,0.03877821937203407
40.0,0.036620087921619415
44.0,0.03468415141105652
48.0,0.03300878778100014
52.0,0.03161391615867615
56.0,0.0303750429302454
60.0,0.02932429499924183
64.0,0.02833840623497963
72.0,0.026448825374245644
80.0,0.024404658004641533
88.0,0.022286342456936836
96.0,0.02025141380727291
104.0,0.018297020345926285
112.0,0.01644790545105934
120.0,0.014553401619195938
128.0,0.013025800697505474
144.0,0.010264826007187366
160.0,0.007846090942621231
176.0,0.005832528229802847
192.0,0.004522247239947319
208.0,0.002981646219268441
224.0,0.0016499103512614965
240.0,0.0006200087373144925
256.0,-0.0008152589434757829
288.0,-0.004125576466321945
320.0,-0.005612430162727833
352.0,-0.0074145314283668995
384.0,-0.008591474033892155
416.0,-0.007836880162358284
448.0,-0.005552085116505623
480.0,-0.004683834966272116
512.0,-0.0026536828372627497
576.0,-0.0009091965039260685
640.0,0.0023083353880792856
704.0,0.003414491191506386
768.0,0.006190882064402103
832.0,0.0073273517191410065
896.0,0.005730902776122093
960.0,0.0037619194481521845
1024.0,-0.0029024346731603146
1152.0,-0.006828724406659603
1280.0,-0.00578124588355422
1408.0,-0.0021525556221604347
1536.0,0.0047215246595442295
1664.0,0.0007691218052059412
1792.0,-0.0027296722400933504
1920.0,-0.005944988690316677
2048.0,-0.004372024443000555
2304.0,0.004198199138045311
2560.0,-0.004691906739026308
2816.0,-0.006215221714228392
3072.0,-0.0037973287981003523
3328.0,-0.005327641498297453
3584.0,-0.0061940220184624195
3840.0,0.004413343966007233
4096.0,0.000870747840963304
4608.0,0.001355195534415543
5120.0,-0.0013452637940645218
5632.0,0.003918543457984924
6144.0,-0.0020414278842508793
6656.0,-0.00024705351097509265
7168.0,0.0029899582732468843
7680.0,0.0026058966759592295
8192.0,-0.0009676315821707249
9216.0,0.0002511467901058495
10240.0,0.00016748339112382382
11264.0,-0.0031083552166819572
12288.0,0.004238448105752468
13312.0,-0.003360876813530922
14336.0,0.0024208547547459602
end
