version,3.0
numOfCh,1
type,point
parent_name,100-cuts
ch_type,1_1
kcount,1
numberNandB,1
brightnessNandB,1
carpet pos,0
pc,0
Time (ms),CH1 Auto-Correlation
1.0,0.026853298768401146
2.0,0.02653452567756176
3.0,0.02623419463634491
4.0,0.02593204751610756
5.0,0.02563099004328251
6.0,0.025335216894745827
7.0,0.0250387042760849
8.0,0.024752601981163025
9.0,0.02446546033024788
10.0,0.024183396250009537
11.0,0.023902015760540962
12.0,0.023623643442988396
13.0,0.023348556831479073
14.0,0.023080192506313324
15.0,0.022817688062787056
16.0,0.022563908249139786
18.0,0.022065389901399612
20.0,0.021602239459753036
22.0,0.021158786490559578
24.0,0.020724501460790634
26.0,0.020290233194828033
28.0,0.01985534280538559
30.0,0.019422223791480064
32.0,0.01900489442050457
36.0,0.01825501210987568
40.0,0.01752525381743908
44.0,0.016824614256620407
48.0,0.016121597960591316
52.0,0.015417100861668587
56.0,0.014765999279916286
60.0,0.014199580065906048
64.0,0.013765854761004448
72.0,0.01310264877974987
80.0,0.01249177660793066
88.0,0.011847060173749924
96.0,0.011196030303835869
104.0,0.010646549984812737
112.0,0.010213855654001236
120.0,0.00979441124945879
128.0,0.009353777393698692
144.0,0.008637625724077225
160.0,0.008276684209704399
176.0,0.008095800876617432
192.0,0.007543130777776241
208.0,0.006764399353414774
224.0,0.006086218170821667
240.0,0.005419617053121328
256.0,0.0049031320959329605
288.0,0.004716353956609964
320.0,0.004416229203343391
352.0,0.003336917608976364
384.0,0.0012938878498971462
416.0,-0.00019741416326723993
448.0,-0.0006611383869312704
480.0,-0.000526823743712157
512.0,-0.0006617287872359157
576.0,-0.002284957794472575
640.0,-0.002667976077646017
704.0,-0.0038457775954157114
768.0,-0.004760446026921272
832.0,-0.0037879415322095156
896.0,-0.003068183083087206
960.0,-0.002631619106978178
1024.0,-0.0017808048287406564
1152.0,-0.00122840644326061
1280.0,-0.0001399250322720036
1408.0,0.0009389105252921581
1536.0,-0.00017420959193259478
1664.0,-0.00018754754273686558
1792.0,-0.0017606859328225255
1920.0,-0.002645655767992139
2048.0,-0.0015612512361258268
2304.0,-0.0013639586977660656
2560.0,-0.0012901504524052143
2816.0,-0.0012418727856129408
3072.0,-0.003560379147529602
3328.0,-0.0034851408563554287
3584.0,-0.0005564665189012885
3840.0,0.002719950396567583
4096.0,0.0036627857480198145
4608.0,0.0012124417116865516
5120.0,0.0005502679850906134
5632.0,-0.0012978274608030915
6144.0,-0.0002441502292640507
6656.0,-0.0005612865788862109
7168.0,-0.0004490198625717312
7680.0,0.002754154382273555
8192.0,0.0020192586816847324
9216.0,-0.001357930595986545
10240.0,-0.001073797233402729
11264.0,-0.00041055362089537084
12288.0,0.0012395173544064164
13312.0,0.0016938012558966875
14336.0,-0.0015385067090392113
end
