version,3.0
numOfCh,1
type,point
parent_name,100-cuts
ch_type,1_1
kcount,1
numberNandB,1
brightnessNandB,1
carpet pos,0
pc,0
Time (ms),CH1 Auto-Correlation
1.0,0.05172830447554588
2.0,0.050981439650058746
3.0,0.05023457482457161
4.0,0.049499787390232086
5.0,0.048772141337394714
6.0,0.04806283861398697
7.0,0.047381095588207245
8.0,0.04670165851712227
9.0,0.04602864384651184
10.0,0.04537315294146538
11.0,0.04473244026303291
12.0,0.04411349818110466
13.0,0.04349854588508606
14.0,0.04290277510881424
15.0,0.042308222502470016
16.0,0.041724540293216705
18.0,0.04053683951497078
20.0,0.039337851107120514
22.0,0.038145512342453
24.0,0.037021029740571976
26.0,0.03599133342504501
28.0,0.035019662231206894
30.0,0.034072838723659515
32.0,0.03316626697778702
36.0,0.031380195170640945
40.0,0.02963932231068611
44.0,0.027967315167188644
48.0,0.026351114735007286
52.0,0.02487594075500965
56.0,0.023484572768211365
60.0,0.022095752879977226
64.0,0.02078460343182087
72.0,0.01867511123418808
80.0,0.01668401248753071
88.0,0.01482443232089281
96.0,0.01308201253414154
104.0,0.01140672154724598
112.0,0.010007013566792011
120.0,0.008802932687103748
128.0,0.007693033199757338
144.0,0.0058683473616838455
160.0,0.0048963092267513275
176.0,0.004586398601531982
192.0,0.004002142697572708
208.0,0.003152785124257207
224.0,0.002683764323592186
240.0,0.0031345337629318237
256.0,0.003775217104703188
288.0,0.0036203376948833466
320.0,0.00249994988553226
352.0,0.0008376010810025036
384.0,0.0004706179606728256
416.0,-0.0005294163711369038
448.0,-0.0013831579126417637
480.0,-0.0007960348157212138
512.0,0.00019295181846246123
576.0,0.0010986364213749766
640.0,0.002336399396881461
704.0,0.0038067104760557413
768.0,0.0028543074149638414
832.0,0.0012443497544154525
896.0,-4.7731056838529184e-05
960.0,-0.002085734624415636
1024.0,-0.0020886396523565054
1152.0,0.0007562386454083025
1280.0,0.003993740770965815
1408.0,0.0019408405059948564
1536.0,-0.00042356509948149323
1664.0,-0.009266344830393791
1792.0,-0.009428294375538826
1920.0,-0.0056259967386722565
2048.0,-0.0027547418139874935
2304.0,-0.004490029066801071
2560.0,-0.001498888828791678
2816.0,-0.0034219648223370314
3072.0,-0.0066528962925076485
3328.0,0.000949135166592896
3584.0,0.002668167697265744
3840.0,0.001229196204803884
4096.0,0.005734897684305906
4608.0,0.0038066739216446877
5120.0,-0.00043058660230599344
5632.0,0.000889008748345077
6144.0,-0.004468308761715889
6656.0,-0.003908688668161631
7168.0,-0.0006648306734859943
7680.0,-0.00048219694872386754
8192.0,0.00406134407967329
9216.0,0.005481519270688295
10240.0,-0.0062015363946557045
11264.0,-0.003770524403080344
12288.0,0.0014009111328050494
13312.0,0.005495547782629728
14336.0,-0.0006730157765559852
end
