version,3.0
numOfCh,1
type,point
parent_name,100-cuts
ch_type,1_1
kcount,1
numberNandB,1
brightnessNandB,1
carpet pos,0
pc,0
Time (ms),CH1 Auto-Correlation
1.0,0.08354466408491135
2.0,0.08251312375068665
3.0,0.08148133754730225
4.0,0.08045991510152817
5.0,0.07945643365383148
6.0,0.07846137136220932
7.0,0.07747425138950348
8.0,0.07647501677274704
9.0,0.07548712193965912
10.0,0.0744863897562027
11.0,0.07351528108119965
12.0,0.07255399227142334
13.0,0.07158242911100388
14.0,0.07063673436641693
15.0,0.06972363591194153
16.0,0.06881828606128693
18.0,0.06709352880716324
20.0,0.06545001268386841
22.0,0.06392277777194977
24.0,0.062444768846035004
26.0,0.060993049293756485
28.0,0.05962235853075981
30.0,0.0583210289478302
32.0,0.057080745697021484
36.0,0.05473463609814644
40.0,0.05256519094109535
44.0,0.05054442957043648
48.0,0.04856099560856819
52.0,0.04652989283204079
56.0,0.04454270005226135
60.0,0.04275728017091751
64.0,0.041001591831445694
72.0,0.03754715621471405
80.0,0.03408201038837433
88.0,0.031126119196414948
96.0,0.028537094593048096
104.0,0.026237618178129196
112.0,0.024105869233608246
120.0,0.02240569330751896
128.0,0.02100057154893875
144.0,0.018825585022568703
160.0,0.015774540603160858
176.0,0.013494102284312248
192.0,0.012580974027514458
208.0,0.010614056140184402
224.0,0.008043353445827961
240.0,0.006215060595422983
256.0,0.004458859097212553
288.0,0.001605652505531907
320.0,-0.0011939649702981114
352.0,-0.0036111189983785152
384.0,-0.0058188484981656075
416.0,-0.008473413065075874
448.0,-0.011525936424732208
480.0,-0.011527301743626595
512.0,-0.009598763659596443
576.0,-0.003716410370543599
640.0,-0.0020208279602229595
704.0,-0.003656646003946662
768.0,-0.004341302905231714
832.0,-0.004624181892722845
896.0,-0.004122224636375904
960.0,-0.00473849568516016
1024.0,-0.008645208552479744
1152.0,-0.007725183852016926
1280.0,-0.0038785384967923164
1408.0,-0.006526747718453407
1536.0,0.0023173033259809017
1664.0,0.002770007122308016
1792.0,0.008344900794327259
1920.0,0.005639765411615372
2048.0,0.003523014485836029
2304.0,0.006241431925445795
2560.0,0.0010173993650823832
2816.0,-0.001997140469029546
3072.0,-0.001670482219196856
3328.0,-0.0008074440993368626
3584.0,0.00266847456805408
3840.0,0.004107150714844465
4096.0,-0.0009929529624059796
4608.0,-0.002126553561538458
5120.0,-0.004071367438882589
5632.0,0.0027927951887249947
6144.0,0.004382460843771696
6656.0,-0.009322243742644787
7168.0,-0.002217633184045553
7680.0,0.00024406898592133075
8192.0,0.007392021827399731
9216.0,-0.005252455826848745
10240.0,-0.0016505196690559387
11264.0,0.0014073962811380625
12288.0,-0.0005233855335973203
13312.0,-0.011676488444209099
14336.0,0.011998513713479042
end
