version,3.0
numOfCh,1
type,point
parent_name,100-cuts
ch_type,1_1
kcount,1
numberNandB,1
brightnessNandB,1
carpet pos,0
pc,0
Time (ms),CH1 Auto-Correlation
1.0,0.053144946694374084
2.0,0.052342064678668976
3.0,0.051555611193180084
4.0,0.0507771261036396
5.0,0.05003196746110916
6.0,0.04929138347506523
7.0,0.04855240508913994
8.0,0.04782078415155411
9.0,0.04712379723787308
10.0,0.046429745852947235
11.0,0.045749351382255554
12.0,0.04507972300052643
13.0,0.0444088913500309
14.0,0.04373253509402275
15.0,0.043059092015028
16.0,0.04239540174603462
18.0,0.041110508143901825
20.0,0.03987480327486992
22.0,0.03865183889865875
24.0,0.037473373115062714
26.0,0.03633001074194908
28.0,0.035222578793764114
30.0,0.034159883856773376
32.0,0.033202413469552994
36.0,0.031457167118787766
40.0,0.029879653826355934
44.0,0.028505057096481323
48.0,0.027339238673448563
52.0,0.026332592591643333
56.0,0.02536105178296566
60.0,0.02456560917198658
64.0,0.023797785863280296
72.0,0.02238592319190502
80.0,0.021101584658026695
88.0,0.02014704793691635
96.0,0.019108934327960014
104.0,0.017738845199346542
112.0,0.016123035922646523
120.0,0.014130202122032642
128.0,0.01232874020934105
144.0,0.009557918645441532
160.0,0.007866607047617435
176.0,0.006465114653110504
192.0,0.004729570355266333
208.0,0.0035101259127259254
224.0,0.002367920009419322
240.0,0.001243543578311801
256.0,0.0014372792793437839
288.0,-0.00024347308499272913
320.0,-0.0013149870792403817
352.0,-0.0005417863721959293
384.0,-0.0005022536497563124
416.0,-0.0006919241859577596
448.0,-3.164937879773788e-05
480.0,-0.0008440602687187493
512.0,-0.0002796371700242162
576.0,-0.001360250753350556
640.0,-0.0005680427420884371
704.0,0.0019399558659642935
768.0,0.0014997011749073863
832.0,0.0013793031685054302
896.0,0.0011350042186677456
960.0,0.0012436931720003486
1024.0,-0.0008682474726811051
1152.0,-0.0028251695912331343
1280.0,-0.001956610009074211
1408.0,-0.0053596398793160915
1536.0,-0.00892452523112297
1664.0,-0.006696344818919897
1792.0,-0.005328469444066286
1920.0,-0.004709055181592703
2048.0,0.0013766471529379487
2304.0,-0.000289275252725929
2560.0,-0.0016951372381299734
2816.0,0.0031516149174422026
3072.0,0.006820716895163059
3328.0,0.0008003691327758133
3584.0,-0.00046909626689739525
3840.0,0.0004299307765904814
4096.0,0.002958491910248995
4608.0,-0.004591222852468491
5120.0,0.004086431581526995
5632.0,-0.0037422270979732275
6144.0,-1.275650538445916e-05
6656.0,-0.003835584968328476
7168.0,0.004683319013565779
7680.0,0.001819684519432485
8192.0,0.0057394010946154594
9216.0,-0.006822722498327494
10240.0,0.004620444495230913
11264.0,0.00018257671035826206
12288.0,-0.00990587193518877
13312.0,0.012629544362425804
14336.0,-0.010668844915926456
end
