version,3.0
numOfCh,1
type,point
parent_name,100-cuts
ch_type,1_1
kcount,1
numberNandB,1
brightnessNandB,1
carpet pos,0
pc,0
Time (ms),CH1 Auto-Correlation
1.0,0.08647504448890686
2.0,0.08542171120643616
3.0,0.08437249064445496
4.0,0.08331387490034103
5.0,0.08227033913135529
6.0,0.08125749230384827
7.0,0.08025062084197998
8.0,0.07925013452768326
9.0,0.0782628208398819
10.0,0.0772794783115387
11.0,0.07632392644882202
12.0,0.0754232257604599
13.0,0.07454194873571396
14.0,0.07366073876619339
15.0,0.07279275357723236
16.0,0.07196468859910965
18.0,0.07030875235795975
20.0,0.06865505874156952
22.0,0.06699568033218384
24.0,0.0653529241681099
26.0,0.06373199075460434
28.0,0.06215038150548935
30.0,0.060598354786634445
32.0,0.05908858776092529
36.0,0.05621090903878212
40.0,0.05340386554598808
44.0,0.05069013684988022
48.0,0.04804132506251335
52.0,0.04539933055639267
56.0,0.04278567060828209
60.0,0.04038706794381142
64.0,0.0382569320499897
72.0,0.034390803426504135
80.0,0.03086828626692295
88.0,0.02790609374642372
96.0,0.025272050872445107
104.0,0.02250351384282112
112.0,0.019821349531412125
120.0,0.017256198450922966
128.0,0.014630804769694805
144.0,0.011127891018986702
160.0,0.00849531777203083
176.0,0.006585321854799986
192.0,0.005247656721621752
208.0,0.00405831728130579
224.0,0.0033598351292312145
240.0,0.0035264817997813225
256.0,0.004054752178490162
288.0,0.004816920962184668
320.0,0.003417413914576173
352.0,0.0011831916635856032
384.0,-0.002379006939008832
416.0,-0.0033211582340300083
448.0,-0.0025488464161753654
480.0,-0.0022824376355856657
512.0,-0.0007375056738965213
576.0,-0.004148786421865225
640.0,-0.007277284748852253
704.0,-0.002933527808636427
768.0,0.0032839456107467413
832.0,0.003197337035089731
896.0,0.0010791257955133915
960.0,0.00021530024241656065
1024.0,0.0015275455079972744
1152.0,-0.002675252500921488
1280.0,-0.005000810604542494
1408.0,-0.002241994719952345
1536.0,-0.00372905982658267
1664.0,-0.006516546942293644
1792.0,-0.010070319287478924
1920.0,-0.007739412132650614
2048.0,-0.0033585636410862207
2304.0,-0.0013131223386153579
2560.0,-0.010163478553295135
2816.0,-0.0008824434480629861
3072.0,0.006040052976459265
3328.0,0.0033651511184871197
3584.0,0.0026127109304070473
3840.0,0.004825531505048275
4096.0,0.006532147992402315
4608.0,0.00229061977006495
5120.0,-0.004228913690894842
5632.0,-0.006150760222226381
6144.0,-0.004397350363433361
6656.0,-0.000431524938903749
7168.0,0.0034646925050765276
7680.0,0.010728628374636173
8192.0,0.0035780668258666992
9216.0,-0.005530350375920534
10240.0,-0.004808712750673294
11264.0,0.008294808678328991
12288.0,0.005255080293864012
13312.0,-0.012019948102533817
14336.0,-0.008561060763895512
end
