version,3.0
numOfCh,1
type,point
parent_name,100-cuts
ch_type,1_1
kcount,1
numberNandB,1
brightnessNandB,1
carpet pos,0
pc,0
Time (ms),CH1 Auto-Correlation
1.0,0.04243940860033035
2.0,0.0420197919011116
3.0,0.04160398244857788
4.0,0.04119761288166046
5.0,0.04079866781830788
6.0,0.04039566591382027
7.0,0.039992090314626694
8.0,0.03959675878286362
9.0,0.03920597955584526
10.0,0.038825806230306625
11.0,0.038450080901384354
12.0,0.03808656707406044
13.0,0.03773059323430061
14.0,0.037370454519987106
15.0,0.0370059609413147
16.0,0.03665244206786156
18.0,0.035916175693273544
20.0,0.03520015999674797
22.0,0.03451265022158623
24.0,0.03382303938269615
26.0,0.03317037969827652
28.0,0.032524820417165756
30.0,0.03188528120517731
32.0,0.03126406669616699
36.0,0.03006933070719242
40.0,0.028994206339120865
44.0,0.028012385591864586
48.0,0.027039621025323868
52.0,0.026101812720298767
56.0,0.025220107287168503
60.0,0.02438056282699108
64.0,0.023601293563842773
72.0,0.02220834046602249
80.0,0.02094331569969654
88.0,0.01968373917043209
96.0,0.018449144437909126
104.0,0.017365172505378723
112.0,0.01632937788963318
120.0,0.015247123315930367
128.0,0.014279698953032494
144.0,0.012296109460294247
160.0,0.010624803602695465
176.0,0.009211410768330097
192.0,0.008236759342253208
208.0,0.007423002738505602
224.0,0.00680799875408411
240.0,0.00618834188207984
256.0,0.005425984971225262
288.0,0.003814821597188711
320.0,0.0027919220738112926
352.0,0.0033955462276935577
384.0,0.003414441831409931
416.0,0.002458391711115837
448.0,0.0016768929781392217
480.0,0.0009863178711384535
512.0,0.0006236780318431556
576.0,-0.00016344201867468655
640.0,-0.00046293032937683165
704.0,-0.0008087128517217934
768.0,-0.0004914985038340092
832.0,-0.001400795765221119
896.0,-0.0001729128125589341
960.0,0.0016944477101787925
1024.0,0.002108713611960411
1152.0,0.0006762250559404492
1280.0,-0.0008439376833848655
1408.0,-0.002379027893766761
1536.0,-0.004336813930422068
1664.0,-0.005312788300216198
1792.0,-0.0055879270657896996
1920.0,-0.008004928007721901
2048.0,-0.009283086284995079
2304.0,-0.004325275309383869
2560.0,-0.0011195605620741844
2816.0,-0.0007069413550198078
3072.0,-0.00023251485254149884
3328.0,0.004580987151712179
3584.0,0.0058475336991250515
3840.0,0.009822905994951725
4096.0,0.003054468659684062
4608.0,-0.004058439750224352
5120.0,-0.004110310226678848
5632.0,-0.0078034973703324795
6144.0,-0.004639763385057449
6656.0,0.004090884700417519
7168.0,0.005747602321207523
7680.0,0.00445907237008214
8192.0,0.000707246595993638
9216.0,-0.0028499080799520016
10240.0,0.002931581111624837
11264.0,0.0043320669792592525
12288.0,-0.005703043658286333
13312.0,-0.001333929132670164
14336.0,0.003661004127934575
end
