version,3.0
numOfCh,1
type,point
parent_name,100-cuts
ch_type,1_1
kcount,1
numberNandB,1
brightnessNandB,1
carpet pos,0
pc,0
Time (ms),CH1 Auto-Correlation
1.0,0.08142989873886108
2.0,0.08053891360759735
3.0,0.07965096086263657
4.0,0.07878170162439346
5.0,0.07792939990758896
6.0,0.07707183808088303
7.0,0.07622173428535461
8.0,0.07540471851825714
9.0,0.07458849996328354
10.0,0.0737619623541832
11.0,0.07294608652591705
12.0,0.07213586568832397
13.0,0.07136549055576324
14.0,0.07062796503305435
15.0,0.06990654766559601
16.0,0.06920280307531357
18.0,0.06778612732887268
20.0,0.06638003885746002
22.0,0.06494452804327011
24.0,0.06356935203075409
26.0,0.06226537004113197
28.0,0.06098564341664314
30.0,0.05978525057435036
32.0,0.05862800404429436
36.0,0.056296851485967636
40.0,0.054023586213588715
44.0,0.05172911286354065
48.0,0.049403563141822815
52.0,0.04720296338200569
56.0,0.04512036591768265
60.0,0.043010760098695755
64.0,0.04096533730626106
72.0,0.03720191866159439
80.0,0.03386365622282028
88.0,0.030935058370232582
96.0,0.028233235701918602
104.0,0.02565012313425541
112.0,0.023409496992826462
120.0,0.021691294386982918
128.0,0.020107191056013107
144.0,0.01637873612344265
160.0,0.013222630135715008
176.0,0.010914420709013939
192.0,0.008678633719682693
208.0,0.006248698569834232
224.0,0.004199300892651081
240.0,0.002004972193390131
256.0,0.0004410216643009335
288.0,-0.0023169845808297396
320.0,-0.004692555870860815
352.0,-0.006201582495123148
384.0,-0.006263559218496084
416.0,-0.00307085202075541
448.0,-0.000322727340972051
480.0,0.002362588420510292
512.0,0.0034752755891531706
576.0,0.002641797997057438
640.0,-0.0011425140546634793
704.0,-0.004465020261704922
768.0,-0.0063283103518188
832.0,-0.00901961512863636
896.0,-0.005368237849324942
960.0,-0.006252811755985022
1024.0,-0.006595062091946602
1152.0,-0.010618099942803383
1280.0,-0.009734630584716797
1408.0,-0.004510674625635147
1536.0,-0.0026888956781476736
1664.0,0.00352401752024889
1792.0,0.0028518319595605135
1920.0,-0.0005909960600547493
2048.0,-0.0014365664683282375
2304.0,-0.0006908607319928706
2560.0,-0.010563649237155914
2816.0,-0.00909795518964529
3072.0,0.010680194944143295
3328.0,0.009151577018201351
3584.0,0.007247151341289282
3840.0,0.00214588176459074
4096.0,-0.0036040099803358316
4608.0,-0.003296919632703066
5120.0,0.002050499664619565
5632.0,-0.005239361431449652
6144.0,-0.007713977713137865
6656.0,0.0017649203073233366
7168.0,0.009254557080566883
7680.0,0.005664441734552383
8192.0,-0.0037256916984915733
9216.0,-0.0059485058300197124
10240.0,-0.00032202250440604985
11264.0,0.005830391310155392
12288.0,0.002876094076782465
13312.0,-0.005140852648764849
14336.0,2.1552825273829512e-05
end
