version,3.0
numOfCh,1
type,point
parent_name,100-cuts
ch_type,1_1
kcount,1
numberNandB,1
brightnessNandB,1
carpet pos,0
pc,0
Time (ms),CH1 Auto-Correlation
1.0,0.10236117243766785
2.0,0.10112582892179489
3.0,0.0999298095703125
4.0,0.09875396639108658
5.0,0.09761559963226318
6.0,0.09650447964668274
7.0,0.09541596472263336
8.0,0.09431640058755875
9.0,0.09323853999376297
10.0,0.09217147529125214
11.0,0.0911097452044487
12.0,0.09006581455469131
13.0,0.08907018601894379
14.0,0.08807142078876495
15.0,0.08708412945270538
16.0,0.08608630299568176
18.0,0.08416163176298141
20.0,0.08224990963935852
22.0,0.08035019040107727
24.0,0.07855362445116043
26.0,0.07675397396087646
28.0,0.07494238018989563
30.0,0.07319498062133789
32.0,0.07153366506099701
36.0,0.06828589737415314
40.0,0.06526901572942734
44.0,0.06229675933718681
48.0,0.05944560840725899
52.0,0.0568978525698185
56.0,0.05463755875825882
60.0,0.052316177636384964
64.0,0.050057537853717804
72.0,0.045968666672706604
80.0,0.04217810183763504
88.0,0.0384223498404026
96.0,0.03457534685730934
104.0,0.03091672994196415
112.0,0.027941428124904633
120.0,0.025667008012533188
128.0,0.023702584207057953
144.0,0.0195247121155262
160.0,0.015344919636845589
176.0,0.011370370164513588
192.0,0.007936018519103527
208.0,0.005365204066038132
224.0,0.0026369825936853886
240.0,-3.576018934836611e-05
256.0,-0.002462967298924923
288.0,-0.006109312642365694
320.0,-0.00877912063151598
352.0,-0.006372953299432993
384.0,-0.001969373319298029
416.0,0.005488628521561623
448.0,0.010910697281360626
480.0,0.011514692567288876
512.0,0.011307643726468086
576.0,0.009106848388910294
640.0,0.007673462852835655
704.0,0.006059407256543636
768.0,0.004330453462898731
832.0,0.0027610231190919876
896.0,0.0004978668293915689
960.0,0.0006943842745386064
1024.0,-0.0012374717043712735
1152.0,-0.0056970976293087006
1280.0,-0.006711902562528849
1408.0,0.005817031022161245
1536.0,0.014934659935534
1664.0,0.009432644583284855
1792.0,-0.008356960490345955
1920.0,-0.009716110303997993
2048.0,0.0030951627995818853
2304.0,3.299115996924229e-05
2560.0,-0.011505978181958199
2816.0,-0.0028358742129057646
3072.0,0.0008299959590658545
3328.0,-0.013114443980157375
3584.0,-0.004649362061172724
3840.0,0.001048211008310318
4096.0,-0.013848952949047089
4608.0,-0.002398554002866149
5120.0,-0.003195005701854825
5632.0,-0.0013378928415477276
6144.0,-0.0024206535890698433
6656.0,-0.003983558155596256
7168.0,-0.008762594312429428
7680.0,-0.00418193219229579
8192.0,0.005341051146388054
9216.0,0.0024718130007386208
10240.0,0.015158040449023247
11264.0,0.010232064872980118
12288.0,-0.0063357288017869
13312.0,-0.006367966067045927
14336.0,-0.015782030299305916
end
