version,3.0
numOfCh,1
type,point
parent_name,100-cuts
ch_type,1_1
kcount,1
numberNandB,1
brightnessNandB,1
carpet pos,0
pc,0
Time (ms),CH1 Auto-Correlation
1.0,0.029267339035868645
2.0,0.028820911422371864
3.0,0.02838059328496456
4.0,0.027942435815930367
5.0,0.02750413306057453
6.0,0.02709357813000679
7.0,0.0266951285302639
8.0,0.026301784440875053
9.0,0.02591748535633087
10.0,0.02553795836865902
11.0,0.025163836777210236
12.0,0.024818990379571915
13.0,0.024470195174217224
14.0,0.024125702679157257
15.0,0.02378452941775322
16.0,0.02345207706093788
18.0,0.02278006076812744
20.0,0.022104531526565552
22.0,0.021441008895635605
24.0,0.020807038992643356
26.0,0.02021380141377449
28.0,0.019650891423225403
30.0,0.019122431054711342
32.0,0.01861722581088543
36.0,0.017650462687015533
40.0,0.01677238568663597
44.0,0.015948500484228134
48.0,0.015183541923761368
52.0,0.014464558102190495
56.0,0.013772905804216862
60.0,0.013149840757250786
64.0,0.012563279829919338
72.0,0.011424067430198193
80.0,0.010237473994493484
88.0,0.008995391428470612
96.0,0.00779181020334363
104.0,0.006782829761505127
112.0,0.006167149171233177
120.0,0.005674831569194794
128.0,0.005141223315149546
144.0,0.003856771858409047
160.0,0.002858127932995558
176.0,0.0022849037777632475
192.0,0.001769109396263957
208.0,0.0013468172401189804
224.0,0.0009869098430499434
240.0,0.0009230251307599247
256.0,0.0009960734751075506
288.0,-0.00031844567274674773
320.0,-0.0007503129309043288
352.0,-0.00031052777194418013
384.0,0.0002885786525439471
416.0,0.0005133103695698082
448.0,0.00034740581759251654
480.0,0.00025787513004615903
512.0,0.00036131410161033273
576.0,0.0015319500816985965
640.0,0.0005678063025698066
704.0,-0.0010591294849291444
768.0,-0.0023853001184761524
832.0,-0.0024193539284169674
896.0,-0.0010756186675280333
960.0,0.0006162464851513505
1024.0,0.0010588549776002765
1152.0,0.00224203709512949
1280.0,-0.0007369247614406049
1408.0,-0.0013896736782044172
1536.0,-0.0009391731582581997
1664.0,-0.00164827611297369
1792.0,0.0024811052717268467
1920.0,0.0017933885101228952
2048.0,0.0006606794777326286
2304.0,0.0023301441688090563
2560.0,0.0009702474344521761
2816.0,-0.0009066025377251208
3072.0,-0.0021975641138851643
3328.0,0.0002691361587494612
3584.0,4.727880877908319e-05
3840.0,-0.0004056236648466438
4096.0,-0.0006887380150146782
4608.0,-0.00012942429748363793
5120.0,-0.001043433672748506
5632.0,0.00048216560389846563
6144.0,-0.00030277459882199764
6656.0,-0.0019572086166590452
7168.0,-0.0024300923105329275
7680.0,-0.0023047206923365593
8192.0,-0.0003185824607498944
9216.0,-0.0009070064988918602
10240.0,-0.0009992651175707579
11264.0,0.002483953954651952
12288.0,-0.0012022426817566156
13312.0,0.001385831506922841
14336.0,-0.0019108711276203394
end
