version,3.0
numOfCh,1
type,point
parent_name,100-cuts
ch_type,1_1
kcount,1
numberNandB,1
brightnessNandB,1
carpet pos,0
pc,0
Time (ms),CH1 Auto-Correlation
1.0,0.05963660776615143
2.0,0.05896982550621033
3.0,0.0583273284137249
4.0,0.057689834386110306
5.0,0.057053521275520325
6.0,0.05642372742295265
7.0,0.055801887065172195
8.0,0.055206719785928726
9.0,0.054637473076581955
10.0,0.054090410470962524
11.0,0.05354906618595123
12.0,0.05302648991346359
13.0,0.05251988768577576
14.0,0.052024733275175095
15.0,0.05153881385922432
16.0,0.05107647180557251
18.0,0.050141941756010056
20.0,0.04924359172582626
22.0,0.04837009310722351
24.0,0.0474839061498642
26.0,0.0465722493827343
28.0,0.04566458985209465
30.0,0.044807884842157364
32.0,0.04400727525353432
36.0,0.04257411137223244
40.0,0.04128314182162285
44.0,0.04007698968052864
48.0,0.038939446210861206
52.0,0.03786325082182884
56.0,0.036887310445308685
60.0,0.035948120057582855
64.0,0.0349508635699749
72.0,0.03301481902599335
80.0,0.03126469999551773
88.0,0.029562605544924736
96.0,0.02813895419239998
104.0,0.026729010045528412
112.0,0.025454390794038773
120.0,0.024233173578977585
128.0,0.023081665858626366
144.0,0.021018624305725098
160.0,0.019017066806554794
176.0,0.01708149164915085
192.0,0.015451928600668907
208.0,0.014870785176753998
224.0,0.014822682365775108
240.0,0.014291670173406601
256.0,0.013348979875445366
288.0,0.010352697223424911
320.0,0.007928424514830112
352.0,0.005718860309571028
384.0,0.0031243390403687954
416.0,0.00203660037368536
448.0,0.0019166594138368964
480.0,0.0030778334476053715
512.0,0.0047325389459729195
576.0,0.0060694520361721516
640.0,0.00422672787681222
704.0,0.0030377241782844067
768.0,0.004737424198538065
832.0,0.006383515894412994
896.0,0.005964383948594332
960.0,0.003611921099945903
1024.0,0.0031659977976232767
1152.0,0.0021062286105006933
1280.0,0.0018641571514308453
1408.0,0.004812668077647686
1536.0,0.0022372885141521692
1664.0,-0.00035431780270300806
1792.0,0.002345808083191514
1920.0,0.004519840236753225
2048.0,-0.001233170391060412
2304.0,-0.008254580199718475
2560.0,-0.010355930775403976
2816.0,-0.012542646378278732
3072.0,-0.008105744607746601
3328.0,-0.0038073454052209854
3584.0,-0.002227433491498232
3840.0,0.0010086826514452696
4096.0,0.0008839623769745231
4608.0,-0.0026285345666110516
5120.0,0.003949371632188559
5632.0,0.0055298833176493645
6144.0,-0.00461854413151741
6656.0,-0.009380705654621124
7168.0,-0.0014792862348258495
7680.0,-0.0033293385058641434
8192.0,-0.003445671871304512
9216.0,0.008837506175041199
10240.0,0.004099543206393719
11264.0,-0.004401882644742727
12288.0,-0.012157678604125977
13312.0,-0.0065932427532970905
14336.0,0.001550394925288856
end
