version,3.0
numOfCh,1
type,point
parent_name,100-cuts
ch_type,1_1
kcount,1
numberNandB,1
brightnessNandB,1
carpet pos,0
pc,0
Time (ms),CH1 Auto-Correlation
1.0,0.07626601308584213
2.0,0.07539001107215881
3.0,0.0745353251695633
4.0,0.07371562719345093
5.0,0.0728955939412117
6.0,0.07208827137947083
7.0,0.07129137217998505
8.0,0.07052166759967804
9.0,0.06974653154611588
10.0,0.06897605210542679
11.0,0.06822840869426727
12.0,0.06748656928539276
13.0,0.06676068902015686
14.0,0.06604837626218796
15.0,0.06535091996192932
16.0,0.06463196873664856
18.0,0.06325109302997589
20.0,0.06187887117266655
22.0,0.06052671745419502
24.0,0.05921146646142006
26.0,0.057924866676330566
28.0,0.05664284899830818
30.0,0.05539839714765549
32.0,0.05422081798315048
36.0,0.05206487327814102
40.0,0.050014615058898926
44.0,0.048116929829120636
48.0,0.046471428126096725
52.0,0.04488940164446831
56.0,0.04336296021938324
60.0,0.041809577494859695
64.0,0.04032612219452858
72.0,0.037450119853019714
80.0,0.03436509147286415
88.0,0.0313054695725441
96.0,0.028476804494857788
104.0,0.025905728340148926
112.0,0.023539096117019653
120.0,0.021194996312260628
128.0,0.0187118761241436
144.0,0.014182394370436668
160.0,0.010691321454942226
176.0,0.008183969184756279
192.0,0.0058786338195204735
208.0,0.003957551904022694
224.0,0.002534607658162713
240.0,0.001838855561800301
256.0,0.001406349241733551
288.0,0.0008918186067603528
320.0,0.0011068814201280475
352.0,0.0021455257665365934
384.0,0.0034633944742381573
416.0,0.003135331440716982
448.0,0.0031941214110702276
480.0,0.00224849721416831
512.0,0.002030500676482916
576.0,0.002388511085882783
640.0,-0.0010652401251718402
704.0,-0.00479366397485137
768.0,-0.007602508179843426
832.0,-0.007683452684432268
896.0,-0.00896725058555603
960.0,-0.009932468645274639
1024.0,-0.00444954726845026
1152.0,-0.006326878909021616
1280.0,-0.01100467424839735
1408.0,-0.01154604647308588
1536.0,-0.0083701116964221
1664.0,-0.0034327900502830744
1792.0,0.0004366257635410875
1920.0,0.005367862991988659
2048.0,0.006830028723925352
2304.0,0.0021427778992801905
2560.0,-0.002732709748670459
2816.0,0.0009520133025944233
3072.0,0.0030232747085392475
3328.0,-0.0002888512972276658
3584.0,0.0012198607437312603
3840.0,0.00031803117599338293
4096.0,0.0004673681687563658
4608.0,-0.010083216242492199
5120.0,0.0005995347746647894
5632.0,0.002619694219902158
6144.0,0.00046381796710193157
6656.0,0.00033208003151230514
7168.0,0.0022916768211871386
7680.0,-0.0008406882989220321
8192.0,-0.001222262973897159
9216.0,0.0028991512954235077
10240.0,0.001284207683056593
11264.0,-0.005429896060377359
12288.0,0.0009702280513010919
13312.0,-0.0021615808364003897
14336.0,0.0012797785457223654
end
