version,3.0
numOfCh,1
type,point
parent_name,100-cuts
ch_type,1_1
kcount,1
numberNandB,1
brightnessNandB,1
carpet pos,0
pc,0
Time (ms),CH1 Auto-Correlation
1.0,0.08827384561300278
2.0,0.08716942369937897
3.0,0.0860765278339386
4.0,0.08499287813901901
5.0,0.08390416949987411
6.0,0.08281981199979782
7.0,0.08172711730003357
8.0,0.08065203577280045
9.0,0.07956627756357193
10.0,0.07849407196044922
11.0,0.07743678987026215
12.0,0.07639673352241516
13.0,0.07538141310214996
14.0,0.07436540722846985
15.0,0.0733477845788002
16.0,0.07235101610422134
18.0,0.07041673362255096
20.0,0.06844132393598557
22.0,0.06646556407213211
24.0,0.06456641107797623
26.0,0.06274013221263885
28.0,0.060960378497838974
30.0,0.05922164022922516
32.0,0.05755172669887543
36.0,0.05428840219974518
40.0,0.05098436400294304
44.0,0.04793154075741768
48.0,0.045104384422302246
52.0,0.04238926246762276
56.0,0.039720915257930756
60.0,0.037144921720027924
64.0,0.03502442687749863
72.0,0.03133942931890488
80.0,0.028091033920645714
88.0,0.02548423781991005
96.0,0.023074334487318993
104.0,0.020528972148895264
112.0,0.01759595237672329
120.0,0.014692460186779499
128.0,0.011805185116827488
144.0,0.00645267590880394
160.0,0.0023570756893604994
176.0,0.0015523440670222044
192.0,0.002684912411496043
208.0,0.004475690890103579
224.0,0.006244421470910311
240.0,0.0077288271859288216
256.0,0.008586895652115345
288.0,0.0078093186020851135
320.0,0.0057325707748532295
352.0,0.00642451411113143
384.0,0.006244591902941465
416.0,0.003761344589293003
448.0,0.0008274773717857897
480.0,0.0007448578253388405
512.0,0.002144140424206853
576.0,0.0055459039285779
640.0,0.005975173320621252
704.0,0.0019186220597475767
768.0,-0.000247253046836704
832.0,-0.0005693069542758167
896.0,0.00010304521856596693
960.0,0.0006593269645236433
1024.0,0.003243137849494815
1152.0,0.004231365863233805
1280.0,-1.0744336577772629e-05
1408.0,0.0036409106105566025
1536.0,-0.0025518364273011684
1664.0,-0.008048994466662407
1792.0,-0.0023605143651366234
1920.0,-0.0014171113725751638
2048.0,-0.01127641648054123
2304.0,-0.009324576705694199
2560.0,-0.008604095317423344
2816.0,-0.001348875812254846
3072.0,0.0003015230468008667
3328.0,-0.004703305196017027
3584.0,-0.0060934158973395824
3840.0,-0.00011923297279281542
4096.0,0.0004063961678184569
4608.0,0.011924664489924908
5120.0,-0.001003421377390623
5632.0,0.0023771629203110933
6144.0,0.005726065021008253
6656.0,-0.00684944586828351
7168.0,-0.009204081259667873
7680.0,-0.001110206707380712
8192.0,-0.009205489419400692
9216.0,0.007805028464645147
10240.0,0.010955358855426311
11264.0,-0.005924855824559927
12288.0,-0.013704994693398476
13312.0,0.003052211832255125
14336.0,0.001341806841082871
end
