version,3.0
numOfCh,1
type,point
parent_name,100-cuts
ch_type,1_1
kcount,1
numberNandB,1
brightnessNandB,1
carpet pos,0
pc,0
Time (ms),CH1 Auto-Correlation
1.0,0.10466442257165909
2.0,0.10356142371892929
3.0,0.10250168293714523
4.0,0.10143369436264038
5.0,0.10040954500436783
6.0,0.09939035028219223
7.0,0.09834509342908859
8.0,0.09733795374631882
9.0,0.09634196013212204
10.0,0.09538162499666214
11.0,0.09442763775587082
12.0,0.09346555918455124
13.0,0.09254569560289383
14.0,0.09163426607847214
15.0,0.09081081300973892
16.0,0.08998554944992065
18.0,0.08840379863977432
20.0,0.0868108943104744
22.0,0.08526191115379333
24.0,0.08374621719121933
26.0,0.08227051049470901
28.0,0.08086833357810974
30.0,0.07956565916538239
32.0,0.07833172380924225
36.0,0.07584699243307114
40.0,0.07347352057695389
44.0,0.0711045041680336
48.0,0.068788081407547
52.0,0.06672599166631699
56.0,0.0648682489991188
60.0,0.06303730607032776
64.0,0.061218272894620895
72.0,0.0575212799012661
80.0,0.05404246598482132
88.0,0.0507177859544754
96.0,0.047306034713983536
104.0,0.04390339553356171
112.0,0.040676090866327286
120.0,0.036813464015722275
128.0,0.03302859142422676
144.0,0.026742611080408096
160.0,0.02133876271545887
176.0,0.01686755381524563
192.0,0.013447292149066925
208.0,0.011162301525473595
224.0,0.009319975040853024
240.0,0.006593176629394293
256.0,0.004031870514154434
288.0,0.0008046815637499094
320.0,-0.001218975754454732
352.0,-0.0025390740483999252
384.0,-0.005084007978439331
416.0,-0.006525132339447737
448.0,-0.0070047881454229355
480.0,-0.007789622060954571
512.0,-0.010110454633831978
576.0,-0.013432285748422146
640.0,-0.011812323704361916
704.0,-0.005656444933265448
768.0,-0.0037695029750466347
832.0,-0.0037863529287278652
896.0,-0.005315959453582764
960.0,-0.004553839564323425
1024.0,-0.002660071477293968
1152.0,0.004917463753372431
1280.0,0.006570411380380392
1408.0,0.006709573790431023
1536.0,0.0017724549397826195
1664.0,-0.003500846214592457
1792.0,-0.011322541162371635
1920.0,-0.007773066870868206
2048.0,-0.004781309515237808
2304.0,-0.0020300846081227064
2560.0,0.02026306837797165
2816.0,0.008841393515467644
3072.0,-0.008703392930328846
3328.0,-0.006443866528570652
3584.0,-0.008356409147381783
3840.0,0.004070012364536524
4096.0,0.004289302509278059
4608.0,0.0029018849600106478
5120.0,0.0034773238003253937
5632.0,0.0035820931661874056
6144.0,-0.0028594883624464273
6656.0,-0.0015766650903970003
7168.0,-0.007347472943365574
7680.0,-0.011638100259006023
8192.0,-0.0015527780633419752
9216.0,0.001651971833780408
10240.0,0.0027049551717936993
11264.0,0.0008588224882259965
12288.0,-0.012977576814591885
13312.0,0.0009539001039229333
14336.0,-0.00040992849972099066
end
