version,3.0
numOfCh,1
type,point
parent_name,100-cuts
ch_type,1_1
kcount,1
numberNandB,1
brightnessNandB,1
carpet pos,0
pc,0
Time (ms),CH1 Auto-Correlation
1.0,0.0680767372250557
2.0,0.06720533967018127
3.0,0.06633930653333664
4.0,0.06550522893667221
5.0,0.06465748697519302
6.0,0.06381569802761078
7.0,0.0629870817065239
8.0,0.062154620885849
9.0,0.0613555945456028
10.0,0.060584522783756256
11.0,0.0598028264939785
12.0,0.0590343251824379
13.0,0.058272238820791245
14.0,0.05751980096101761
15.0,0.056770674884319305
16.0,0.056034162640571594
18.0,0.054633427411317825
20.0,0.05325045436620712
22.0,0.05192927271127701
24.0,0.05064816400408745
26.0,0.04938051104545593
28.0,0.04813975468277931
30.0,0.04697638005018234
32.0,0.04584607854485512
36.0,0.04364022985100746
40.0,0.04150894656777382
44.0,0.03944293409585953
48.0,0.03746085613965988
52.0,0.035572491586208344
56.0,0.03375217691063881
60.0,0.03190428391098976
64.0,0.030163167044520378
72.0,0.026938797906041145
80.0,0.02402568608522415
88.0,0.02152840793132782
96.0,0.019278427585959435
104.0,0.017354486510157585
112.0,0.015572097152471542
120.0,0.013820094056427479
128.0,0.012210141867399216
144.0,0.008946647867560387
160.0,0.006364126689732075
176.0,0.004220476374030113
192.0,0.0017897338839247823
208.0,-0.0009386944002471864
224.0,-0.002987565938383341
240.0,-0.00429356936365366
256.0,-0.0055260686203837395
288.0,-0.007815449498593807
320.0,-0.007281872443854809
352.0,-0.004785042721778154
384.0,-0.0022184287663549185
416.0,-0.001575313275679946
448.0,-0.0025081231724470854
480.0,-0.002669022884219885
512.0,0.00023352846619673073
576.0,0.0044369385577738285
640.0,0.0007916728500276804
704.0,-0.0019163480028510094
768.0,-0.0023831066209822893
832.0,-0.002844278234988451
896.0,-0.004635019693523645
960.0,-0.004793107509613037
1024.0,-0.0024441767018288374
1152.0,0.000579475483391434
1280.0,-0.003347972873598337
1408.0,-0.0022230062168091536
1536.0,0.00585379870608449
1664.0,0.006356353871524334
1792.0,-0.001547328312881291
1920.0,0.0009427778422832489
2048.0,-0.0019935688469558954
2304.0,0.0006976147997193038
2560.0,-0.004478306509554386
2816.0,-0.000933840696234256
3072.0,-0.004865470342338085
3328.0,-0.0016831641551107168
3584.0,-0.01002058107405901
3840.0,0.0007941829389892519
4096.0,-0.0005058063543401659
4608.0,-0.0007597507210448384
5120.0,0.0044767181389033794
5632.0,0.001817219192162156
6144.0,-0.005494613200426102
6656.0,0.006051323376595974
7168.0,0.007022176403552294
7680.0,-0.00910745095461607
8192.0,-0.0028321915306150913
9216.0,0.000620714679826051
10240.0,-0.0038714022375643253
11264.0,0.004404039587825537
12288.0,0.005367405246943235
13312.0,-0.0016817125724628568
14336.0,0.005875132512301207
end
