version,3.0
numOfCh,1
type,point
parent_name,100-cuts
ch_type,1_1
kcount,1
numberNandB,1
brightnessNandB,1
carpet pos,0
pc,0
Time (ms),CH1 Auto-Correlation
1.0,0.02867813967168331
2.0,0.02836778201162815
3.0,0.02805246412754059
4.0,0.027742134407162666
5.0,0.027439799159765244
6.0,0.0271411444991827
7.0,0.026856277137994766
8.0,0.026572244241833687
9.0,0.026295622810721397
10.0,0.02602284587919712
11.0,0.025757886469364166
12.0,0.025499094277620316
13.0,0.025258567184209824
14.0,0.025019166991114616
15.0,0.024786433205008507
16.0,0.024561256170272827
18.0,0.024110911414027214
20.0,0.02367711253464222
22.0,0.023248806595802307
24.0,0.022827567532658577
26.0,0.02242276817560196
28.0,0.02204059809446335
30.0,0.021657779812812805
32.0,0.021265434101223946
36.0,0.020502878352999687
40.0,0.019727345556020737
44.0,0.018965035676956177
48.0,0.01822298765182495
52.0,0.017492810264229774
56.0,0.016790764406323433
60.0,0.01612035185098648
64.0,0.015496214851737022
72.0,0.014429930597543716
80.0,0.013423865661025047
88.0,0.012520781718194485
96.0,0.011667967773973942
104.0,0.010754477232694626
112.0,0.00993358250707388
120.0,0.00928701926022768
128.0,0.008759303949773312
144.0,0.007605439517647028
160.0,0.0066810534335672855
176.0,0.005928278435021639
192.0,0.005082349292933941
208.0,0.004250638652592897
224.0,0.0036266897805035114
240.0,0.003354959422722459
256.0,0.0031346615869551897
288.0,0.003056492190808058
320.0,0.0027232361026108265
352.0,0.0017641508020460606
384.0,0.0010418205056339502
416.0,0.000998283619992435
448.0,0.0010810608509927988
480.0,0.001115857856348157
512.0,0.0013684419682249427
576.0,0.001997667131945491
640.0,0.0017063368577510118
704.0,0.0012943852925673127
768.0,0.0018448882037773728
832.0,0.000725992489606142
896.0,-0.00046282410039566457
960.0,-0.0008067745948210359
1024.0,-0.0004439660406205803
1152.0,0.0012765985447913408
1280.0,6.13980955677107e-05
1408.0,-0.003315796609967947
1536.0,-0.0010674953227862716
1664.0,0.001501482562161982
1792.0,-0.0004098449135199189
1920.0,-0.0018097981810569763
2048.0,-0.002723340643569827
2304.0,-0.0003739318926818669
2560.0,-0.00040206534322351217
2816.0,1.4275307876232546e-05
3072.0,-0.002565535018220544
3328.0,-0.0018723089015111327
3584.0,0.0008121401770040393
3840.0,-0.0017672224203124642
4096.0,-0.0020900398958474398
4608.0,0.0014940196415409446
5120.0,0.003973035607486963
5632.0,0.0019498295150697231
6144.0,-0.00024501775624230504
6656.0,-0.005054408218711615
7168.0,0.0003998313914053142
7680.0,-0.0022672454360872507
8192.0,0.0017108519095927477
9216.0,-0.00031222772668115795
10240.0,0.002425672020763159
11264.0,0.002156942617148161
12288.0,-0.003061664290726185
13312.0,-0.005738949868828058
14336.0,-0.008965646848082542
end
