version,3.0
numOfCh,1
type,point
parent_name,100-cuts
ch_type,1_1
kcount,1
numberNandB,1
brightnessNandB,1
carpet pos,0
pc,0
Time (ms),CH1 Auto-Correlation
1.0,0.0828433483839035
2.0,0.08171393722295761
3.0,0.08059670776128769
4.0,0.07952603697776794
5.0,0.07845160365104675
6.0,0.07738123834133148
7.0,0.07633918523788452
8.0,0.07531260699033737
9.0,0.07427816838026047
10.0,0.07329194247722626
11.0,0.07233281433582306
12.0,0.07136688381433487
13.0,0.07044795900583267
14.0,0.06954915821552277
15.0,0.06865508109331131
16.0,0.0677727609872818
18.0,0.06610698252916336
20.0,0.06453035026788712
22.0,0.06297575682401657
24.0,0.061489395797252655
26.0,0.0600663460791111
28.0,0.05869707837700844
30.0,0.05740092694759369
32.0,0.05609789490699768
36.0,0.053350649774074554
40.0,0.05057172849774361
44.0,0.04792872071266174
48.0,0.04543798044323921
52.0,0.04312264174222946
56.0,0.041106145828962326
60.0,0.03924991190433502
64.0,0.03728437051177025
72.0,0.03359565883874893
80.0,0.03023071028292179
88.0,0.02776033990085125
96.0,0.025685224682092667
104.0,0.02337435632944107
112.0,0.021300023421645164
120.0,0.020023003220558167
128.0,0.019223922863602638
144.0,0.017975568771362305
160.0,0.01782558485865593
176.0,0.018063774332404137
192.0,0.01855151355266571
208.0,0.018804633989930153
224.0,0.01907000131905079
240.0,0.019087444990873337
256.0,0.019500620663166046
288.0,0.019751116633415222
320.0,0.017824292182922363
352.0,0.015958022326231003
384.0,0.013421383686363697
416.0,0.010249455459415913
448.0,0.009334343485534191
480.0,0.00962541438639164
512.0,0.009030070155858994
576.0,0.0070851934142410755
640.0,0.006232595071196556
704.0,-0.0005407347925938666
768.0,-0.005952098406851292
832.0,-0.005014466121792793
896.0,-0.007092657499015331
960.0,-0.010615757666528225
1024.0,-0.01097197737544775
1152.0,-0.010740998201072216
1280.0,-0.010585765354335308
1408.0,-0.007234956603497267
1536.0,-0.008330965414643288
1664.0,-0.005670588463544846
1792.0,-0.007811779156327248
1920.0,-0.01286888588219881
2048.0,-0.010768785141408443
2304.0,-0.00649082800373435
2560.0,-0.005275660660117865
2816.0,-0.0007595730712637305
3072.0,0.003533462528139353
3328.0,0.010350432246923447
3584.0,0.005304332822561264
3840.0,0.00748063949868083
4096.0,0.002678497927263379
4608.0,0.0016315375687554479
5120.0,-0.0019285333110019565
5632.0,-0.0070748948492109776
6144.0,-0.004366892855614424
6656.0,0.004943475127220154
7168.0,0.0013334209797903895
7680.0,-0.0009161619818769395
8192.0,-0.0010714599629864097
9216.0,-0.007885114289820194
10240.0,0.01068453211337328
11264.0,-0.014647947624325752
12288.0,0.008244086056947708
13312.0,-0.0018431241624057293
14336.0,0.005021526478230953
end
