version,3.0
numOfCh,1
type,point
parent_name,100-cuts
ch_type,1_1
kcount,1
numberNandB,1
brightnessNandB,1
carpet pos,0
pc,0
Time (ms),CH1 Auto-Correlation
1.0,0.0493113249540329
2.0,0.048642486333847046
3.0,0.04798441007733345
4.0,0.04733401536941528
5.0,0.0467090830206871
6.0,0.046087734401226044
7.0,0.04548007622361183
8.0,0.04488319158554077
9.0,0.0442965030670166
10.0,0.04372493922710419
11.0,0.04316847771406174
12.0,0.042630553245544434
13.0,0.04210576415061951
14.0,0.04159752279520035
15.0,0.04110267013311386
16.0,0.040610380470752716
18.0,0.039665769785642624
20.0,0.03871680796146393
22.0,0.037781890481710434
24.0,0.03689035773277283
26.0,0.03603789955377579
28.0,0.035216815769672394
30.0,0.034415725618600845
32.0,0.033644452691078186
36.0,0.03216513618826866
40.0,0.030828507617115974
44.0,0.0296237301081419
48.0,0.028493480756878853
52.0,0.027397479861974716
56.0,0.02638418972492218
60.0,0.025523673743009567
64.0,0.024700893089175224
72.0,0.023036673665046692
80.0,0.021386081352829933
88.0,0.019766002893447876
96.0,0.0179585088044405
104.0,0.01596839353442192
112.0,0.014355777762830257
120.0,0.01307670772075653
128.0,0.012060137465596199
144.0,0.010503786616027355
160.0,0.009530363604426384
176.0,0.008553232066333294
192.0,0.007264943327754736
208.0,0.005865647457540035
224.0,0.004411882255226374
240.0,0.0033342475071549416
256.0,0.002874049125239253
288.0,0.0019413208356127143
320.0,0.0016378401778638363
352.0,0.002001215470954776
384.0,0.0023341963533312082
416.0,0.0038831522688269615
448.0,0.0049699111841619015
480.0,0.004239910282194614
512.0,0.003661329858005047
576.0,0.004157648887485266
640.0,0.005388912279158831
704.0,0.006294543854892254
768.0,0.0058340211398899555
832.0,0.002828669035807252
896.0,0.0008874813211150467
960.0,-0.0008164201281033456
1024.0,-0.0012978193117305636
1152.0,-0.0034759456757456064
1280.0,-0.0026068096049129963
1408.0,0.002505409996956587
1536.0,0.0021849283948540688
1664.0,-0.00015618375618942082
1792.0,-0.002341031562536955
1920.0,-0.001282652374356985
2048.0,-0.002511368365958333
2304.0,-0.004594134632498026
2560.0,-0.001979197608307004
2816.0,-0.0035395189188420773
3072.0,-0.0016431340482085943
3328.0,-0.0027969114016741514
3584.0,-0.00295843742787838
3840.0,-0.0009710258455015719
4096.0,-0.003466962603852153
4608.0,-0.00272380281239748
5120.0,-0.0020535322837531567
5632.0,0.0040185218676924706
6144.0,0.0025398696307092905
6656.0,0.006695413030683994
7168.0,0.006287736352533102
7680.0,0.0017973411595448852
8192.0,-0.002548605902120471
9216.0,-0.0053137862123548985
10240.0,-0.004908810835331678
11264.0,-0.002180634066462517
12288.0,0.003203773172572255
13312.0,-0.003164291614666581
14336.0,0.020341159775853157
end
