version,3.0
numOfCh,1
type,point
parent_name,100-cuts
ch_type,1_1
kcount,1
numberNandB,1
brightnessNandB,1
carpet pos,0
pc,0
Time (ms),CH1 Auto-Correlation
1.0,0.06262492388486862
2.0,0.061703626066446304
3.0,0.060810334980487823
4.0,0.05990390107035637
5.0,0.05899126082658768
6.0,0.05805651471018791
7.0,0.05716481804847717
8.0,0.056280650198459625
9.0,0.055429987609386444
10.0,0.05457606911659241
11.0,0.053750667721033096
12.0,0.05293531343340874
13.0,0.05211840569972992
14.0,0.05130074545741081
15.0,0.05049591138958931
16.0,0.04971262067556381
18.0,0.0481845885515213
20.0,0.046702656894922256
22.0,0.04531458020210266
24.0,0.04396718367934227
26.0,0.04264673590660095
28.0,0.04140685871243477
30.0,0.04014654457569122
32.0,0.038961298763751984
36.0,0.036812931299209595
40.0,0.03473223000764847
44.0,0.0326593741774559
48.0,0.030669065192341805
52.0,0.02879180945456028
56.0,0.027003787457942963
60.0,0.025453511625528336
64.0,0.02408735826611519
72.0,0.02172268182039261
80.0,0.019475579261779785
88.0,0.017373044043779373
96.0,0.015732772648334503
104.0,0.014284911565482616
112.0,0.012900911271572113
120.0,0.011946173384785652
128.0,0.011067789979279041
144.0,0.010148606263101101
160.0,0.008725432679057121
176.0,0.00715129217132926
192.0,0.006212074775248766
208.0,0.005315598100423813
224.0,0.004578577354550362
240.0,0.0036960190627723932
256.0,0.0030411037150770426
288.0,0.002183228498324752
320.0,0.0022649578750133514
352.0,0.0015376682858914137
384.0,0.00011203993926756084
416.0,-0.0006293735932558775
448.0,-0.00025689692120067775
480.0,-0.0013342291349545121
512.0,-0.0020101151894778013
576.0,-0.001446557231247425
640.0,0.0014399270294234157
704.0,0.002765000332146883
768.0,0.003276088275015354
832.0,0.006010667886584997
896.0,0.004824611358344555
960.0,0.002786313183605671
1024.0,-0.0006505086785182357
1152.0,-0.00571988383308053
1280.0,-0.00487510347738862
1408.0,-0.0017067496664822102
1536.0,-0.0025439613964408636
1664.0,0.0009274876792915165
1792.0,0.0002896520309150219
1920.0,-0.004652146715670824
2048.0,-0.005738633684813976
2304.0,-0.0052228351123631
2560.0,-0.0010569797595962882
2816.0,0.004037227015942335
3072.0,0.001728094881400466
3328.0,-0.001338929869234562
3584.0,0.0021956064738333225
3840.0,-0.00405910424888134
4096.0,-0.005338811781257391
4608.0,-0.005813599098473787
5120.0,-0.005088077858090401
5632.0,0.002292756224051118
6144.0,0.003225386142730713
6656.0,0.008334755897521973
7168.0,0.0023287918884307146
7680.0,-0.0009179565240629017
8192.0,-0.0023302047047764063
9216.0,0.00012523558689281344
10240.0,0.003446518909186125
11264.0,-0.006151305045932531
12288.0,0.0015961992321535945
13312.0,0.0024821688421070576
14336.0,-0.004868370946496725
end
