version,3.0
numOfCh,1
type,point
parent_name,100-cuts
ch_type,1_1
kcount,1
numberNandB,1
brightnessNandB,1
carpet pos,0
pc,0
Time (ms),CH1 Auto-Correlation
1.0,0.026225240901112556
2.0,0.025887297466397285
3.0,0.025548284873366356
4.0,0.02522110752761364
5.0,0.024901792407035828
6.0,0.024588756263256073
7.0,0.02427583746612072
8.0,0.023963505402207375
9.0,0.023654956370592117
10.0,0.02334718592464924
11.0,0.023045219480991364
12.0,0.022742459550499916
13.0,0.022452374920248985
14.0,0.02215457335114479
15.0,0.021857362240552902
16.0,0.02155964821577072
18.0,0.02099263109266758
20.0,0.020450996235013008
22.0,0.019936688244342804
24.0,0.01941825821995735
26.0,0.018899578601121902
28.0,0.01839222013950348
30.0,0.017879460006952286
32.0,0.017382502555847168
36.0,0.016395244747400284
40.0,0.015414238907396793
44.0,0.0144936703145504
48.0,0.01364760659635067
52.0,0.012931609526276588
56.0,0.012293959967792034
60.0,0.011667552404105663
64.0,0.01104346290230751
72.0,0.009870307520031929
80.0,0.008871735073626041
88.0,0.008122507482767105
96.0,0.007471999153494835
104.0,0.0068158674985170364
112.0,0.006221231538802385
120.0,0.00559240160509944
128.0,0.004993627779185772
144.0,0.0039787269197404385
160.0,0.0029316660948097706
176.0,0.0019570414442569017
192.0,0.0012262879172340035
208.0,0.0009617015020921826
224.0,0.000953204114921391
240.0,0.001090592471882701
256.0,0.0010590049205347896
288.0,0.0003088141093030572
320.0,0.00031806642073206604
352.0,0.0001794070121832192
384.0,-0.001437651226297021
416.0,-0.0029312351252883673
448.0,-0.0037501780316233635
480.0,-0.0037798818666487932
512.0,-0.0029792587738484144
576.0,-0.002171513857319951
640.0,-0.0018811103655025363
704.0,-0.002579061547294259
768.0,-0.0028688437305390835
832.0,-0.0025360595900565386
896.0,-0.0006172028370201588
960.0,-0.00022356456611305475
1024.0,-0.0014592711813747883
1152.0,-0.0011385460384190083
1280.0,-0.00015817808161955327
1408.0,-0.0007843891507945955
1536.0,0.00033567313221283257
1664.0,0.0018336157081648707
1792.0,0.0020831297151744366
1920.0,0.0012019140413030982
2048.0,0.0006519602029584348
2304.0,-0.0011461290996521711
2560.0,-0.0005659243324771523
2816.0,-0.0012483891332522035
3072.0,0.0012186821550130844
3328.0,0.0013087663101032376
3584.0,-0.001683322829194367
3840.0,0.001216175383888185
4096.0,0.0008018230437301099
4608.0,-0.003218345809727907
5120.0,0.0002698926255106926
5632.0,0.0020487175788730383
6144.0,-0.001887349528260529
6656.0,-0.0004364789929240942
7168.0,0.002164629055187106
7680.0,-0.000998151022940874
8192.0,-0.001489973277784884
9216.0,0.0022508169058710337
10240.0,-0.0007570562302134931
11264.0,-0.0003766667505260557
12288.0,0.0013454906875267625
13312.0,-0.003517436794936657
14336.0,0.002610941184684634
end
