version,3.0
numOfCh,1
type,point
parent_name,100-cuts
ch_type,1_1
kcount,1
numberNandB,1
brightnessNandB,1
carpet pos,0
pc,0
Time (ms),CH1 Auto-Correlation
1.0,0.07946334034204483
2.0,0.07844744622707367
3.0,0.07744831591844559
4.0,0.07645359635353088
5.0,0.07547089457511902
6.0,0.07456847280263901
7.0,0.07366804778575897
8.0,0.07277300953865051
9.0,0.07188137620687485
10.0,0.07102181017398834
11.0,0.07017122209072113
12.0,0.06933379918336868
13.0,0.06851772218942642
14.0,0.0676933079957962
15.0,0.06685579568147659
16.0,0.06603142619132996
18.0,0.06435797363519669
20.0,0.06273401528596878
22.0,0.06118127331137657
24.0,0.05966467037796974
26.0,0.05822370573878288
28.0,0.05680762231349945
30.0,0.05540052801370621
32.0,0.05400034785270691
36.0,0.051398828625679016
40.0,0.0487879142165184
44.0,0.04620509594678879
48.0,0.04363204911351204
52.0,0.04119846224784851
56.0,0.038944851607084274
60.0,0.03679618239402771
64.0,0.03476561978459358
72.0,0.03148733451962471
80.0,0.028770048171281815
88.0,0.026620980352163315
96.0,0.025012319907546043
104.0,0.023901326581835747
112.0,0.023060427978634834
120.0,0.02245827205479145
128.0,0.021945912390947342
144.0,0.02117237076163292
160.0,0.02042112872004509
176.0,0.0197746604681015
192.0,0.017647016793489456
208.0,0.015651719644665718
224.0,0.013940410688519478
240.0,0.01237220223993063
256.0,0.011262246407568455
288.0,0.011724493466317654
320.0,0.012789365835487843
352.0,0.013995843008160591
384.0,0.013480357825756073
416.0,0.011794880032539368
448.0,0.009115861728787422
480.0,0.008245275355875492
512.0,0.008472788147628307
576.0,0.004690849222242832
640.0,0.002422348828986287
704.0,0.0033870970364660025
768.0,0.005008302628993988
832.0,0.001971655758097768
896.0,-0.0035067934077233076
960.0,-0.00405475590378046
1024.0,-0.0013917594915255904
1152.0,0.008209326304495335
1280.0,0.007613709196448326
1408.0,0.004267311654984951
1536.0,0.006222745403647423
1664.0,0.009106561541557312
1792.0,0.004727023653686047
1920.0,0.004168907180428505
2048.0,-9.264057007385418e-05
2304.0,-0.0005340803763829172
2560.0,0.00020451110322028399
2816.0,0.0008500789990648627
3072.0,-0.002760192845016718
3328.0,-0.004359603859484196
3584.0,-0.0015107985818758607
3840.0,-0.0030356061179190874
4096.0,-0.008649611845612526
4608.0,-0.00808157492429018
5120.0,-0.009620373137295246
5632.0,-0.007624540477991104
6144.0,-0.005544826854020357
6656.0,-0.006190023384988308
7168.0,-0.00533348647877574
7680.0,-0.0057741194032132626
8192.0,-0.0004971065791323781
9216.0,-0.0010082264197990298
10240.0,0.0007548644789494574
11264.0,0.003010881831869483
12288.0,0.003808775683864951
13312.0,0.0027333488687872887
14336.0,0.0035703512839972973
end
