version,3.0
numOfCh,1
type,point
parent_name,100-cuts
ch_type,1_1
kcount,1
numberNandB,1
brightnessNandB,1
carpet pos,0
pc,0
Time (ms),CH1 Auto-Correlation
1.0,0.07945649325847626
2.0,0.07851634174585342
3.0,0.07759939134120941
4.0,0.07673115283250809
5.0,0.07585381716489792
6.0,0.07499974220991135
7.0,0.07417073845863342
8.0,0.07334668189287186
9.0,0.07252414524555206
10.0,0.07173258066177368
11.0,0.07096238434314728
12.0,0.07021717727184296
13.0,0.06947535276412964
14.0,0.0687384158372879
15.0,0.06801777333021164
16.0,0.06727529317140579
18.0,0.065790556371212
20.0,0.0643291026353836
22.0,0.06296626478433609
24.0,0.061678651720285416
26.0,0.060462091118097305
28.0,0.059284161776304245
30.0,0.058109987527132034
32.0,0.05694092437624931
36.0,0.05475911125540733
40.0,0.05263810604810715
44.0,0.05062057450413704
48.0,0.04871750995516777
52.0,0.046968404203653336
56.0,0.04531961306929588
60.0,0.0437983013689518
64.0,0.042330749332904816
72.0,0.039596885442733765
80.0,0.03708091750741005
88.0,0.03483640402555466
96.0,0.0329284742474556
104.0,0.031099440529942513
112.0,0.029194984585046768
120.0,0.027629638090729713
128.0,0.02637769840657711
144.0,0.024227768182754517
160.0,0.022502971813082695
176.0,0.02136179618537426
192.0,0.020235467702150345
208.0,0.01798258163034916
224.0,0.016037506982684135
240.0,0.013993499800562859
256.0,0.012633856385946274
288.0,0.010485619306564331
320.0,0.009058231487870216
352.0,0.009374449029564857
384.0,0.007583771366626024
416.0,0.0042115324176847935
448.0,0.0011271100956946611
480.0,-0.0019270969787612557
512.0,-0.0024881905410438776
576.0,-0.0013711999636143446
640.0,-0.002185256453230977
704.0,-0.0025828417856246233
768.0,-0.0021261030342429876
832.0,-0.003077284200116992
896.0,-0.0029111055191606283
960.0,-0.0031106628011912107
1024.0,-0.0049989065155386925
1152.0,-0.00956004112958908
1280.0,-0.010830333456397057
1408.0,-0.008049359545111656
1536.0,0.0013508645351976156
1664.0,0.005490214563906193
1792.0,0.00408572843298316
1920.0,0.0048620374873280525
2048.0,0.005330391228199005
2304.0,0.0018716852646321058
2560.0,3.1525811209576204e-05
2816.0,-0.00789987575262785
3072.0,-0.007394272834062576
3328.0,0.006771731190383434
3584.0,0.0033234343864023685
3840.0,0.004391096532344818
4096.0,0.004556524567306042
4608.0,-0.004201753064990044
5120.0,-0.0037013841792941093
5632.0,0.002632870338857174
6144.0,0.0054100980050861835
6656.0,-0.0012983978958800435
7168.0,-0.0072439610958099365
7680.0,-0.011226826347410679
8192.0,0.007851251401007175
9216.0,-0.0015164428623393178
10240.0,-0.008808950893580914
11264.0,-0.011756706982851028
12288.0,0.002392643364146352
13312.0,0.00325951911509037
14336.0,0.007386496290564537
end
