version,3.0
numOfCh,1
type,point
parent_name,100-cuts
ch_type,1_1
kcount,1
numberNandB,1
brightnessNandB,1
carpet pos,0
pc,0
Time (ms),CH1 Auto-Correlation
1.0,0.09695012867450714
2.0,0.09590946137905121
3.0,0.09489637613296509
4.0,0.09391562640666962
5.0,0.09296310693025589
6.0,0.09201619029045105
7.0,0.09106769412755966
8.0,0.09013593941926956
9.0,0.08919403702020645
10.0,0.08826974779367447
11.0,0.08738479018211365
12.0,0.0864991769194603
13.0,0.08562856912612915
14.0,0.08479113131761551
15.0,0.08392798900604248
16.0,0.08308756351470947
18.0,0.08142203092575073
20.0,0.07981588691473007
22.0,0.07828549295663834
24.0,0.07676080614328384
26.0,0.07527898252010345
28.0,0.07389074563980103
30.0,0.0725177451968193
32.0,0.07120177894830704
36.0,0.06860655546188354
40.0,0.06596861779689789
44.0,0.06334586441516876
48.0,0.060744140297174454
52.0,0.058349233120679855
56.0,0.05616728216409683
60.0,0.05410197377204895
64.0,0.05221090838313103
72.0,0.04857688024640083
80.0,0.04508126527070999
88.0,0.041495952755212784
96.0,0.03753456100821495
104.0,0.033695876598358154
112.0,0.03066117689013481
120.0,0.028275778517127037
128.0,0.026164688169956207
144.0,0.02303621731698513
160.0,0.020537476986646652
176.0,0.017460651695728302
192.0,0.013794767670333385
208.0,0.009995697066187859
224.0,0.007325820159167051
240.0,0.005040050949901342
256.0,0.002467862330377102
288.0,-0.0017276101280003786
320.0,-0.0034340773709118366
352.0,-0.004751687869429588
384.0,-0.00673184497281909
416.0,-0.008491681888699532
448.0,-0.010014921426773071
480.0,-0.01065242663025856
512.0,-0.009304690174758434
576.0,-0.005222708452492952
640.0,-0.0030868377070873976
704.0,-0.008828917518258095
768.0,-0.012211729772388935
832.0,-0.01338577177375555
896.0,-0.014620398171246052
960.0,-0.011372646316885948
1024.0,-0.008429717272520065
1152.0,-0.008096608333289623
1280.0,-0.004962908569723368
1408.0,-0.006012947764247656
1536.0,-0.0033475742675364017
1664.0,0.0008831961895339191
1792.0,-0.0016660470282658935
1920.0,0.0014541094424203038
2048.0,0.009121468290686607
2304.0,0.002089734422042966
2560.0,-0.004998223856091499
2816.0,0.009835759177803993
3072.0,0.002206909004598856
3328.0,-0.008059697225689888
3584.0,-0.0031079561449587345
3840.0,-0.0027158779557794333
4096.0,-0.0023998161777853966
4608.0,0.007514383178204298
5120.0,-0.00987291894853115
5632.0,0.0004643042921088636
6144.0,-0.0009016904514282942
6656.0,0.00896664522588253
7168.0,-0.013701710850000381
7680.0,0.0016801261808723211
8192.0,-0.00609455956146121
9216.0,0.002831290941685438
10240.0,-0.0034232251346111298
11264.0,0.0006871444056741893
12288.0,0.002706031547859311
13312.0,-0.00720809493213892
14336.0,0.014185572974383831
end
