version,3.0
numOfCh,1
type,point
parent_name,100-cuts
ch_type,1_1
kcount,1
numberNandB,1
brightnessNandB,1
carpet pos,0
pc,0
Time (ms),CH1 Auto-Correlation
1.0,0.07615050673484802
2.0,0.07539745420217514
3.0,0.07464335113763809
4.0,0.07392584532499313
5.0,0.07318727672100067
6.0,0.07245399802923203
7.0,0.07173115015029907
8.0,0.07102856040000916
9.0,0.07033266127109528
10.0,0.06964309513568878
11.0,0.06896640360355377
12.0,0.06829482316970825
13.0,0.06761372089385986
14.0,0.06694997847080231
15.0,0.06629738211631775
16.0,0.06563667953014374
18.0,0.06432823836803436
20.0,0.06300332397222519
22.0,0.06164989247918129
24.0,0.06031349301338196
26.0,0.05898422375321388
28.0,0.0576542466878891
30.0,0.05638366565108299
32.0,0.055125799030065536
36.0,0.052728671580553055
40.0,0.050389885902404785
44.0,0.04807951673865318
48.0,0.0458647683262825
52.0,0.04383910819888115
56.0,0.04203130304813385
60.0,0.040250152349472046
64.0,0.03843236714601517
72.0,0.03511552885174751
80.0,0.032260432839393616
88.0,0.02989332377910614
96.0,0.02784428931772709
104.0,0.02582329884171486
112.0,0.02375803329050541
120.0,0.022022664546966553
128.0,0.020214809104800224
144.0,0.016279883682727814
160.0,0.012768248096108437
176.0,0.010090433992445469
192.0,0.008366132155060768
208.0,0.007835209369659424
224.0,0.007795345038175583
240.0,0.007537828292697668
256.0,0.007428131997585297
288.0,0.00719217024743557
320.0,0.00722300773486495
352.0,0.006485955789685249
384.0,0.006627684459090233
416.0,0.0058196475729346275
448.0,0.0046531748957931995
480.0,0.0043581766076385975
512.0,0.0037319755647331476
576.0,0.002657846314832568
640.0,0.002271556295454502
704.0,-4.551600795821287e-05
768.0,-0.0002318780025234446
832.0,0.001381728216074407
896.0,0.004758118186146021
960.0,0.002004432724788785
1024.0,0.0011844405671581626
1152.0,0.002584021305665374
1280.0,-0.004276033490896225
1408.0,-0.010029786266386509
1536.0,-0.006387860048562288
1664.0,-0.007331418804824352
1792.0,-0.0040858094580471516
1920.0,-0.0018268977291882038
2048.0,0.0030389095190912485
2304.0,-0.0019215453648939729
2560.0,0.004793641623109579
2816.0,-0.00129738450050354
3072.0,-0.003350640879943967
3328.0,-0.010352497920393944
3584.0,-0.01020523440092802
3840.0,-0.005147178657352924
4096.0,-0.0054719881154596806
4608.0,0.008161364123225212
5120.0,0.012121639214456081
5632.0,0.00911865383386612
6144.0,-0.006109384819865227
6656.0,0.0008001471869647503
7168.0,-0.0005457988008856773
7680.0,0.0019857827574014664
8192.0,-0.01341155730187893
9216.0,-0.006163538433611393
10240.0,0.005298123229295015
11264.0,-0.002625527326017618
12288.0,0.0040931906551122665
13312.0,-0.005777592305094004
14336.0,-0.0037537161260843277
end
