version,3.0
numOfCh,1
type,point
parent_name,100-cuts
ch_type,1_1
kcount,1
numberNandB,1
brightnessNandB,1
carpet pos,0
pc,0
Time (ms),CH1 Auto-Correlation
1.0,0.03182287886738777
2.0,0.031488869339227676
3.0,0.03115043044090271
4.0,0.030819721519947052
5.0,0.0304929930716753
6.0,0.030178695917129517
7.0,0.02986583113670349
8.0,0.029561515897512436
9.0,0.029262550175189972
10.0,0.028970256447792053
11.0,0.028684329241514206
12.0,0.02840152010321617
13.0,0.028118811547756195
14.0,0.027841299772262573
15.0,0.02755824103951454
16.0,0.027273444458842278
18.0,0.02671828866004944
20.0,0.02616826817393303
22.0,0.02562463842332363
24.0,0.02511429786682129
26.0,0.024630388244986534
28.0,0.024153977632522583
30.0,0.023696444928646088
32.0,0.02325354516506195
36.0,0.022418290376663208
40.0,0.02160828746855259
44.0,0.020881468430161476
48.0,0.020241539925336838
52.0,0.019639862701296806
56.0,0.019038096070289612
60.0,0.018455833196640015
64.0,0.017953427508473396
72.0,0.017043590545654297
80.0,0.016232481226325035
88.0,0.015455871820449829
96.0,0.014720091596245766
104.0,0.013969795778393745
112.0,0.013255033642053604
120.0,0.012596081010997295
128.0,0.012029710225760937
144.0,0.011332114227116108
160.0,0.010475086979568005
176.0,0.009294262155890465
192.0,0.008329183794558048
208.0,0.0074745225720107555
224.0,0.006457659415900707
240.0,0.005630555562674999
256.0,0.00484851561486721
288.0,0.003617929993197322
320.0,0.002656021388247609
352.0,0.0017766107339411974
384.0,0.0008182420860975981
416.0,-3.74150913557969e-05
448.0,-0.0005705594667233527
480.0,-0.0009193948935717344
512.0,-0.0011443077819421887
576.0,-0.0007639470277354121
640.0,-0.00020174661767669022
704.0,0.0002996368857566267
768.0,-0.0004786867939401418
832.0,-0.0023208074271678925
896.0,-0.004303325898945332
960.0,-0.0043938541784882545
1024.0,-0.002878048690035939
1152.0,-0.001105235074646771
1280.0,-0.000453163287602365
1408.0,-0.001621140749193728
1536.0,-0.0028587989509105682
1664.0,-0.0027159303426742554
1792.0,-0.0031396884005516768
1920.0,-0.002615109086036682
2048.0,-0.002866688184440136
2304.0,-0.002394788432866335
2560.0,-0.0002871981414500624
2816.0,0.0037209149450063705
3072.0,0.0004166295984759927
3328.0,-0.003334472654387355
3584.0,-0.005466703791171312
3840.0,-0.003453758778050542
4096.0,0.0007581153768114746
4608.0,-0.0016587252030149102
5120.0,0.0031026925425976515
5632.0,0.0053537581115961075
6144.0,-0.0003925895434804261
6656.0,-0.0014725177315995097
7168.0,0.0022894805297255516
7680.0,-0.0008707651868462563
8192.0,0.002967909909784794
9216.0,-0.004605596885085106
10240.0,-0.0021134247072041035
11264.0,0.003509403672069311
12288.0,0.005016593262553215
13312.0,-0.0037254963535815477
14336.0,-0.0048735723830759525
end
