version,3.0
numOfCh,1
type,point
parent_name,100-cuts
ch_type,1_1
kcount,1
numberNandB,1
brightnessNandB,1
carpet pos,0
pc,0
Time (ms),CH1 Auto-Correlation
1.0,0.07448098063468933
2.0,0.07350070774555206
3.0,0.07253295928239822
4.0,0.07156933844089508
5.0,0.07062037289142609
6.0,0.06968075037002563
7.0,0.06875283271074295
8.0,0.06783932447433472
9.0,0.06696168333292007
10.0,0.0661039873957634
11.0,0.06526631116867065
12.0,0.06443505734205246
13.0,0.06361117213964462
14.0,0.06280678510665894
15.0,0.06202378496527672
16.0,0.06125430390238762
18.0,0.05977286025881767
20.0,0.058372367173433304
22.0,0.0570925734937191
24.0,0.05584072694182396
26.0,0.05465350300073624
28.0,0.05354475602507591
30.0,0.05243174731731415
32.0,0.051355354487895966
36.0,0.04919011518359184
40.0,0.04705682769417763
44.0,0.04513273760676384
48.0,0.043472740799188614
52.0,0.041935306042432785
56.0,0.04040418937802315
60.0,0.03893037140369415
64.0,0.03745286166667938
72.0,0.03449254110455513
80.0,0.03185798600316048
88.0,0.029527144506573677
96.0,0.027526330202817917
104.0,0.025743067264556885
112.0,0.024348054081201553
120.0,0.02305837906897068
128.0,0.021953703835606575
144.0,0.019727127626538277
160.0,0.01710725948214531
176.0,0.013512862846255302
192.0,0.010105119086802006
208.0,0.006981142330914736
224.0,0.003672489896416664
240.0,0.002101061400026083
256.0,0.0016501587815582752
288.0,0.000917587720323354
320.0,-0.0005864342674612999
352.0,-0.002288383198902011
384.0,-0.0033111227676272392
416.0,-0.0034158783964812756
448.0,-0.0030683998484164476
480.0,-0.0008810402359813452
512.0,0.0003076578432228416
576.0,0.0012921090237796307
640.0,0.004555451683700085
704.0,0.006314045749604702
768.0,0.007586473133414984
832.0,0.009060889482498169
896.0,0.01167072169482708
960.0,0.01170514989644289
1024.0,0.006564951501786709
1152.0,-0.00840172078460455
1280.0,-0.0064752292819321156
1408.0,-0.0039002567064017057
1536.0,0.002136014634743333
1664.0,0.011883053928613663
1792.0,0.00876649096608162
1920.0,-0.00022255655494518578
2048.0,-0.008849733509123325
2304.0,-0.0042622750625014305
2560.0,0.005901483818888664
2816.0,-0.002171413041651249
3072.0,-0.003206961788237095
3328.0,0.0021794673521071672
3584.0,-0.0051094284281134605
3840.0,-0.012284023687243462
4096.0,-0.003677676897495985
4608.0,-0.0022091218270361423
5120.0,-0.0021167865488678217
5632.0,0.0001569308078614995
6144.0,-0.0072772386483848095
6656.0,0.002606932306662202
7168.0,-0.008386170491576195
7680.0,-0.003277796320617199
8192.0,0.0008944461587816477
9216.0,-0.004463964607566595
10240.0,3.563617792678997e-05
11264.0,0.010134109295904636
12288.0,0.0023843885865062475
13312.0,0.0069368984550237656
14336.0,-0.004063026513904333
end
