version,3.0
numOfCh,1
type,point
parent_name,100-cuts
ch_type,1_1
kcount,1
numberNandB,1
brightnessNandB,1
carpet pos,0
pc,0
Time (ms),CH1 Auto-Correlation
1.0,0.018287979066371918
2.0,0.018003547564148903
3.0,0.017728209495544434
4.0,0.017450101673603058
5.0,0.017175180837512016
6.0,0.01689716801047325
7.0,0.01663007214665413
8.0,0.01637246273458004
9.0,0.016122914850711823
10.0,0.015879007056355476
11.0,0.015634289011359215
12.0,0.015392006374895573
13.0,0.015158085152506828
14.0,0.014928728342056274
15.0,0.014702798798680305
16.0,0.014473466202616692
18.0,0.014017940498888493
20.0,0.013565799221396446
22.0,0.013116193935275078
24.0,0.01267294306308031
26.0,0.012250548228621483
28.0,0.011856590397655964
30.0,0.011489013209939003
32.0,0.011136271990835667
36.0,0.010444903746247292
40.0,0.009786546230316162
44.0,0.009155484847724438
48.0,0.008531357161700726
52.0,0.007945905439555645
56.0,0.007389964070171118
60.0,0.0068603879772126675
64.0,0.006365031935274601
72.0,0.00544035853818059
80.0,0.004633221309632063
88.0,0.003927922807633877
96.0,0.0033192462287843227
104.0,0.0027872035279870033
112.0,0.0022992289159446955
120.0,0.0018544649938121438
128.0,0.0014394967583939433
144.0,0.0006658770143985748
160.0,0.0002488912141416222
176.0,4.647153400583193e-05
192.0,5.6887562095653266e-05
208.0,-8.321677159983665e-05
224.0,-0.0004220477712806314
240.0,-0.0007467050454579294
256.0,-0.0010104888351634145
288.0,-0.0011503460118547082
320.0,-0.0011477116495370865
352.0,-0.0011814272729679942
384.0,-0.0014087571762502193
416.0,-0.0014963352587074041
448.0,-0.0014818875351920724
480.0,-0.0009967116639018059
512.0,-0.0008713054121471941
576.0,-0.00022805717890150845
640.0,0.0009508815710432827
704.0,0.0008549580234102905
768.0,0.00014276943693403155
832.0,0.0002297440660186112
896.0,-0.00037127104587852955
960.0,-0.0012777671217918396
1024.0,-0.0017052391776815057
1152.0,-0.00047561395331285894
1280.0,0.00014556730457115918
1408.0,0.0008114229422062635
1536.0,0.0004150977765675634
1664.0,0.00044754380360245705
1792.0,0.0008592843078076839
1920.0,0.0002203142794314772
2048.0,-0.0001200358965434134
2304.0,-0.0014108476461842656
2560.0,2.4513637981726788e-05
2816.0,0.00026722464826889336
3072.0,0.00011862663814099506
3328.0,-0.0007805508212186396
3584.0,-0.0012061364250257611
3840.0,0.0007136553758755326
4096.0,0.00024193890567403287
4608.0,0.0004857149615418166
5120.0,0.0005426087300293148
5632.0,0.000319059967296198
6144.0,-0.0013306550681591034
6656.0,0.00011281219485681504
7168.0,-0.0005872019100934267
7680.0,-0.000994948553852737
8192.0,-0.00030719576170668006
9216.0,0.00034176436020061374
10240.0,-2.508236502762884e-05
11264.0,-6.93090187269263e-05
12288.0,0.00010826827929122373
13312.0,0.0001896696339827031
14336.0,-0.00010247092723147944
end
