version,3.0
numOfCh,1
type,point
parent_name,100-cuts
ch_type,1_1
kcount,1
numberNandB,1
brightnessNandB,1
carpet pos,0
pc,0
Time (ms),CH1 Auto-Correlation
1.0,0.08311647176742554
2.0,0.08191804587841034
3.0,0.08071013540029526
4.0,0.07954396307468414
5.0,0.07835946977138519
6.0,0.07726574689149857
7.0,0.0761711597442627
8.0,0.07507205754518509
9.0,0.07399862259626389
10.0,0.07293856143951416
11.0,0.0718647688627243
12.0,0.07078278064727783
13.0,0.06971359252929688
14.0,0.06864631175994873
15.0,0.06759575009346008
16.0,0.06653889268636703
18.0,0.06452234089374542
20.0,0.06253837049007416
22.0,0.06058045104146004
24.0,0.058693308383226395
26.0,0.05689791962504387
28.0,0.05514226853847504
30.0,0.053452614694833755
32.0,0.05178208649158478
36.0,0.04861367866396904
40.0,0.04557691514492035
44.0,0.04269888624548912
48.0,0.04016639292240143
52.0,0.03807526454329491
56.0,0.036241836845874786
60.0,0.034535396844148636
64.0,0.03303421288728714
72.0,0.030558772385120392
80.0,0.028538711369037628
88.0,0.026568349450826645
96.0,0.024888094514608383
104.0,0.023417090997099876
112.0,0.021910155192017555
120.0,0.02009693905711174
128.0,0.018250903114676476
144.0,0.01534111425280571
160.0,0.013665176928043365
176.0,0.012906105257570744
192.0,0.011956386268138885
208.0,0.01173468679189682
224.0,0.01156391017138958
240.0,0.01078998576849699
256.0,0.008642183616757393
288.0,0.006737274583429098
320.0,0.006676169577986002
352.0,0.00732504203915596
384.0,0.003987676929682493
416.0,0.00033306723344139755
448.0,-0.000602018553763628
480.0,-0.003995442297309637
512.0,-0.010823818854987621
576.0,-0.008839943446218967
640.0,-0.005182476714253426
704.0,-0.0011804194655269384
768.0,-0.000872356235049665
832.0,-0.002362312749028206
896.0,-1.4144359738565981e-05
960.0,0.003266321262344718
1024.0,0.0024999920278787613
1152.0,0.0023575208615511656
1280.0,0.00042431586189195514
1408.0,0.004154866095632315
1536.0,0.002538480097427964
1664.0,0.0006974946591071784
1792.0,-0.008137430995702744
1920.0,-0.003566129831597209
2048.0,-0.006830519065260887
2304.0,0.005406862590461969
2560.0,0.008393681608140469
2816.0,-0.01122241746634245
3072.0,-0.00627137953415513
3328.0,0.0002120485733030364
3584.0,-0.002170261926949024
3840.0,-0.0036184731870889664
4096.0,0.0065442039631307125
4608.0,0.008717639371752739
5120.0,-0.011600086465477943
5632.0,0.0065678381361067295
6144.0,-0.0052645704708993435
6656.0,-0.004562073387205601
7168.0,0.004042323678731918
7680.0,-0.015309605747461319
8192.0,0.0021902776788920164
9216.0,-6.0935526562388986e-05
10240.0,-0.0003834290546365082
11264.0,0.005603587254881859
12288.0,-0.00015920835721772164
13312.0,-0.011155468411743641
14336.0,0.001988992327824235
end
