version,3.0
numOfCh,1
type,point
parent_name,100-cuts
ch_type,1_1
kcount,1
numberNandB,1
brightnessNandB,1
carpet pos,0
pc,0
Time (ms),CH1 Auto-Correlation
1.0,0.0590846948325634
2.0,0.05833688750863075
3.0,0.05760371685028076
4.0,0.0568641759455204
5.0,0.0561404824256897
6.0,0.05544115975499153
7.0,0.054736796766519547
8.0,0.05403909087181091
9.0,0.053348105400800705
10.0,0.052656907588243484
11.0,0.052011050283908844
12.0,0.05135529488325119
13.0,0.05070403218269348
14.0,0.05006992444396019
15.0,0.049430962651968
16.0,0.04879290610551834
18.0,0.047533970326185226
20.0,0.046319954097270966
22.0,0.045123156160116196
24.0,0.04399394616484642
26.0,0.042920827865600586
28.0,0.04188612848520279
30.0,0.04088548570871353
32.0,0.03991449251770973
36.0,0.038131315261125565
40.0,0.03642413765192032
44.0,0.034664250910282135
48.0,0.033012960106134415
52.0,0.03144657984375954
56.0,0.03001917153596878
60.0,0.028699956834316254
64.0,0.027511732652783394
72.0,0.025432944297790527
80.0,0.023534536361694336
88.0,0.02172282338142395
96.0,0.02026723511517048
104.0,0.019099673256278038
112.0,0.0180599857121706
120.0,0.017144110053777695
128.0,0.016181332990527153
144.0,0.014381048269569874
160.0,0.012804550118744373
176.0,0.011067202314734459
192.0,0.010420023463666439
208.0,0.01021731086075306
224.0,0.010079835541546345
240.0,0.010058592073619366
256.0,0.01057371310889721
288.0,0.011802959255874157
320.0,0.012775891460478306
352.0,0.01193987112492323
384.0,0.010154332034289837
416.0,0.00794727262109518
448.0,0.005384291987866163
480.0,0.003894492983818054
512.0,0.003652513725683093
576.0,0.004422736819833517
640.0,0.0025614025071263313
704.0,0.0017240513116121292
768.0,0.0006423456943593919
832.0,3.4857272112276405e-05
896.0,-0.0026552865747362375
960.0,-0.001588977756910026
1024.0,0.00010650358308339491
1152.0,-0.001071792677976191
1280.0,-0.0025730649940669537
1408.0,0.002198097063228488
1536.0,0.00018032918160315603
1664.0,-0.0019963113591074944
1792.0,-0.0028405259363353252
1920.0,-0.002751468913629651
2048.0,-0.0007878997712396085
2304.0,0.002743181772530079
2560.0,0.00040168329724110663
2816.0,-0.0034683258272707462
3072.0,-0.005780903156846762
3328.0,-0.0063309865072369576
3584.0,-0.008143450133502483
3840.0,-0.009378986433148384
4096.0,-0.0037821554578840733
4608.0,-0.0008946259040385485
5120.0,0.004197153262794018
5632.0,0.0029113723430782557
6144.0,9.094636334339157e-05
6656.0,0.005424524657428265
7168.0,0.011007636785507202
7680.0,0.007217458449304104
8192.0,-0.007298218086361885
9216.0,-0.004042807035148144
10240.0,-0.006752868182957172
11264.0,-0.010314041748642921
12288.0,0.0026938056107610464
13312.0,0.0050767287611961365
14336.0,-0.0039375824853777885
end
