version,3.0
numOfCh,1
type,point
parent_name,100-cuts
ch_type,1_1
kcount,1
numberNandB,1
brightnessNandB,1
carpet pos,0
pc,0
Time (ms),CH1 Auto-Correlation
1.0,0.07410664111375809
2.0,0.07307641208171844
3.0,0.07207267731428146
4.0,0.07108605653047562
5.0,0.07010582089424133
6.0,0.0691419169306755
7.0,0.06819239258766174
8.0,0.06726320087909698
9.0,0.0663658007979393
10.0,0.06548178941011429
11.0,0.064642995595932
12.0,0.06380689889192581
13.0,0.06297829002141953
14.0,0.06217028945684433
15.0,0.06133478879928589
16.0,0.06050664931535721
18.0,0.05890180915594101
20.0,0.05737394839525223
22.0,0.05589975044131279
24.0,0.05446353927254677
26.0,0.053033046424388885
28.0,0.051561255007982254
30.0,0.05006784200668335
32.0,0.048619017004966736
36.0,0.04597361013293266
40.0,0.04352942854166031
44.0,0.041175976395606995
48.0,0.03900991380214691
52.0,0.03700803965330124
56.0,0.03509378060698509
60.0,0.03309188038110733
64.0,0.03116089291870594
72.0,0.02802921086549759
80.0,0.025434087961912155
88.0,0.02309598959982395
96.0,0.020571546629071236
104.0,0.01817632094025612
112.0,0.01637582667171955
120.0,0.014711926691234112
128.0,0.013540421612560749
144.0,0.011508370749652386
160.0,0.00928212609142065
176.0,0.007440722081810236
192.0,0.0062006255611777306
208.0,0.004608227871358395
224.0,0.0025680335238575935
240.0,0.0006231620209291577
256.0,-0.0015348086599260569
288.0,-0.004425604362040758
320.0,-0.00462450971826911
352.0,-0.00523708201944828
384.0,-0.006036487873643637
416.0,-0.005329070147126913
448.0,-0.004513719584792852
480.0,-0.0036620923783630133
512.0,-0.003134393598884344
576.0,-0.0011986733879894018
640.0,0.0003161973727401346
704.0,0.0017268864903599024
768.0,-0.002203455427661538
832.0,-0.003964643459767103
896.0,-0.004725242033600807
960.0,-0.0026861708611249924
1024.0,0.00042313034646213055
1152.0,-0.0018471498042345047
1280.0,-0.0036149818915873766
1408.0,-0.0074612852185964584
1536.0,-0.005552709102630615
1664.0,0.00033305527176707983
1792.0,0.003993288613855839
1920.0,0.007491850759834051
2048.0,0.00983592588454485
2304.0,0.006216344423592091
2560.0,-0.0014374442398548126
2816.0,-0.0034781640861183405
3072.0,0.006237394642084837
3328.0,-0.0012355855433270335
3584.0,-0.00623159296810627
3840.0,-0.0005525948363356292
4096.0,-0.002620760351419449
4608.0,0.0007525027031078935
5120.0,0.0033584788907319307
5632.0,-0.002329152310267091
6144.0,-0.004130522254854441
6656.0,0.0032233132515102625
7168.0,0.0015285649569705129
7680.0,-0.0038131452165544033
8192.0,-0.0023853823076933622
9216.0,0.000800819369032979
10240.0,-0.0007182401604950428
11264.0,-0.0005374940228648484
12288.0,-0.0013735446846112609
13312.0,-0.004929071292281151
14336.0,-0.007257407996803522
end
