version,3.0
numOfCh,1
type,point
parent_name,100-cuts
ch_type,1_1
kcount,1
numberNandB,1
brightnessNandB,1
carpet pos,0
pc,0
Time (ms),CH1 Auto-Correlation
1.0,0.08096662908792496
2.0,0.0800112634897232
3.0,0.07906565070152283
4.0,0.07811535894870758
5.0,0.07717549055814743
6.0,0.07624807953834534
7.0,0.07532212883234024
8.0,0.07438720762729645
9.0,0.07346836477518082
10.0,0.07255299389362335
11.0,0.07162174582481384
12.0,0.07069835066795349
13.0,0.0697789117693901
14.0,0.06886868923902512
15.0,0.06798464804887772
16.0,0.0670948252081871
18.0,0.06532102823257446
20.0,0.0635652169585228
22.0,0.06180449202656746
24.0,0.06004628911614418
26.0,0.05834001675248146
28.0,0.05663655325770378
30.0,0.05494933947920799
32.0,0.05329475924372673
36.0,0.050124991685152054
40.0,0.047107528895139694
44.0,0.044290941208601
48.0,0.0417233482003212
52.0,0.03939713537693024
56.0,0.037252895534038544
60.0,0.035219457000494
64.0,0.033296942710876465
72.0,0.029759064316749573
80.0,0.0265500508248806
88.0,0.023842861875891685
96.0,0.021535838022828102
104.0,0.019538430497050285
112.0,0.017737308517098427
120.0,0.01570070907473564
128.0,0.013489230535924435
144.0,0.009778354316949844
160.0,0.0076589868403971195
176.0,0.007710765115916729
192.0,0.009032145142555237
208.0,0.010800099931657314
224.0,0.01310227531939745
240.0,0.014264635741710663
256.0,0.012619301676750183
288.0,0.007215303834527731
320.0,0.0036255698651075363
352.0,0.0006504679913632572
384.0,-0.004055324010550976
416.0,-0.008227784186601639
448.0,-0.00890225637704134
480.0,-0.00847679004073143
512.0,-0.011936468072235584
576.0,-0.01050803903490305
640.0,-0.00718902051448822
704.0,-0.005781901068985462
768.0,-0.0056352694518864155
832.0,-0.003968609031289816
896.0,-0.0040342239663004875
960.0,-0.005494401324540377
1024.0,-0.0013777066487818956
1152.0,0.006692508235573769
1280.0,0.008477355353534222
1408.0,0.0031182069797068834
1536.0,0.004209212958812714
1664.0,-0.0005078161484561861
1792.0,-0.002595122205093503
1920.0,-0.008884387090802193
2048.0,-0.007191385142505169
2304.0,-0.0019362783059477806
2560.0,-0.0006733637419529259
2816.0,0.003503011539578438
3072.0,0.004551697056740522
3328.0,-0.002723032608628273
3584.0,-0.012300276197493076
3840.0,-0.0020671943202614784
4096.0,0.010063627734780312
4608.0,-0.009400274604558945
5120.0,-0.004695499315857887
5632.0,0.0007755366968922317
6144.0,-0.008922968991100788
6656.0,0.007724614813923836
7168.0,0.008024755865335464
7680.0,-0.002546333009377122
8192.0,0.00318579631857574
9216.0,0.0015051596565172076
10240.0,0.0006925883353687823
11264.0,0.0003137323656119406
12288.0,-0.001006615930236876
13312.0,0.000867373077198863
14336.0,-0.0008487133891321719
end
