version,3.0
numOfCh,1
type,point
parent_name,100-cuts
ch_type,1_1
kcount,1
numberNandB,1
brightnessNandB,1
carpet pos,0
pc,0
Time (ms),CH1 Auto-Correlation
1.0,0.02426082082092762
2.0,0.02393622323870659
3.0,0.023618193343281746
4.0,0.023306285962462425
5.0,0.022994451224803925
6.0,0.022684572264552116
7.0,0.022385988384485245
8.0,0.02209320105612278
9.0,0.021799782291054726
10.0,0.021515274420380592
11.0,0.021245015785098076
12.0,0.020981432870030403
13.0,0.02072593942284584
14.0,0.020475855097174644
15.0,0.020230775699019432
16.0,0.019993409514427185
18.0,0.01952766627073288
20.0,0.01906229928135872
22.0,0.01862400770187378
24.0,0.01819193921983242
26.0,0.01776902563869953
28.0,0.017368007451295853
30.0,0.016987327486276627
32.0,0.016616038978099823
36.0,0.01590474508702755
40.0,0.015271316282451153
44.0,0.014701019041240215
48.0,0.014201313257217407
52.0,0.013786541298031807
56.0,0.013366678729653358
60.0,0.01292596198618412
64.0,0.012488681823015213
72.0,0.011615607887506485
80.0,0.010769562795758247
88.0,0.00985945574939251
96.0,0.008978980593383312
104.0,0.008207712322473526
112.0,0.007479959167540073
120.0,0.006800590083003044
128.0,0.006107396446168423
144.0,0.004769320134073496
160.0,0.0036652095150202513
176.0,0.002722544828429818
192.0,0.0020029423758387566
208.0,0.0016120782820507884
224.0,0.001357966335490346
240.0,0.001023132586851716
256.0,0.0005750308046117425
288.0,-5.219029480940662e-05
320.0,8.865875861374661e-05
352.0,-0.0001769965747371316
384.0,0.00030404917197301984
416.0,0.0010900531196966767
448.0,0.0017225835472345352
480.0,0.002152570988982916
512.0,0.0023710441309958696
576.0,0.0024650818668305874
640.0,0.0013567369896918535
704.0,0.0007606984581798315
768.0,0.0009392264764755964
832.0,0.0013613075716421008
896.0,0.001450975425541401
960.0,0.00046293623745441437
1024.0,2.9971342883072793e-05
1152.0,-0.001485210726968944
1280.0,-0.0010785304475575686
1408.0,0.0005292331916280091
1536.0,0.0004759154107887298
1664.0,-0.0004943761159665883
1792.0,0.0010317211272194982
1920.0,0.0005995951942168176
2048.0,-0.00013292560470290482
2304.0,-0.002210134407505393
2560.0,-0.002433546120300889
2816.0,-0.0019123172387480736
3072.0,-0.0019292478682473302
3328.0,-0.0008632525568827987
3584.0,0.0005378805217333138
3840.0,0.0025846867356449366
4096.0,-0.0023532670456916094
4608.0,7.283442391781136e-05
5120.0,0.0008948222384788096
5632.0,-0.0007743396563455462
6144.0,-0.0015648590633645654
6656.0,-0.0007546631968580186
7168.0,0.0011907644802704453
7680.0,0.0006499835290014744
8192.0,-0.000762235838919878
9216.0,-0.0017135064117610455
10240.0,-0.0027258272748440504
11264.0,-0.001048702746629715
12288.0,0.002427570289000869
13312.0,0.0035347486846148968
14336.0,0.0002839094668161124
end
