version,3.0
numOfCh,1
type,point
parent_name,100-cuts
ch_type,1_1
kcount,1
numberNandB,1
brightnessNandB,1
carpet pos,0
pc,0
Time (ms),CH1 Auto-Correlation
1.0,0.028156500309705734
2.0,0.02775108441710472
3.0,0.027342485263943672
4.0,0.02693849243223667
5.0,0.02653811126947403
6.0,0.026148924604058266
7.0,0.025761285796761513
8.0,0.025381164625287056
9.0,0.025009697303175926
10.0,0.024642102420330048
11.0,0.024282222613692284
12.0,0.02392396703362465
13.0,0.02357577160000801
14.0,0.02323492430150509
15.0,0.022890686988830566
16.0,0.022567540407180786
18.0,0.021929696202278137
20.0,0.021300898864865303
22.0,0.020681003108620644
24.0,0.020065754652023315
26.0,0.019461739808321
28.0,0.018864136189222336
30.0,0.01827358268201351
32.0,0.017703093588352203
36.0,0.016634942963719368
40.0,0.01565328612923622
44.0,0.01474530529230833
48.0,0.013937084935605526
52.0,0.013261750340461731
56.0,0.012648135423660278
60.0,0.012047328054904938
64.0,0.011468944139778614
72.0,0.010331042110919952
80.0,0.009272697381675243
88.0,0.008450773544609547
96.0,0.007898766547441483
104.0,0.007494424935430288
112.0,0.007193943951278925
120.0,0.007009325083345175
128.0,0.006714147049933672
144.0,0.005850350484251976
160.0,0.00511012552306056
176.0,0.004474074114114046
192.0,0.00416307570412755
208.0,0.0036840392276644707
224.0,0.0031376148108392954
240.0,0.002408003667369485
256.0,0.0017691388493403792
288.0,0.0004571880563162267
320.0,-0.0005288352840580046
352.0,-0.0009781265398487449
384.0,-0.0010445199441164732
416.0,-0.0016895463922992349
448.0,-0.0018172329291701317
480.0,-0.0021655214950442314
512.0,-0.002248664852231741
576.0,-0.0017905000131577253
640.0,-0.0006982858758419752
704.0,-0.00017763808136805892
768.0,-0.0007273505907505751
832.0,-0.0002443775883875787
896.0,0.00014051375910639763
960.0,-0.0018712221644818783
1024.0,-0.0013197315856814384
1152.0,0.0013935602037236094
1280.0,0.0013771157246083021
1408.0,0.001103181391954422
1536.0,-0.0001971385645447299
1664.0,-0.00097440998069942
1792.0,-0.0006361656705848873
1920.0,0.0022395686246454716
2048.0,0.002100777579471469
2304.0,0.0006283830152824521
2560.0,-0.0011532410280779004
2816.0,-0.0006657989579252899
3072.0,0.0002920356346294284
3328.0,0.001198980724439025
3584.0,0.0007185900467447937
3840.0,-0.0021965480409562588
4096.0,-0.0026971721090376377
4608.0,0.001863709301687777
5120.0,7.835312135284767e-05
5632.0,0.0023808919358998537
6144.0,-0.0016702759312465787
6656.0,-0.0004119772056583315
7168.0,-0.0018118171719834208
7680.0,-0.0010131463641300797
8192.0,-1.8202297724201344e-05
9216.0,-0.0015024545136839151
10240.0,0.0010535152396187186
11264.0,0.000366428546840325
12288.0,-0.00280331214889884
13312.0,-0.001726228860206902
14336.0,-0.0007738813292235136
end
