version,3.0
numOfCh,1
type,point
parent_name,100-cuts
ch_type,1_1
kcount,1
numberNandB,1
brightnessNandB,1
carpet pos,0
pc,0
Time (ms),CH1 Auto-Correlation
1.0,0.06465024501085281
2.0,0.0637541115283966
3.0,0.06288488209247589
4.0,0.06202145665884018
5.0,0.061176374554634094
6.0,0.06035566329956055
7.0,0.059562891721725464
8.0,0.05879594385623932
9.0,0.05804269015789032
10.0,0.05730248987674713
11.0,0.05656147375702858
12.0,0.05582975596189499
13.0,0.0550806000828743
14.0,0.05432486534118652
15.0,0.0535675473511219
16.0,0.052837684750556946
18.0,0.05150727555155754
20.0,0.05027075111865997
22.0,0.04911148548126221
24.0,0.04796735942363739
26.0,0.0468936488032341
28.0,0.04589467868208885
30.0,0.044913165271282196
32.0,0.04394274950027466
36.0,0.042062968015670776
40.0,0.04016275331377983
44.0,0.03834136947989464
48.0,0.036589737981557846
52.0,0.03491534665226936
56.0,0.033308252692222595
60.0,0.031725410372018814
64.0,0.030201725661754608
72.0,0.027515949681401253
80.0,0.025105010718107224
88.0,0.023092523217201233
96.0,0.021375328302383423
104.0,0.019959136843681335
112.0,0.018458986654877663
120.0,0.017236582934856415
128.0,0.016180075705051422
144.0,0.014617848210036755
160.0,0.013209362514317036
176.0,0.012034239247441292
192.0,0.010629070922732353
208.0,0.00946221686899662
224.0,0.00841152761131525
240.0,0.007484524045139551
256.0,0.007011235225945711
288.0,0.006191676016896963
320.0,0.0050043221563100815
352.0,0.0041663628071546555
384.0,0.004294364247471094
416.0,0.005193227902054787
448.0,0.005790057126432657
480.0,0.004177294205874205
512.0,0.0021908243652433157
576.0,-0.00276197143830359
640.0,-0.005462702363729477
704.0,-0.004589929711073637
768.0,-0.0023311686236411333
832.0,-0.0008547015022486448
896.0,0.0016815458657220006
960.0,0.005278581753373146
1024.0,0.0037435165140777826
1152.0,0.0015537131112068892
1280.0,-0.0006256539491005242
1408.0,0.001092790742404759
1536.0,-0.0010314973769709468
1664.0,-0.0037465135101228952
1792.0,-0.002237448003143072
1920.0,-0.004403718747198582
2048.0,-0.006102388259023428
2304.0,-0.007176575716584921
2560.0,-0.00155222462490201
2816.0,-0.0011842502281069756
3072.0,-6.87508872942999e-05
3328.0,0.00446673296391964
3584.0,-0.0011336918687447906
3840.0,-0.0001245911989826709
4096.0,0.0013692219508811831
4608.0,-0.0025832555256783962
5120.0,-0.006573888473212719
5632.0,-0.004403858911246061
6144.0,-0.006021780427545309
6656.0,-0.001320811454206705
7168.0,0.009469042532145977
7680.0,0.004245677962899208
8192.0,0.006296854466199875
9216.0,-0.0034490495454519987
10240.0,-0.0023471349850296974
11264.0,-0.0002076331729767844
12288.0,-0.0027336154598742723
13312.0,-0.001168979681096971
14336.0,0.00783219002187252
end
