version,3.0
numOfCh,1
type,point
parent_name,100-cuts
ch_type,1_1
kcount,1
numberNandB,1
brightnessNandB,1
carpet pos,0
pc,0
Time (ms),CH1 Auto-Correlation
1.0,0.034325551241636276
2.0,0.03389832749962807
3.0,0.03347259759902954
4.0,0.03305143117904663
5.0,0.032638825476169586
6.0,0.032226335257291794
7.0,0.03182120993733406
8.0,0.03143435716629028
9.0,0.031045375391840935
10.0,0.030657298862934113
11.0,0.030276337638497353
12.0,0.029897816479206085
13.0,0.029522866010665894
14.0,0.029163938015699387
15.0,0.028817132115364075
16.0,0.028466086834669113
18.0,0.027770385146141052
20.0,0.027078552171587944
22.0,0.026395361870527267
24.0,0.025742478668689728
26.0,0.025137700140476227
28.0,0.024550024420022964
30.0,0.023978449404239655
32.0,0.023403307422995567
36.0,0.022293630987405777
40.0,0.0212160162627697
44.0,0.020159127190709114
48.0,0.019152825698256493
52.0,0.01820683851838112
56.0,0.01725548505783081
60.0,0.016280261799693108
64.0,0.015323346480727196
72.0,0.013492044992744923
80.0,0.011707944795489311
88.0,0.010004973970353603
96.0,0.008660286664962769
104.0,0.007833962328732014
112.0,0.007165725342929363
120.0,0.006769497413188219
128.0,0.006379113998264074
144.0,0.005471137352287769
160.0,0.004397357814013958
176.0,0.003315888810902834
192.0,0.002761585172265768
208.0,0.0020360152702778578
224.0,0.0016107242554426193
240.0,0.001858913223259151
256.0,0.002079171594232321
288.0,0.0029176794923841953
320.0,0.0036481316201388836
352.0,0.004434157162904739
384.0,0.005660690367221832
416.0,0.006338463630527258
448.0,0.007139840163290501
480.0,0.006947156973183155
512.0,0.004802807234227657
576.0,0.001171482726931572
640.0,-6.5809322222776245e-06
704.0,0.00011264345812378451
768.0,0.0008456228533759713
832.0,0.0011799546191468835
896.0,-0.0015176426386460662
960.0,-0.00317809428088367
1024.0,-0.0029868909623473883
1152.0,-8.974696538643911e-05
1280.0,0.0016027813544496894
1408.0,-9.547750232741237e-05
1536.0,-0.001397718326188624
1664.0,0.0013048675609752536
1792.0,0.0017522282432764769
1920.0,0.001108936034142971
2048.0,-0.0023106306325644255
2304.0,0.00039577443385496736
2560.0,-0.0012760426616296172
2816.0,0.00025023752823472023
3072.0,0.0015360474353656173
3328.0,-0.00026666128542274237
3584.0,-0.00041274784598499537
3840.0,-0.0038023898378014565
4096.0,-0.0032013438176363707
4608.0,-0.0006584570510312915
5120.0,-0.0007285906467586756
5632.0,-0.001679713954217732
6144.0,-0.0012706101406365633
6656.0,-0.0010730390204116702
7168.0,-0.001224103500135243
7680.0,-0.002204720163717866
8192.0,0.002178347436711192
9216.0,-0.0016534676542505622
10240.0,-0.002077200450003147
11264.0,-0.0007956246263347566
12288.0,-2.9836099201929756e-05
13312.0,0.003262484911829233
14336.0,0.0022330007050186396
end
