version,3.0
numOfCh,1
type,point
parent_name,100-cuts
ch_type,1_1
kcount,1
numberNandB,1
brightnessNandB,1
carpet pos,0
pc,0
Time (ms),CH1 Auto-Correlation
1.0,0.029522491618990898
2.0,0.02915799245238304
3.0,0.02879522740840912
4.0,0.028438294306397438
5.0,0.028103185817599297
6.0,0.027771269902586937
7.0,0.027455609291791916
8.0,0.027136975899338722
9.0,0.026824133470654488
10.0,0.02652452513575554
11.0,0.02622925117611885
12.0,0.025936873629689217
13.0,0.025648195296525955
14.0,0.025360487401485443
15.0,0.025071945041418076
16.0,0.02479185163974762
18.0,0.024250322952866554
20.0,0.023735802620649338
22.0,0.023250291123986244
24.0,0.02279799059033394
26.0,0.02235952578485012
28.0,0.021932484582066536
30.0,0.021504098549485207
32.0,0.02108689583837986
36.0,0.02026117965579033
40.0,0.0194233525544405
44.0,0.018605289980769157
48.0,0.017819436267018318
52.0,0.017076145857572556
56.0,0.01636814884841442
60.0,0.015692129731178284
64.0,0.015012549236416817
72.0,0.013730163685977459
80.0,0.012580533511936665
88.0,0.011561178602278233
96.0,0.010709602385759354
104.0,0.009951847605407238
112.0,0.009141857735812664
120.0,0.008444776758551598
128.0,0.0077906097285449505
144.0,0.006645906250923872
160.0,0.005718618631362915
176.0,0.004811446648091078
192.0,0.00393456919118762
208.0,0.003408811055123806
224.0,0.0029635431710630655
240.0,0.0024139138404279947
256.0,0.00180536147672683
288.0,0.0009120845934376121
320.0,0.00041790283285081387
352.0,-0.0004223506839480251
384.0,-0.0008714356226846576
416.0,-0.0010112461168318987
448.0,-0.0008939449908211827
480.0,-0.0006511065294034779
512.0,-0.000566428410820663
576.0,-0.00046365329762920737
640.0,-0.0008153857779689133
704.0,-0.0006466390914283693
768.0,-0.0013053941074758768
832.0,-0.0005099401460029185
896.0,0.0010092939483001828
960.0,0.0012615511659532785
1024.0,0.0022779928985983133
1152.0,0.002854560501873493
1280.0,0.0017549550393596292
1408.0,-0.0008649561204947531
1536.0,-0.0035480097867548466
1664.0,-0.0035876305773854256
1792.0,-0.002196517074480653
1920.0,-0.002571708057075739
2048.0,-0.0008323470246978104
2304.0,0.00022395192354451865
2560.0,0.0002305197122041136
2816.0,0.0011608951026573777
3072.0,0.00058765709400177
3328.0,0.0001043215743266046
3584.0,-0.0005495145451277494
3840.0,0.0006532686529681087
4096.0,-0.0004334063269197941
4608.0,-0.002277345396578312
5120.0,0.0001986928255064413
5632.0,-0.003918328322470188
6144.0,6.841371941845864e-05
6656.0,-0.0015233632875606418
7168.0,0.003492288291454315
7680.0,-0.00200810213573277
8192.0,0.00341566139832139
9216.0,0.002771067665889859
10240.0,0.00036725716199725866
11264.0,-0.002192776184529066
12288.0,-0.00047152594197541475
13312.0,0.0013815633719787002
14336.0,-0.002392857801169157
end
