version,3.0
numOfCh,1
type,point
parent_name,100-cuts
ch_type,1_1
kcount,1
numberNandB,1
brightnessNandB,1
carpet pos,0
pc,0
Time (ms),CH1 Auto-Correlation
1.0,0.052134014666080475
2.0,0.051467448472976685
3.0,0.05081404373049736
4.0,0.05014811456203461
5.0,0.04950377717614174
6.0,0.04889095202088356
7.0,0.04827050492167473
8.0,0.047672782093286514
9.0,0.04707907512784004
10.0,0.04648001119494438
11.0,0.045896016061306
12.0,0.04532777518033981
13.0,0.04477083683013916
14.0,0.044209957122802734
15.0,0.04366331174969673
16.0,0.04313039034605026
18.0,0.0421176441013813
20.0,0.04114551097154617
22.0,0.04019735008478165
24.0,0.03926641494035721
26.0,0.03832601010799408
28.0,0.03738933801651001
30.0,0.036476150155067444
32.0,0.03561027720570564
36.0,0.033993449062108994
40.0,0.032421454787254333
44.0,0.03095053695142269
48.0,0.029603321105241776
52.0,0.028441179543733597
56.0,0.02723950892686844
60.0,0.026151495054364204
64.0,0.0252041257917881
72.0,0.023457864299416542
80.0,0.021803967654705048
88.0,0.020365940406918526
96.0,0.01901514083147049
104.0,0.01762615703046322
112.0,0.01609184220433235
120.0,0.01445759367197752
128.0,0.012851113453507423
144.0,0.009767433628439903
160.0,0.00737635837867856
176.0,0.005677974317222834
192.0,0.004996754694730043
208.0,0.00498361699283123
224.0,0.004526409786194563
240.0,0.003837580094113946
256.0,0.003827442415058613
288.0,0.003587963292375207
320.0,0.0045759608037769794
352.0,0.005589766427874565
384.0,0.00555993290618062
416.0,0.0040266430005431175
448.0,0.0031579583883285522
480.0,0.003678894368931651
512.0,0.0019029611721634865
576.0,0.0007102995296008885
640.0,0.0034449303057044744
704.0,0.0017655795672908425
768.0,0.0009980432223528624
832.0,5.8297639043303207e-05
896.0,0.0011686375364661217
960.0,0.0014590583741664886
1024.0,0.002287414623424411
1152.0,0.0013938037445768714
1280.0,-0.0031540854834020138
1408.0,-0.0064886403270065784
1536.0,-0.00811324454843998
1664.0,-0.002106812782585621
1792.0,0.00350808328948915
1920.0,0.003796655684709549
2048.0,-0.00029097418882884085
2304.0,-0.00037212303141131997
2560.0,0.0008100655395537615
2816.0,-0.001191090326756239
3072.0,-0.0016005670186132193
3328.0,-0.002890424570068717
3584.0,0.0016375778941437602
3840.0,0.011665581725537777
4096.0,0.0028461639303714037
4608.0,0.002754399785771966
5120.0,-0.005480118561536074
5632.0,-0.005740316119045019
6144.0,-0.0016346435295417905
6656.0,-0.0011919294483959675
7168.0,-0.004022590816020966
7680.0,0.0016464611981064081
8192.0,0.0037069120444357395
9216.0,-0.008511465042829514
10240.0,-0.0002964877348858863
11264.0,-0.003339010989293456
12288.0,0.0037087504751980305
13312.0,-0.0007917711045593023
14336.0,0.0020500586833804846
end
