version,3.0
numOfCh,1
type,point
parent_name,100-cuts
ch_type,1_1
kcount,1
numberNandB,1
brightnessNandB,1
carpet pos,0
pc,0
Time (ms),CH1 Auto-Correlation
1.0,0.02942509949207306
2.0,0.02903810329735279
3.0,0.028654886409640312
4.0,0.028266921639442444
5.0,0.027894679456949234
6.0,0.027529656887054443
7.0,0.02717946283519268
8.0,0.026826156303286552
9.0,0.026487888768315315
10.0,0.026152612641453743
11.0,0.025825927034020424
12.0,0.02549077942967415
13.0,0.025156434625387192
14.0,0.024828732013702393
15.0,0.024495435878634453
16.0,0.024173637852072716
18.0,0.02355116419494152
20.0,0.022944379597902298
22.0,0.022363517433404922
24.0,0.021793417632579803
26.0,0.021223517134785652
28.0,0.020672257989645004
30.0,0.020130395889282227
32.0,0.01962876319885254
36.0,0.01871785894036293
40.0,0.017821457237005234
44.0,0.01689053140580654
48.0,0.015988187864422798
52.0,0.015161831863224506
56.0,0.014387832954525948
60.0,0.013674777001142502
64.0,0.013025766238570213
72.0,0.011900622397661209
80.0,0.010888950899243355
88.0,0.009927593171596527
96.0,0.00910766888409853
104.0,0.00843491218984127
112.0,0.007846453227102757
120.0,0.007292184513062239
128.0,0.006844636052846909
144.0,0.006208860781043768
160.0,0.0058036926202476025
176.0,0.005500010214745998
192.0,0.005175561178475618
208.0,0.004817321430891752
224.0,0.004554889630526304
240.0,0.004784623626619577
256.0,0.005156141705811024
288.0,0.005862949416041374
320.0,0.0056147500872612
352.0,0.004509471822530031
384.0,0.003741171909496188
416.0,0.0030152075923979282
448.0,0.0030483475420624018
480.0,0.0030554470140486956
512.0,0.00269742077216506
576.0,0.0030230036936700344
640.0,0.0022132655140012503
704.0,0.0009924466721713543
768.0,0.0006432797526940703
832.0,0.000696015078574419
896.0,-0.0007611013716086745
960.0,-0.0033852732740342617
1024.0,-0.002920703496783972
1152.0,-0.0007700436981394887
1280.0,-0.0025557284243404865
1408.0,-0.0037491554394364357
1536.0,-0.0029805214144289494
1664.0,-0.0018056394765153527
1792.0,-0.0015923810424283147
1920.0,-0.001085685333237052
2048.0,-0.002005176153033972
2304.0,0.002018808852881193
2560.0,0.0027203133795410395
2816.0,0.0033563009928911924
3072.0,0.0009272448369301856
3328.0,-0.003300427459180355
3584.0,-0.0033955611288547516
3840.0,-0.004599157255142927
4096.0,-0.001799936406314373
4608.0,-0.001854421803727746
5120.0,0.0003616945759858936
5632.0,0.000875763944350183
6144.0,-0.004031063057482243
6656.0,-0.0034198767971247435
7168.0,-0.0013309166533872485
7680.0,-0.0018033517990261316
8192.0,0.002126188948750496
9216.0,0.001500888611190021
10240.0,0.002993066096678376
11264.0,0.002597993705421686
12288.0,0.0009541549952700734
13312.0,2.1375784854171798e-05
14336.0,-0.0059350235387682915
end
