version,3.0
numOfCh,1
type,point
parent_name,100-cuts
ch_type,1_1
kcount,1
numberNandB,1
brightnessNandB,1
carpet pos,0
pc,0
Time (ms),CH1 Auto-Correlation
1.0,0.07118619233369827
2.0,0.07030494511127472
3.0,0.06944629549980164
4.0,0.06861048936843872
5.0,0.06778641790151596
6.0,0.06697313487529755
7.0,0.06616517156362534
8.0,0.06538239866495132
9.0,0.06462341547012329
10.0,0.06389071047306061
11.0,0.06317302584648132
12.0,0.062488000839948654
13.0,0.061818964779376984
14.0,0.061158593744039536
15.0,0.060521554201841354
16.0,0.05991837754845619
18.0,0.0587119422852993
20.0,0.05754150077700615
22.0,0.05642946809530258
24.0,0.055398374795913696
26.0,0.05438283085823059
28.0,0.05341264232993126
30.0,0.05244731903076172
32.0,0.05153311789035797
36.0,0.049858201295137405
40.0,0.04817290976643562
44.0,0.04658251255750656
48.0,0.04519743472337723
52.0,0.04399602860212326
56.0,0.04287780076265335
60.0,0.041824616491794586
64.0,0.04080985486507416
72.0,0.03871742635965347
80.0,0.036711446940898895
88.0,0.034648679196834564
96.0,0.03251807764172554
104.0,0.030559923499822617
112.0,0.028944484889507294
120.0,0.02734578587114811
128.0,0.025994718074798584
144.0,0.023849833756685257
160.0,0.021866248920559883
176.0,0.02066734805703163
192.0,0.019606728106737137
208.0,0.018845755606889725
224.0,0.018605690449476242
240.0,0.018207456916570663
256.0,0.018038248643279076
288.0,0.01828213781118393
320.0,0.01749289780855179
352.0,0.016515040770173073
384.0,0.015117120929062366
416.0,0.014188795350492
448.0,0.013918804004788399
480.0,0.014768235385417938
512.0,0.01520436443388462
576.0,0.014398322440683842
640.0,0.012936223298311234
704.0,0.012124915607273579
768.0,0.01173888798803091
832.0,0.010702433064579964
896.0,0.010273206047713757
960.0,0.009594607166945934
1024.0,0.00866464339196682
1152.0,0.007145638111978769
1280.0,0.005554310046136379
1408.0,0.011267763562500477
1536.0,0.01170020829886198
1664.0,0.006654303055256605
1792.0,0.005904402583837509
1920.0,-0.0002987965999636799
2048.0,-0.0019839743617922068
2304.0,-0.0010114818578585982
2560.0,0.0010308224009349942
2816.0,-0.006637950427830219
3072.0,-0.005102707073092461
3328.0,-0.008383715525269508
3584.0,-0.00879541877657175
3840.0,-0.006277495063841343
4096.0,-0.005809113848954439
4608.0,-0.007864978164434433
5120.0,-0.0023739428725093603
5632.0,-0.0007632912020199001
6144.0,-0.0006886403425596654
6656.0,0.00021651717543136328
7168.0,0.0010797715513035655
7680.0,0.0010017907479777932
8192.0,-0.004872382152825594
9216.0,-0.010113740339875221
10240.0,-0.014020893722772598
11264.0,0.0019302044529467821
12288.0,-0.0013510696589946747
13312.0,0.003392305690795183
14336.0,-0.002868675859645009
end
