version,3.0
numOfCh,1
type,point
parent_name,100-cuts
ch_type,1_1
kcount,1
numberNandB,1
brightnessNandB,1
carpet pos,0
pc,0
Time (ms),CH1 Auto-Correlation
1.0,0.03600135073065758
2.0,0.03555626794695854
3.0,0.03510143980383873
4.0,0.03465387970209122
5.0,0.03422139212489128
6.0,0.0337977260351181
7.0,0.03341129422187805
8.0,0.03302835673093796
9.0,0.032652247697114944
10.0,0.03228594362735748
11.0,0.03191601485013962
12.0,0.03155742585659027
13.0,0.03120163455605507
14.0,0.030845308676362038
15.0,0.030494537204504013
16.0,0.030147720128297806
18.0,0.0294649675488472
20.0,0.028854740783572197
22.0,0.02823532186448574
24.0,0.027650844305753708
26.0,0.027074875310063362
28.0,0.026509853079915047
30.0,0.025968102738261223
32.0,0.02542829141020775
36.0,0.024319950491189957
40.0,0.023294826969504356
44.0,0.022346999496221542
48.0,0.021458303555846214
52.0,0.020639609545469284
56.0,0.019832270219922066
60.0,0.019018422812223434
64.0,0.018224259838461876
72.0,0.016786836087703705
80.0,0.01532299630343914
88.0,0.013982366770505905
96.0,0.01268745493143797
104.0,0.011580860242247581
112.0,0.010641095228493214
120.0,0.009730595164000988
128.0,0.008782017044723034
144.0,0.007163781672716141
160.0,0.0059143053367733955
176.0,0.005376176442950964
192.0,0.00509876012802124
208.0,0.004680698737502098
224.0,0.004346485715359449
240.0,0.003894275752827525
256.0,0.0033272875007241964
288.0,0.0015520325396209955
320.0,-0.0003420147695578635
352.0,-0.0016269281040877104
384.0,-0.002773307729512453
416.0,-0.003848928026854992
448.0,-0.005227838642895222
480.0,-0.005774182733148336
512.0,-0.0052310507744550705
576.0,-0.005693254992365837
640.0,-0.005643528886139393
704.0,-0.004067366477102041
768.0,-0.0032367135863751173
832.0,-0.0008527823956683278
896.0,0.0011692509287968278
960.0,0.0026598721742630005
1024.0,0.0016912234714254737
1152.0,0.0016958833439275622
1280.0,0.003422348527237773
1408.0,-0.00039537379052489996
1536.0,-0.0011026905849575996
1664.0,-0.002083196770399809
1792.0,-0.001975869294255972
1920.0,-0.0035779685713350773
2048.0,-0.0009853965602815151
2304.0,0.0024930830113589764
2560.0,0.0011078761890530586
2816.0,-0.002779644215479493
3072.0,-0.0024386695586144924
3328.0,0.0008730671834200621
3584.0,0.0017115655355155468
3840.0,-0.0006396088283509016
4096.0,-0.0037596444599330425
4608.0,-0.0017732444684952497
5120.0,-0.001484647742472589
5632.0,0.000885066285263747
6144.0,0.0014552196953445673
6656.0,-0.002538899192586541
7168.0,0.0012492594541981816
7680.0,5.439317465061322e-05
8192.0,0.0019314553355798125
9216.0,-0.0003687686985358596
10240.0,0.0013496093451976776
11264.0,-0.0020833194721490145
12288.0,-0.0007765822811052203
13312.0,-4.4982276449445635e-05
14336.0,0.0025755297392606735
end
