version,3.0
numOfCh,1
type,point
parent_name,100-cuts
ch_type,1_1
kcount,1
numberNandB,1
brightnessNandB,1
carpet pos,0
pc,0
Time (ms),CH1 Auto-Correlation
1.0,0.02100173570215702
2.0,0.02069997787475586
3.0,0.020409369841217995
4.0,0.020116986706852913
5.0,0.019823893904685974
6.0,0.019531425088644028
7.0,0.019240690395236015
8.0,0.018954528495669365
9.0,0.01867654174566269
10.0,0.018399512395262718
11.0,0.018123965710401535
12.0,0.017855506390333176
13.0,0.01759403385221958
14.0,0.017334062606096268
15.0,0.01707404851913452
16.0,0.01681191474199295
18.0,0.01631297916173935
20.0,0.01582893170416355
22.0,0.015363081358373165
24.0,0.014897627755999565
26.0,0.014427080750465393
28.0,0.01397737767547369
30.0,0.013536401093006134
32.0,0.013112093321979046
36.0,0.012287121266126633
40.0,0.011497155763208866
44.0,0.01077453512698412
48.0,0.010089201852679253
52.0,0.009457888081669807
56.0,0.00885127391666174
60.0,0.008256152272224426
64.0,0.007691587787121534
72.0,0.006706573069095612
80.0,0.005833517760038376
88.0,0.0051053790375590324
96.0,0.004497842397540808
104.0,0.003977695945650339
112.0,0.0034314850345253944
120.0,0.002914426615461707
128.0,0.002536751562729478
144.0,0.002210622886195779
160.0,0.0020284471102058887
176.0,0.0019404618069529533
192.0,0.0015147976810112596
208.0,0.0013134421315044165
224.0,0.0014035241911187768
240.0,0.001400871085934341
256.0,0.0012462263694033027
288.0,0.0004402025952003896
320.0,-2.111858339048922e-05
352.0,-0.00029963033739477396
384.0,-0.0010881945490837097
416.0,-0.0021259302739053965
448.0,-0.0030266253743320704
480.0,-0.00258323410525918
512.0,-0.001770129892975092
576.0,-0.00040780051494948566
640.0,-0.0011115925153717399
704.0,-0.0026829196140170097
768.0,-0.003275555092841387
832.0,-0.0016975711332634091
896.0,-0.002141175325959921
960.0,-0.0029938488733023405
1024.0,-0.002208511810749769
1152.0,-0.00010972093878081068
1280.0,-8.779232302913442e-05
1408.0,0.0005828995490446687
1536.0,0.0011439620284363627
1664.0,0.0008164313621819019
1792.0,0.0012474242830649018
1920.0,0.0004812361439689994
2048.0,0.0004708555934485048
2304.0,8.825111581245437e-05
2560.0,-0.0002331094437977299
2816.0,-0.0008156105759553611
3072.0,0.001023799879476428
3328.0,0.0015726640122011304
3584.0,-3.88096032111207e-06
3840.0,-0.001991645200178027
4096.0,-0.001153546734713018
4608.0,2.182308708142955e-05
5120.0,0.00024961045710369945
5632.0,-0.0006211778963916004
6144.0,-0.00011260509199928492
6656.0,-5.2160732593620196e-05
7168.0,0.0005883489502593875
7680.0,1.8905499018728733e-05
8192.0,-0.0006672754534520209
9216.0,0.0001007791724987328
10240.0,0.00019972605514340103
11264.0,-0.0006553307175636292
12288.0,0.0006864373572170734
13312.0,0.00018346239812672138
14336.0,0.00017352083523292094
end
