version,3.0
numOfCh,1
type,point
parent_name,100-cuts
ch_type,1_1
kcount,1
numberNandB,1
brightnessNandB,1
carpet pos,0
pc,0
Time (ms),CH1 Auto-Correlation
1.0,0.07178646326065063
2.0,0.07075123488903046
3.0,0.06974098831415176
4.0,0.0687168538570404
5.0,0.06771747022867203
6.0,0.06673546880483627
7.0,0.0657595545053482
8.0,0.0648220032453537
9.0,0.06389570236206055
10.0,0.06298328936100006
11.0,0.062118224799633026
12.0,0.06130635738372803
13.0,0.06048180162906647
14.0,0.05968168005347252
15.0,0.05889030918478966
16.0,0.058114249259233475
18.0,0.05656282231211662
20.0,0.055061452090740204
22.0,0.05365986004471779
24.0,0.05229106545448303
26.0,0.05101199820637703
28.0,0.04974672943353653
30.0,0.048520538955926895
32.0,0.0473114550113678
36.0,0.044891342520713806
40.0,0.042561355978250504
44.0,0.04030173644423485
48.0,0.03814765065908432
52.0,0.0361785814166069
56.0,0.034462302923202515
60.0,0.03278062865138054
64.0,0.031190352514386177
72.0,0.028625553473830223
80.0,0.02656136266887188
88.0,0.024793997406959534
96.0,0.023332422599196434
104.0,0.0219118632376194
112.0,0.020763618871569633
120.0,0.01956934481859207
128.0,0.018257012590765953
144.0,0.01563473418354988
160.0,0.01261108834296465
176.0,0.01000067126005888
192.0,0.008746381849050522
208.0,0.008557782508432865
224.0,0.00845590140670538
240.0,0.010133162140846252
256.0,0.011767464689910412
288.0,0.011921614408493042
320.0,0.010289045050740242
352.0,0.00919683650135994
384.0,0.008184719830751419
416.0,0.007887247949838638
448.0,0.004170372150838375
480.0,-0.00021185309742577374
512.0,-0.002272476442158222
576.0,-0.002818573033437133
640.0,-0.004197275266051292
704.0,-0.004145412240177393
768.0,-0.009947987273335457
832.0,-0.008709532208740711
896.0,-0.005804253276437521
960.0,-0.003931026440113783
1024.0,-0.0034753226209431887
1152.0,-0.00236524804495275
1280.0,-0.0005408501601777971
1408.0,-0.0017986322054639459
1536.0,-0.005106514319777489
1664.0,-0.0025348879862576723
1792.0,-0.00314130075275898
1920.0,-0.003771173767745495
2048.0,-0.0026129891630262136
2304.0,-0.006376092787832022
2560.0,-0.0035431915894150734
2816.0,-0.0025630744639784098
3072.0,0.0015216647880151868
3328.0,0.007395351771265268
3584.0,0.0039359494112432
3840.0,-0.0013942198129370809
4096.0,-0.005233427044004202
4608.0,0.008363327011466026
5120.0,0.00290227634832263
5632.0,-0.0017689011292532086
6144.0,-0.0052398452535271645
6656.0,0.0007706147735007107
7168.0,-0.013426844030618668
7680.0,0.003752774791792035
8192.0,0.005939276423305273
9216.0,0.0028177155181765556
10240.0,-0.0021330490708351135
11264.0,-0.008143448270857334
12288.0,-0.00535185681656003
13312.0,0.017904184758663177
14336.0,-0.0016416107537224889
end
