version,3.0
numOfCh,1
type,point
parent_name,100-cuts
ch_type,1_1
kcount,1
numberNandB,1
brightnessNandB,1
carpet pos,0
pc,0
Time (ms),CH1 Auto-Correlation
1.0,0.061400238424539566
2.0,0.06064121052622795
3.0,0.05989440903067589
4.0,0.05912772938609123
5.0,0.05838823691010475
6.0,0.05765575170516968
7.0,0.056943487375974655
8.0,0.056226104497909546
9.0,0.055521562695503235
10.0,0.0548410564661026
11.0,0.054151974618434906
12.0,0.053473252803087234
13.0,0.052802398800849915
14.0,0.05213514715433121
15.0,0.05147531256079674
16.0,0.05079745873808861
18.0,0.04948793724179268
20.0,0.04817938059568405
22.0,0.04693294316530228
24.0,0.045700665563344955
26.0,0.044521674513816833
28.0,0.043353550136089325
30.0,0.0421917662024498
32.0,0.041038788855075836
36.0,0.038839783519506454
40.0,0.03678052872419357
44.0,0.034909266978502274
48.0,0.033095646649599075
52.0,0.031371552497148514
56.0,0.02970459870994091
60.0,0.02807774394750595
64.0,0.026555772870779037
72.0,0.02376289665699005
80.0,0.021277625113725662
88.0,0.01923196017742157
96.0,0.017395248636603355
104.0,0.015621730126440525
112.0,0.013988240621984005
120.0,0.01256706565618515
128.0,0.011298175901174545
144.0,0.009214567020535469
160.0,0.007649383042007685
176.0,0.0068070124834775925
192.0,0.006574147846549749
208.0,0.006637380458414555
224.0,0.006782740354537964
240.0,0.007000946439802647
256.0,0.006779064424335957
288.0,0.004686325788497925
320.0,0.0011470798635855317
352.0,-0.001960054039955139
384.0,-0.00337932794354856
416.0,-0.004688053857535124
448.0,-0.004882028326392174
480.0,-0.004116198513656855
512.0,-0.002831343561410904
576.0,-0.0031240370590239763
640.0,-0.0057068164460361
704.0,-0.004607905633747578
768.0,0.0016152014723047614
832.0,0.00421165069565177
896.0,0.0005392631865106523
960.0,-0.001850624568760395
1024.0,-0.0005755583988502622
1152.0,7.979027577675879e-05
1280.0,-0.0013626692816615105
1408.0,-0.0036735013127326965
1536.0,0.0011452670441940427
1664.0,0.003138591069728136
1792.0,0.0037512273993343115
1920.0,0.0026953585911542177
2048.0,0.0022022859193384647
2304.0,-8.007649012142792e-05
2560.0,-0.0020696192514151335
2816.0,-0.002338610589504242
3072.0,0.0008043205598369241
3328.0,-0.0020066252909600735
3584.0,-0.004434074740856886
3840.0,-0.0059865741059184074
4096.0,-0.0021873600780963898
4608.0,-0.0013349046930670738
5120.0,0.006928988266736269
5632.0,-0.006054838187992573
6144.0,-0.002885267371311784
6656.0,0.00265360064804554
7168.0,0.004472559783607721
7680.0,-0.00532103655859828
8192.0,0.004532241262495518
9216.0,0.0023351898416876793
10240.0,-0.0020344918593764305
11264.0,0.0006971507682465017
12288.0,-0.005145560018718243
13312.0,-0.0008267774246633053
14336.0,-0.0004985076375305653
end
