version,3.0
numOfCh,1
type,point
parent_name,100-cuts
ch_type,1_1
kcount,1
numberNandB,1
brightnessNandB,1
carpet pos,0
pc,0
Time (ms),CH1 Auto-Correlation
1.0,0.07137961685657501
2.0,0.07040547579526901
3.0,0.06942368298768997
4.0,0.06845488399267197
5.0,0.0674954280257225
6.0,0.06653929501771927
7.0,0.06558722257614136
8.0,0.06466402858495712
9.0,0.06377926468849182
10.0,0.06289786845445633
11.0,0.062053143978118896
12.0,0.06119786947965622
13.0,0.06036306545138359
14.0,0.05955534428358078
15.0,0.058766137808561325
16.0,0.0580071285367012
18.0,0.056514255702495575
20.0,0.055041611194610596
22.0,0.05358739569783211
24.0,0.05215013027191162
26.0,0.05073779076337814
28.0,0.04933726787567139
30.0,0.04796027019619942
32.0,0.04662606492638588
36.0,0.04414073005318642
40.0,0.04178343713283539
44.0,0.03962316736578941
48.0,0.03759276866912842
52.0,0.035620272159576416
56.0,0.03372609615325928
60.0,0.03204672038555145
64.0,0.03047509491443634
72.0,0.02740498259663582
80.0,0.024410147219896317
88.0,0.021647363901138306
96.0,0.01930992864072323
104.0,0.01744796708226204
112.0,0.01575903221964836
120.0,0.014302548952400684
128.0,0.013081729412078857
144.0,0.01046830415725708
160.0,0.007641131058335304
176.0,0.005640285089612007
192.0,0.004943759646266699
208.0,0.003931829705834389
224.0,0.0027026794850826263
240.0,0.0008398612844757736
256.0,0.00014883271069265902
288.0,-0.002229760168120265
320.0,-0.004298727959394455
352.0,-0.006836569868028164
384.0,-0.009491943754255772
416.0,-0.008771373890340328
448.0,-0.007875844836235046
480.0,-0.00730912247672677
512.0,-0.007516810670495033
576.0,-0.00023540972324553877
640.0,0.004051966592669487
704.0,0.004413839429616928
768.0,0.004240516107529402
832.0,0.003494420787319541
896.0,0.0026150241028517485
960.0,0.0033846681471914053
1024.0,0.003457634011283517
1152.0,0.002469973172992468
1280.0,0.003766771173104644
1408.0,-0.009198863990604877
1536.0,-0.011133081279695034
1664.0,-0.007724148221313953
1792.0,0.0028752610087394714
1920.0,0.0005704134819097817
2048.0,0.0052545638754963875
2304.0,0.007986791431903839
2560.0,-0.0037458352744579315
2816.0,-0.0018687256379052997
3072.0,0.004275388550013304
3328.0,0.0007460587657988071
3584.0,-0.003739697625860572
3840.0,-0.00775302667170763
4096.0,0.004191775340586901
4608.0,0.0023435833863914013
5120.0,0.004434465430676937
5632.0,-0.003908116836100817
6144.0,-0.0042612021788954735
6656.0,-0.0030929753556847572
7168.0,0.00160884577780962
7680.0,-0.004789140075445175
8192.0,-0.0025661466643214226
9216.0,-0.0021661347709596157
10240.0,-0.00023483464610762894
11264.0,0.0007788575021550059
12288.0,0.0026770636904984713
13312.0,-0.00799386017024517
14336.0,0.005533523857593536
end
