version,3.0
numOfCh,1
type,point
parent_name,100-cuts
ch_type,1_1
kcount,1
numberNandB,1
brightnessNandB,1
carpet pos,0
pc,0
Time (ms),CH1 Auto-Correlation
1.0,0.04757712408900261
2.0,0.04693431407213211
3.0,0.04629768803715706
4.0,0.04566209390759468
5.0,0.045030899345874786
6.0,0.0444176159799099
7.0,0.04381544888019562
8.0,0.043203771114349365
9.0,0.04261315241456032
10.0,0.04203827679157257
11.0,0.04148039594292641
12.0,0.04094298183917999
13.0,0.04040727764368057
14.0,0.039868347346782684
15.0,0.03933872655034065
16.0,0.0388125441968441
18.0,0.03778102621436119
20.0,0.03677444905042648
22.0,0.03579484671354294
24.0,0.0348568893969059
26.0,0.033948078751564026
28.0,0.03306249901652336
30.0,0.03220587596297264
32.0,0.03135675564408302
36.0,0.0298155564814806
40.0,0.02841046266257763
44.0,0.027143854647874832
48.0,0.02596111223101616
52.0,0.024766243994235992
56.0,0.02360227145254612
60.0,0.02246290259063244
64.0,0.02127917669713497
72.0,0.019074877724051476
80.0,0.01737077161669731
88.0,0.01614953577518463
96.0,0.015282240696251392
104.0,0.014775858260691166
112.0,0.014322093687951565
120.0,0.013804995454847813
128.0,0.013032760471105576
144.0,0.011354079470038414
160.0,0.010278997011482716
176.0,0.009099763818085194
192.0,0.007095446810126305
208.0,0.0054902140982449055
224.0,0.004173398483544588
240.0,0.0028090968262404203
256.0,0.0015812236815690994
288.0,0.0005097882240079343
320.0,-0.0005603238241747022
352.0,-0.0016574518522247672
384.0,-0.001943494426086545
416.0,-0.000390640867408365
448.0,0.0013543077511712909
480.0,0.0022808294743299484
512.0,0.0019489486003294587
576.0,0.0012776153162121773
640.0,0.0019215741194784641
704.0,-0.0003773281059693545
768.0,-0.001645068870857358
832.0,-0.00035644235322251916
896.0,-0.0011513379868119955
960.0,-0.0009137499146163464
1024.0,-0.0017243745969608426
1152.0,-0.0016103704692795873
1280.0,-0.00020773625874426216
1408.0,0.0017383997328579426
1536.0,-0.0006908266223035753
1664.0,-0.003666312200948596
1792.0,-0.0017648848006501794
1920.0,0.0013533711899071932
2048.0,0.0039514582604169846
2304.0,0.000993763329461217
2560.0,-0.0010270728962495923
2816.0,-0.003553250338882208
3072.0,-0.0035585009027272463
3328.0,-0.0009696274646557868
3584.0,-0.0012483915779739618
3840.0,0.0002657875302247703
4096.0,-0.0012227133847773075
4608.0,-0.0012083022156730294
5120.0,-0.005054561886936426
5632.0,-7.23544872016646e-05
6144.0,8.568697376176715e-05
6656.0,0.0006944783381186426
7168.0,-0.0026441116351634264
7680.0,0.004383318591862917
8192.0,0.0026640803553164005
9216.0,-0.0025367357302457094
10240.0,0.0074880700558424
11264.0,0.0014776003081351519
12288.0,0.0007701381109654903
13312.0,-0.00381124927662313
14336.0,0.0023516896180808544
end
