version,3.0
numOfCh,1
type,point
parent_name,100-cuts
ch_type,1_1
kcount,1
numberNandB,1
brightnessNandB,1
carpet pos,0
pc,0
Time (ms),CH1 Auto-Correlation
1.0,0.09857285022735596
2.0,0.09747373312711716
3.0,0.09637991338968277
4.0,0.09529262036085129
5.0,0.09422363340854645
6.0,0.09318007528781891
7.0,0.09213722497224808
8.0,0.0910978838801384
9.0,0.09009312093257904
10.0,0.08908996731042862
11.0,0.08812230080366135
12.0,0.08714249730110168
13.0,0.08620189130306244
14.0,0.08523336797952652
15.0,0.08427421003580093
16.0,0.08333010226488113
18.0,0.08143360167741776
20.0,0.07956789433956146
22.0,0.07777094841003418
24.0,0.07602410763502121
26.0,0.07435815036296844
28.0,0.07272453606128693
30.0,0.07118513435125351
32.0,0.06964148581027985
36.0,0.0667329654097557
40.0,0.06381542980670929
44.0,0.06089206412434578
48.0,0.05807740241289139
52.0,0.05542072653770447
56.0,0.05284111946821213
60.0,0.05050264671444893
64.0,0.04843967407941818
72.0,0.04460239037871361
80.0,0.04071813076734543
88.0,0.03697481006383896
96.0,0.03349632769823074
104.0,0.030151374638080597
112.0,0.027123821899294853
120.0,0.02427695319056511
128.0,0.02178729511797428
144.0,0.017486728727817535
160.0,0.013818446546792984
176.0,0.010369344614446163
192.0,0.007159695029258728
208.0,0.004641578532755375
224.0,0.002105066319927573
240.0,-0.0002839456719812006
256.0,-0.0016662782290950418
288.0,-7.964636461110786e-05
320.0,0.0023064929991960526
352.0,0.0014421379892155528
384.0,0.0014549319166690111
416.0,-0.0011226899223402143
448.0,-0.00182110327295959
480.0,-0.001401615678332746
512.0,-0.0012990483082830906
576.0,-9.524921915726736e-05
640.0,0.004187641199678183
704.0,0.006450967397540808
768.0,0.004069510847330093
832.0,0.0012837604153901339
896.0,-7.890989945735782e-05
960.0,-0.002188857179135084
1024.0,0.0011684121564030647
1152.0,0.008497501723468304
1280.0,0.012102890759706497
1408.0,0.006824510172009468
1536.0,-0.006740899290889502
1664.0,-0.008205722086131573
1792.0,-0.001523071201518178
1920.0,0.003339300397783518
2048.0,-0.006915125995874405
2304.0,-0.0058733150362968445
2560.0,-0.0004046160029247403
2816.0,-0.013334291987121105
3072.0,-0.005394700914621353
3328.0,-0.006795903202146292
3584.0,-0.010529814288020134
3840.0,-0.003648823592811823
4096.0,-0.0013101790100336075
4608.0,-0.004157473798841238
5120.0,0.00028342544101178646
5632.0,0.0008930923650041223
6144.0,0.01250428706407547
6656.0,0.009856118820607662
7168.0,0.006410875823348761
7680.0,-0.0003628449921961874
8192.0,0.003924937918782234
9216.0,-0.008573983795940876
10240.0,-0.010153871029615402
11264.0,-3.936005668947473e-05
12288.0,0.004256513901054859
13312.0,8.31776560517028e-05
14336.0,-0.008676303550601006
end
