version,3.0
numOfCh,1
type,point
parent_name,100-cuts
ch_type,1_1
kcount,1
numberNandB,1
brightnessNandB,1
carpet pos,0
pc,0
Time (ms),CH1 Auto-Correlation
1.0,0.024586763232946396
2.0,0.024239154532551765
3.0,0.02390100061893463
4.0,0.02356509119272232
5.0,0.023229241371154785
6.0,0.022892672568559647
7.0,0.022565368562936783
8.0,0.02224048785865307
9.0,0.021925071254372597
10.0,0.021606916561722755
11.0,0.02129075676202774
12.0,0.020975790917873383
13.0,0.02065742015838623
14.0,0.020347142592072487
15.0,0.020035624504089355
16.0,0.01973148249089718
18.0,0.019145116209983826
20.0,0.01857076585292816
22.0,0.018006667494773865
24.0,0.017462559044361115
26.0,0.016923287883400917
28.0,0.01640353351831436
30.0,0.015911782160401344
32.0,0.015470870770514011
36.0,0.014676484279334545
40.0,0.013914528302848339
44.0,0.013144101947546005
48.0,0.012396459467709064
52.0,0.011680788360536098
56.0,0.011018160730600357
60.0,0.010344249196350574
64.0,0.009709328413009644
72.0,0.008502696640789509
80.0,0.007380427792668343
88.0,0.006449108012020588
96.0,0.005646310281008482
104.0,0.0049393922090530396
112.0,0.004307255148887634
120.0,0.0038555769715458155
128.0,0.0034166420809924603
144.0,0.0023809950798749924
160.0,0.0013944149250164628
176.0,0.0007110523292794824
192.0,0.0004130943270865828
208.0,0.0004405797808431089
224.0,0.0005625830381177366
240.0,0.0005985448369756341
256.0,0.0003545962390489876
288.0,-0.0006303816335275769
320.0,-0.0013216236839070916
352.0,-0.0016066652024164796
384.0,-0.001323134871199727
416.0,-0.0013953234301880002
448.0,-0.0013440046459436417
480.0,-0.0007478507468476892
512.0,0.00021639307669829577
576.0,0.0007330063381232321
640.0,0.0009486159542575479
704.0,0.0006702737300656736
768.0,0.0010336427949368954
832.0,0.0014490443281829357
896.0,0.001571440021507442
960.0,0.00043211347656324506
1024.0,-0.0005402916576713324
1152.0,0.0025882916525006294
1280.0,0.003592915367335081
1408.0,0.00239689857698977
1536.0,-0.00032070442102849483
1664.0,0.0005784343811683357
1792.0,0.0003020685107912868
1920.0,0.0013486469397321343
2048.0,0.0007767085335217416
2304.0,0.001532772439531982
2560.0,0.002032993361353874
2816.0,-6.747348379576579e-05
3072.0,0.0002281589841004461
3328.0,0.0005589082720689476
3584.0,-0.0005689042154699564
3840.0,-0.00040121213532984257
4096.0,-0.00022661629191134125
4608.0,-0.0008120563579723239
5120.0,-0.0009418637491762638
5632.0,0.0015310751041397452
6144.0,-0.000808533513918519
6656.0,3.083284536842257e-05
7168.0,-0.0017955002840608358
7680.0,0.0004743907193187624
8192.0,0.0007751721423119307
9216.0,-0.0009301805403083563
10240.0,-0.0014301948249340057
11264.0,-0.001047228928655386
12288.0,-0.003916633781045675
13312.0,-0.001444476773031056
14336.0,-0.004149709362536669
end
