version,3.0
numOfCh,1
type,point
parent_name,100-cuts
ch_type,1_1
kcount,1
numberNandB,1
brightnessNandB,1
carpet pos,0
pc,0
Time (ms),CH1 Auto-Correlation
1.0,0.08329766988754272
2.0,0.08218298107385635
3.0,0.0810818150639534
4.0,0.08000828325748444
5.0,0.07890771329402924
6.0,0.07781065255403519
7.0,0.07673520594835281
8.0,0.07564668357372284
9.0,0.07456954568624496
10.0,0.07351333647966385
11.0,0.07246977835893631
12.0,0.07140250504016876
13.0,0.07034070044755936
14.0,0.06930258125066757
15.0,0.0682840347290039
16.0,0.0672631710767746
18.0,0.0652705729007721
20.0,0.06333746761083603
22.0,0.061471231281757355
24.0,0.05966254696249962
26.0,0.057919785380363464
28.0,0.056240763515233994
30.0,0.054630547761917114
32.0,0.053096186369657516
36.0,0.050235629081726074
40.0,0.047518178820610046
44.0,0.04490576311945915
48.0,0.04255884513258934
52.0,0.04033038020133972
56.0,0.0383438915014267
60.0,0.03661718964576721
64.0,0.0350661538541317
72.0,0.03234775736927986
80.0,0.02964281290769577
88.0,0.02698647230863571
96.0,0.024265654385089874
104.0,0.022025803104043007
112.0,0.02054666355252266
120.0,0.01958824135363102
128.0,0.01897440478205681
144.0,0.018185297027230263
160.0,0.016799133270978928
176.0,0.013965355232357979
192.0,0.010388602502644062
208.0,0.006845416966825724
224.0,0.003804451087489724
240.0,0.001176101271994412
256.0,-0.0010159857338294387
288.0,-0.004440699703991413
320.0,-0.008227275684475899
352.0,-0.009629209525883198
384.0,-0.008159669116139412
416.0,-0.007483689580112696
448.0,-0.008006114512681961
480.0,-0.007198296952992678
512.0,-0.006519079674035311
576.0,-0.0029469679575413465
640.0,0.0004994056071154773
704.0,0.006097013596445322
768.0,0.010898568667471409
832.0,0.006860439199954271
896.0,0.003368729492649436
960.0,0.0011177361011505127
1024.0,0.0018883298616856337
1152.0,-7.970388105604798e-05
1280.0,0.007580617442727089
1408.0,0.0037394058890640736
1536.0,-0.0026659646537154913
1664.0,-0.010529603809118271
1792.0,-0.007982861250638962
1920.0,-0.00045497631072066724
2048.0,0.006273701786994934
2304.0,-0.005402133334428072
2560.0,-0.010925541631877422
2816.0,0.002128147752955556
3072.0,0.0019706450402736664
3328.0,-0.004333802964538336
3584.0,0.000875220459420234
3840.0,-0.002948955399915576
4096.0,0.001515980577096343
4608.0,0.005094026681035757
5120.0,-0.00016761689039412886
5632.0,-0.0019339481368660927
6144.0,0.0019097900949418545
6656.0,-0.0033920996356755495
7168.0,0.0012957025319337845
7680.0,-0.001471581170335412
8192.0,0.00037121467175893486
9216.0,-0.0005312985740602016
10240.0,0.002647848566994071
11264.0,0.0015752030303701758
12288.0,-0.01479160413146019
13312.0,-0.015704305842518806
14336.0,0.009785224683582783
end
