version,3.0
numOfCh,1
type,point
parent_name,100-cuts
ch_type,1_1
kcount,1
numberNandB,1
brightnessNandB,1
carpet pos,0
pc,0
Time (ms),CH1 Auto-Correlation
1.0,0.13843181729316711
2.0,0.1373542845249176
3.0,0.13628795742988586
4.0,0.13521848618984222
5.0,0.13415470719337463
6.0,0.13309377431869507
7.0,0.1320222169160843
8.0,0.13097921013832092
9.0,0.1299567073583603
10.0,0.12896811962127686
11.0,0.1279950886964798
12.0,0.1270166039466858
13.0,0.12604740262031555
14.0,0.1250757873058319
15.0,0.12411008775234222
16.0,0.12315928190946579
18.0,0.12126833945512772
20.0,0.11941216886043549
22.0,0.11762016266584396
24.0,0.11595595628023148
26.0,0.11433900147676468
28.0,0.11281082034111023
30.0,0.11137469857931137
32.0,0.11000943928956985
36.0,0.10740704089403152
40.0,0.10486464947462082
44.0,0.10231973230838776
48.0,0.09982254356145859
52.0,0.09726836532354355
56.0,0.09468753635883331
60.0,0.09231655299663544
64.0,0.0900692269206047
72.0,0.08584987372159958
80.0,0.08181114494800568
88.0,0.07790786772966385
96.0,0.07449206709861755
104.0,0.07154040038585663
112.0,0.06873129308223724
120.0,0.06586664170026779
128.0,0.06314852833747864
144.0,0.057953204959630966
160.0,0.05269394442439079
176.0,0.04830522462725639
192.0,0.044708024710416794
208.0,0.04222112149000168
224.0,0.04060561582446098
240.0,0.03933946043252945
256.0,0.03894398361444473
288.0,0.03647783771157265
320.0,0.03439851105213165
352.0,0.03342300280928612
384.0,0.031846728175878525
416.0,0.03284425288438797
448.0,0.03428979963064194
480.0,0.03384801372885704
512.0,0.031873054802417755
576.0,0.023487910628318787
640.0,0.019178148359060287
704.0,0.012327009811997414
768.0,0.012814216315746307
832.0,0.009586269967257977
896.0,0.006595864426344633
960.0,0.0006974625284783542
1024.0,-0.00510290777310729
1152.0,-0.014355207793414593
1280.0,-0.00938654225319624
1408.0,-0.004340339917689562
1536.0,-0.012990983203053474
1664.0,-0.019264474511146545
1792.0,-0.013568096794188023
1920.0,-0.01738666743040085
2048.0,-0.02069993130862713
2304.0,-0.00497484439983964
2560.0,0.0012690728763118386
2816.0,0.007066219113767147
3072.0,0.0114354956895113
3328.0,0.01604742929339409
3584.0,0.011165141128003597
3840.0,0.014561534859240055
4096.0,0.010083826258778572
4608.0,-0.004962063394486904
5120.0,-0.023855026811361313
5632.0,-0.014528196305036545
6144.0,-0.003263767808675766
6656.0,0.012548347935080528
7168.0,0.003976067062467337
7680.0,-0.006457983050495386
8192.0,-0.030001742765307426
9216.0,-0.02277533896267414
10240.0,0.011455278843641281
11264.0,-0.00889880582690239
12288.0,-0.005601365119218826
13312.0,0.0010504090460017323
14336.0,0.005181403830647469
end
