version,3.0
numOfCh,1
type,point
parent_name,100-cuts
ch_type,1_1
kcount,1
numberNandB,1
brightnessNandB,1
carpet pos,0
pc,0
Time (ms),CH1 Auto-Correlation
1.0,0.12022779136896133
2.0,0.11881434917449951
3.0,0.11742336302995682
4.0,0.11604799330234528
5.0,0.11466977745294571
6.0,0.11331832408905029
7.0,0.11196097731590271
8.0,0.11059954762458801
9.0,0.10926955938339233
10.0,0.10792677104473114
11.0,0.1065836027264595
12.0,0.1052846610546112
13.0,0.10400856286287308
14.0,0.10278069972991943
15.0,0.10164795815944672
16.0,0.10053795576095581
18.0,0.09826019406318665
20.0,0.09605623781681061
22.0,0.09389346092939377
24.0,0.09178151935338974
26.0,0.08965948224067688
28.0,0.08754053711891174
30.0,0.08547841012477875
32.0,0.0835481733083725
36.0,0.07986106723546982
40.0,0.07651351392269135
44.0,0.07336051762104034
48.0,0.07035083323717117
52.0,0.06755810230970383
56.0,0.06501398980617523
60.0,0.06292473524808884
64.0,0.06096568703651428
72.0,0.057205792516469955
80.0,0.05312974750995636
88.0,0.04910598322749138
96.0,0.0459834523499012
104.0,0.04364030435681343
112.0,0.04148806259036064
120.0,0.03944990411400795
128.0,0.03826750069856644
144.0,0.03482980281114578
160.0,0.030692918226122856
176.0,0.026508262380957603
192.0,0.02387271821498871
208.0,0.022308865562081337
224.0,0.019803805276751518
240.0,0.017834031954407692
256.0,0.01583161950111389
288.0,0.011205285787582397
320.0,0.007491420488804579
352.0,0.00394045002758503
384.0,-0.0012464653700590134
416.0,-0.005455850623548031
448.0,-0.0044119106605648994
480.0,-0.0010238800896331668
512.0,-7.210941112134606e-05
576.0,0.002985904458910227
640.0,0.006701009348034859
704.0,0.006098428275436163
768.0,0.002188023179769516
832.0,0.002826311159878969
896.0,0.0013458061730489135
960.0,-0.002842274960130453
1024.0,-0.008134696632623672
1152.0,-0.01204810943454504
1280.0,-0.014241516590118408
1408.0,-0.006600681692361832
1536.0,-0.0025898925960063934
1664.0,-0.009358511306345463
1792.0,-0.01248110644519329
1920.0,-0.013688580133020878
2048.0,-0.008677860721945763
2304.0,0.0018983272602781653
2560.0,0.007620918098837137
2816.0,0.0034992946311831474
3072.0,0.005823458544909954
3328.0,-0.006452877074480057
3584.0,-0.010756523348391056
3840.0,-0.008317306637763977
4096.0,0.006042211316525936
4608.0,0.0044289580546319485
5120.0,0.006273128092288971
5632.0,0.004044848494231701
6144.0,-0.01584465801715851
6656.0,-0.004755081608891487
7168.0,-0.003957570996135473
7680.0,-0.0011041216785088181
8192.0,0.006287652999162674
9216.0,-0.0011355893220752478
10240.0,-0.013525204733014107
11264.0,0.0036955352406948805
12288.0,-0.001686571747995913
13312.0,-0.002735375426709652
14336.0,0.006855611689388752
end
