version,3.0
numOfCh,1
type,point
parent_name,100-cuts
ch_type,1_1
kcount,1
numberNandB,1
brightnessNandB,1
carpet pos,0
pc,0
Time (ms),CH1 Auto-Correlation
1.0,0.02810196578502655
2.0,0.02776278555393219
3.0,0.02743443474173546
4.0,0.027114002034068108
5.0,0.026797134429216385
6.0,0.026487594470381737
7.0,0.02617833763360977
8.0,0.025870686396956444
9.0,0.02555929683148861
10.0,0.02526085264980793
11.0,0.024980034679174423
12.0,0.02470688708126545
13.0,0.024442896246910095
14.0,0.02418535202741623
15.0,0.023936381563544273
16.0,0.023691339418292046
18.0,0.023194853216409683
20.0,0.022700345143675804
22.0,0.02222304977476597
24.0,0.021756935864686966
26.0,0.021298345178365707
28.0,0.020852534100413322
30.0,0.020432855933904648
32.0,0.020036324858665466
36.0,0.0192442387342453
40.0,0.018479038029909134
44.0,0.017758909612894058
48.0,0.017093924805521965
52.0,0.01647704839706421
56.0,0.015933804214000702
60.0,0.015438877046108246
64.0,0.014952432364225388
72.0,0.014080186374485493
80.0,0.013330320827662945
88.0,0.012693938799202442
96.0,0.01220348384231329
104.0,0.011765417642891407
112.0,0.011222435161471367
120.0,0.010558411478996277
128.0,0.009855611249804497
144.0,0.008596795611083508
160.0,0.007779499515891075
176.0,0.007047589402645826
192.0,0.006205883342772722
208.0,0.0056826467625796795
224.0,0.005389428697526455
240.0,0.005371497478336096
256.0,0.005135867744684219
288.0,0.0048473915085196495
320.0,0.00465159397572279
352.0,0.0037897401489317417
384.0,0.0032724195625633
416.0,0.003372772363945842
448.0,0.003338027512654662
480.0,0.002661301288753748
512.0,0.0019253658829256892
576.0,0.000286180671537295
640.0,-0.0008927692542783916
704.0,-0.0015104886842891574
768.0,-0.00019749892817344517
832.0,0.0005124717717990279
896.0,4.299263309803791e-06
960.0,-0.0010847537778317928
1024.0,-0.0007780847372487187
1152.0,0.000652001763228327
1280.0,-0.0008178514544852078
1408.0,-0.0006159571348689497
1536.0,-0.0015336861833930016
1664.0,-0.0010555743938311934
1792.0,-0.001470749732106924
1920.0,-0.0026086929719895124
2048.0,-0.0017839452484622598
2304.0,0.0003926749050151557
2560.0,-0.0007984668482095003
2816.0,-0.0017535557271912694
3072.0,-0.0013207000447437167
3328.0,-0.003195790806785226
3584.0,-0.003251107642427087
3840.0,-0.0011260092724114656
4096.0,0.0008785206009633839
4608.0,-0.00399793079122901
5120.0,-0.002484619850292802
5632.0,0.002552956575527787
6144.0,0.0016708876937627792
6656.0,0.00272216834127903
7168.0,0.00011806019028881565
7680.0,-0.0018339346861466765
8192.0,-0.0004925171378999949
9216.0,0.0008292978745885193
10240.0,-0.0024385282304137945
11264.0,0.001666668220423162
12288.0,0.003657661145552993
13312.0,0.0003132350102532655
14336.0,-0.005466621369123459
end
