version,3.0
numOfCh,1
type,point
parent_name,100-cuts
ch_type,1_1
kcount,1
numberNandB,1
brightnessNandB,1
carpet pos,0
pc,0
Time (ms),CH1 Auto-Correlation
1.0,0.027465039864182472
2.0,0.027115896344184875
3.0,0.02677549608051777
4.0,0.026431486010551453
5.0,0.02609037607908249
6.0,0.02575133740901947
7.0,0.02541467547416687
8.0,0.025080982595682144
9.0,0.024751342833042145
10.0,0.024426447227597237
11.0,0.024104921147227287
12.0,0.023793354630470276
13.0,0.0234877560287714
14.0,0.023192856460809708
15.0,0.022921547293663025
16.0,0.022644340991973877
18.0,0.02208922989666462
20.0,0.021545719355344772
22.0,0.02101864479482174
24.0,0.020513489842414856
26.0,0.020030269399285316
28.0,0.019557250663638115
30.0,0.01911008544266224
32.0,0.01867862232029438
36.0,0.017821023240685463
40.0,0.016977176070213318
44.0,0.016140274703502655
48.0,0.015336115844547749
52.0,0.014586948789656162
56.0,0.013889377005398273
60.0,0.013204863294959068
64.0,0.012543998658657074
72.0,0.011331371031701565
80.0,0.010243150405585766
88.0,0.009325108490884304
96.0,0.008384203538298607
104.0,0.007390187121927738
112.0,0.006470798049122095
120.0,0.005688968580216169
128.0,0.004989159759134054
144.0,0.003740321844816208
160.0,0.002901693107560277
176.0,0.00220980285666883
192.0,0.0020065184216946363
208.0,0.0021856194362044334
224.0,0.0026338642928749323
240.0,0.0034543261863291264
256.0,0.004033628851175308
288.0,0.00451392587274313
320.0,0.004019236192107201
352.0,0.002909247064962983
384.0,0.0019597888458520174
416.0,0.0014788740081712604
448.0,0.00047322516911663115
480.0,-0.0005317265749908984
512.0,-0.0012908346252515912
576.0,-0.0014751298585906625
640.0,-0.0006419154233299196
704.0,-0.0007955912733450532
768.0,-0.0007993342005647719
832.0,-0.0009908216306939721
896.0,-0.0006440728320740163
960.0,-0.0009874817915260792
1024.0,-0.0007748450734652579
1152.0,0.0020287195220589638
1280.0,0.0025607284624129534
1408.0,0.0005505717708729208
1536.0,-0.0024119107984006405
1664.0,-0.003406042233109474
1792.0,-0.002454041037708521
1920.0,-0.0017967910971492529
2048.0,-0.001852294779382646
2304.0,-0.0007249061018228531
2560.0,0.001481120940297842
2816.0,0.0005326790269464254
3072.0,0.00129988812841475
3328.0,-0.0001523364189779386
3584.0,-0.000771754770539701
3840.0,0.0011881607351824641
4096.0,-0.00020960881374776363
4608.0,-0.0009077377035282552
5120.0,-0.00036006810842081904
5632.0,0.0003075612476095557
6144.0,0.0034511014819145203
6656.0,0.0027698685880750418
7168.0,-0.0014577350812032819
7680.0,-0.0009488286450505257
8192.0,-0.004515818785876036
9216.0,0.0002776183537207544
10240.0,0.0018771442119032145
11264.0,-0.0033975420519709587
12288.0,2.9040968001936562e-05
13312.0,-0.0007456302409991622
14336.0,-0.006983065977692604
end
