version,3.0
numOfCh,1
type,point
parent_name,100-cuts
ch_type,1_1
kcount,1
numberNandB,1
brightnessNandB,1
carpet pos,0
pc,0
Time (ms),CH1 Auto-Correlation
1.0,0.053762391209602356
2.0,0.052963823080062866
3.0,0.05219268798828125
4.0,0.051422007381916046
5.0,0.050676632672548294
6.0,0.049947530031204224
7.0,0.049201447516679764
8.0,0.04844670370221138
9.0,0.047697920352220535
10.0,0.04697423055768013
11.0,0.046260032802820206
12.0,0.04554983973503113
13.0,0.04484062269330025
14.0,0.04415926709771156
15.0,0.04350113496184349
16.0,0.04284268617630005
18.0,0.041566576808691025
20.0,0.04034576937556267
22.0,0.039167098701000214
24.0,0.038036786019802094
26.0,0.036923471838235855
28.0,0.03583832085132599
30.0,0.03479651361703873
32.0,0.033788733184337616
36.0,0.031882960349321365
40.0,0.03008309192955494
44.0,0.028493115678429604
48.0,0.027177130803465843
52.0,0.025970952585339546
56.0,0.024809885770082474
60.0,0.02371259219944477
64.0,0.022632058709859848
72.0,0.02077561989426613
80.0,0.018969805911183357
88.0,0.01760692335665226
96.0,0.016588564962148666
104.0,0.015644719824194908
112.0,0.01499125361442566
120.0,0.014300133101642132
128.0,0.013395186513662338
144.0,0.011733952909708023
160.0,0.009935076348483562
176.0,0.008734195493161678
192.0,0.007711037527769804
208.0,0.006702873855829239
224.0,0.005670937243849039
240.0,0.004972483031451702
256.0,0.004760731942951679
288.0,0.004223627969622612
320.0,0.002271791687235236
352.0,-5.5456581321777776e-05
384.0,-0.0017199403373524547
416.0,-0.002567470073699951
448.0,-0.002698929514735937
480.0,-0.003301231889054179
512.0,-0.003936425317078829
576.0,-0.004184176214039326
640.0,-0.006105930078774691
704.0,-0.008506560698151588
768.0,-0.006844093091785908
832.0,-0.005187727976590395
896.0,-0.0030250714626163244
960.0,-0.0015998545568436384
1024.0,-0.0009849158814176917
1152.0,0.002589563839137554
1280.0,0.0025202587712556124
1408.0,0.004835694562643766
1536.0,0.006862766109406948
1664.0,0.004437096416950226
1792.0,0.00022426787472795695
1920.0,-0.0023933707270771265
2048.0,-0.0008588583441451192
2304.0,-0.0001379314053338021
2560.0,-0.000632499111816287
2816.0,0.0004950642469339073
3072.0,0.0018260562792420387
3328.0,0.0016041419003158808
3584.0,-0.0019883946515619755
3840.0,-0.006352344527840614
4096.0,-0.005497980862855911
4608.0,0.0011050895554944873
5120.0,-0.0049634710885584354
5632.0,-0.004481630865484476
6144.0,0.003879372961819172
6656.0,-0.0028718169778585434
7168.0,-0.003453335491940379
7680.0,-0.0014394549652934074
8192.0,-0.004240943118929863
9216.0,0.00038417664472945035
10240.0,0.0008000551024451852
11264.0,0.0039060618728399277
12288.0,-0.0034370901994407177
13312.0,0.003932978492230177
14336.0,-0.0012119208695366979
end
