version,3.0
numOfCh,1
type,point
parent_name,100-cuts
ch_type,1_1
kcount,1
numberNandB,1
brightnessNandB,1
carpet pos,0
pc,0
Time (ms),CH1 Auto-Correlation
1.0,0.05911111459136009
2.0,0.058308083564043045
3.0,0.057535912841558456
4.0,0.05681515857577324
5.0,0.056119468063116074
6.0,0.055435337126255035
7.0,0.05476352572441101
8.0,0.05410344526171684
9.0,0.05346373841166496
10.0,0.052830737084150314
11.0,0.052208151668310165
12.0,0.05162716656923294
13.0,0.05106719955801964
14.0,0.050485674291849136
15.0,0.049923479557037354
16.0,0.04937906563282013
18.0,0.04835858941078186
20.0,0.04742487147450447
22.0,0.04650965332984924
24.0,0.04558134078979492
26.0,0.044686492532491684
28.0,0.043767523020505905
30.0,0.04287891089916229
32.0,0.042016640305519104
36.0,0.040309078991413116
40.0,0.03881530463695526
44.0,0.03742412477731705
48.0,0.03611788898706436
52.0,0.034939371049404144
56.0,0.033785607665777206
60.0,0.032641228288412094
64.0,0.03155600279569626
72.0,0.029571479186415672
80.0,0.027745626866817474
88.0,0.025976264849305153
96.0,0.024410231038928032
104.0,0.022966284304857254
112.0,0.02164209820330143
120.0,0.020311264321208
128.0,0.01909765414893627
144.0,0.016817988827824593
160.0,0.014609421603381634
176.0,0.012267662212252617
192.0,0.009676184505224228
208.0,0.007080540060997009
224.0,0.004405217710882425
240.0,0.002666222397238016
256.0,0.0015282711246982217
288.0,0.000907025532796979
320.0,0.0014681409811601043
352.0,0.00023205573961604387
384.0,-0.0021361815743148327
416.0,-0.0031980571802705526
448.0,-0.002090852940455079
480.0,-0.0017525780713185668
512.0,-0.0015706719132140279
576.0,-0.0021447541657835245
640.0,-0.001017629518173635
704.0,-1.7522074813314248e-06
768.0,-0.0006916351267136633
832.0,-0.00341867096722126
896.0,-0.0065940143540501595
960.0,-0.006466657854616642
1024.0,-0.002741537755355239
1152.0,-0.0019477527821436524
1280.0,-0.0016944585368037224
1408.0,0.002335035242140293
1536.0,0.004150693770498037
1664.0,0.001773129333741963
1792.0,0.005504562985152006
1920.0,0.007300816010683775
2048.0,0.005194744095206261
2304.0,-0.005996557883918285
2560.0,-0.0056698317639529705
2816.0,-0.014092903584241867
3072.0,-0.005237058270722628
3328.0,0.001243708305992186
3584.0,0.0037223633844405413
3840.0,-0.0002367361739743501
4096.0,-1.6190278984140605e-05
4608.0,-0.0026735139545053244
5120.0,0.00407133623957634
5632.0,0.005315396003425121
6144.0,0.0009202065411955118
6656.0,0.0005025487625971437
7168.0,0.001542824087664485
7680.0,-0.005137525964528322
8192.0,-0.005859473254531622
9216.0,-0.0025391660165041685
10240.0,0.0027555017732083797
11264.0,0.005620688199996948
12288.0,0.0018343970878049731
13312.0,-0.007555099204182625
14336.0,-0.01025913655757904
end
