version,3.0
numOfCh,1
type,point
parent_name,100-cuts
ch_type,1_1
kcount,1
numberNandB,1
brightnessNandB,1
carpet pos,0
pc,0
Time (ms),CH1 Auto-Correlation
1.0,0.05890374630689621
2.0,0.0581095814704895
3.0,0.05732230469584465
4.0,0.05655348300933838
5.0,0.05578868091106415
6.0,0.05502377077937126
7.0,0.05426541715860367
8.0,0.05352959781885147
9.0,0.052825555205345154
10.0,0.05213603749871254
11.0,0.051452960819005966
12.0,0.05077130347490311
13.0,0.050112418830394745
14.0,0.04948564991354942
15.0,0.04886070638895035
16.0,0.04823734983801842
18.0,0.04700711742043495
20.0,0.04580279439687729
22.0,0.04464611038565636
24.0,0.04352192208170891
26.0,0.042417071759700775
28.0,0.041304316371679306
30.0,0.04017472267150879
32.0,0.039054639637470245
36.0,0.036980971693992615
40.0,0.035042304545640945
44.0,0.03312639147043228
48.0,0.03128960356116295
52.0,0.029646940529346466
56.0,0.028159158304333687
60.0,0.026855625212192535
64.0,0.02573910355567932
72.0,0.023662690073251724
80.0,0.021653443574905396
88.0,0.019883597269654274
96.0,0.018009591847658157
104.0,0.016260437667369843
112.0,0.014763245359063148
120.0,0.013542862609028816
128.0,0.012425336055457592
144.0,0.010165907442569733
160.0,0.007508129347115755
176.0,0.004406819585710764
192.0,0.0022140382789075375
208.0,0.0006211156724020839
224.0,-0.0005415999912656844
240.0,-0.0011214975966140628
256.0,-0.0016205422580242157
288.0,-0.0016364159528166056
320.0,-0.002092630136758089
352.0,-0.0013453514548018575
384.0,-0.00037224599509499967
416.0,-0.0013135820627212524
448.0,-0.003222154453396797
480.0,-0.004131815861910582
512.0,-0.005024260375648737
576.0,-0.006357351318001747
640.0,-0.00259806658141315
704.0,0.0011382068041712046
768.0,0.0013237219536677003
832.0,0.0038478998467326164
896.0,0.0037717127706855536
960.0,0.0035141254775226116
1024.0,0.0008849066216498613
1152.0,-0.004941889550536871
1280.0,-0.004825034644454718
1408.0,-0.0038737207651138306
1536.0,-0.006552477367222309
1664.0,-0.005348559003323317
1792.0,0.0009504622430540621
1920.0,0.006770098116248846
2048.0,-0.00026822215295396745
2304.0,-0.005017758347094059
2560.0,-0.0009344046120531857
2816.0,0.005220859311521053
3072.0,-0.005431998986750841
3328.0,-0.005813899450004101
3584.0,-0.001794292125850916
3840.0,0.0010137214558199048
4096.0,-0.0015445431927219033
4608.0,0.0006883799214847386
5120.0,0.0022736783139407635
5632.0,0.006613395642489195
6144.0,-0.0010040891356766224
6656.0,0.001615489716641605
7168.0,-0.003459885949268937
7680.0,-0.00010493363515706733
8192.0,-0.00048334692837670445
9216.0,-0.004960269667208195
10240.0,0.004038695711642504
11264.0,0.0020792335271835327
12288.0,-0.0005140348221175373
13312.0,-0.005275585688650608
14336.0,0.003706860588863492
end
