version,3.0
numOfCh,1
type,point
parent_name,fe81d_0dot08-0dot01
ch_type,1_1
kcount,1
numberNandB,1
brightnessNandB,1
carpet pos,0
pc,0
Time (ms),CH1 Auto-Correlation
1.0,0.0429234504699707
2.0,0.042675018310546875
3.0,0.042437534779310226
4.0,0.04220212996006012
5.0,0.04197515919804573
6.0,0.04174157977104187
7.0,0.04150506481528282
8.0,0.04126941040158272
9.0,0.04104350507259369
10.0,0.040825918316841125
11.0,0.04061371460556984
12.0,0.04040823131799698
13.0,0.04019995033740997
14.0,0.03998897597193718
15.0,0.039773158729076385
16.0,0.0395662896335125
18.0,0.039175380021333694
20.0,0.03878086805343628
22.0,0.03838006407022476
24.0,0.03798740729689598
26.0,0.03759997338056564
28.0,0.03721371293067932
30.0,0.03682553023099899
32.0,0.03644637018442154
36.0,0.03573284670710564
40.0,0.03505609929561615
44.0,0.03437771648168564
48.0,0.03371376171708107
52.0,0.03309519961476326
56.0,0.0324922651052475
60.0,0.031897399574518204
64.0,0.03129196539521217
72.0,0.030150553211569786
80.0,0.02907436341047287
88.0,0.028131984174251556
96.0,0.027278199791908264
104.0,0.026467014104127884
112.0,0.02570478431880474
120.0,0.025012074038386345
128.0,0.024358626455068588
144.0,0.023060312494635582
160.0,0.02188875898718834
176.0,0.020893940702080727
192.0,0.02006540820002556
208.0,0.01924760453402996
224.0,0.01839074306190014
240.0,0.017476124688982964
256.0,0.01674109511077404
288.0,0.015398586168885231
320.0,0.014732171781361103
352.0,0.014192882925271988
384.0,0.013037263415753841
416.0,0.011238370090723038
448.0,0.00898127630352974
480.0,0.006864167749881744
512.0,0.005721046589314938
576.0,0.003240046324208379
640.0,0.0017410505097359419
704.0,0.0008631187956780195
768.0,-0.00020554341608658433
832.0,-0.0010193322086706758
896.0,-0.0016576525522395968
960.0,-0.001830949098803103
1024.0,-0.001519380253739655
1152.0,0.001353537430986762
1280.0,0.004228827077895403
1408.0,0.004828591365367174
1536.0,0.004753231070935726
1664.0,0.005790257826447487
1792.0,0.004294690676033497
1920.0,0.005102794151753187
2048.0,0.008075587451457977
2304.0,0.0050447434186935425
2560.0,0.006244472227990627
2816.0,0.0038439107593148947
3072.0,0.002005853923037648
3328.0,0.0019064121879637241
3584.0,0.0005474648787640035
3840.0,0.001135831349529326
4096.0,0.0013590003363788128
4608.0,-0.009531756862998009
5120.0,-0.0037964112125337124
5632.0,-0.0012180422199890018
6144.0,-0.0122984005138278
6656.0,-0.00937593076378107
7168.0,-0.007982909679412842
7680.0,-0.0032790862023830414
8192.0,-0.005083027295768261
end
