version,3.0
numOfCh,1
type,point
parent_name,fe81d_0dot08-0dot01
ch_type,1_1
kcount,1
numberNandB,1
brightnessNandB,1
carpet pos,0
pc,0
Time (ms),CH1 Auto-Correlation
1.0,0.032049939036369324
2.0,0.03180590644478798
3.0,0.03156740590929985
4.0,0.031328633427619934
5.0,0.031102465465664864
6.0,0.030875608325004578
7.0,0.03065931797027588
8.0,0.03044378198683262
9.0,0.0302289891988039
10.0,0.030025895684957504
11.0,0.02983272448182106
12.0,0.029642943292856216
13.0,0.029452119022607803
14.0,0.029262976720929146
15.0,0.0290753785520792
16.0,0.028890149667859077
18.0,0.028528060764074326
20.0,0.028186023235321045
22.0,0.027868598699569702
24.0,0.0275467149913311
26.0,0.02723078243434429
28.0,0.02692997083067894
30.0,0.02664661966264248
32.0,0.026370100677013397
36.0,0.025807343423366547
40.0,0.0252059418708086
44.0,0.024598393589258194
48.0,0.024024980142712593
52.0,0.023487513884902
56.0,0.02299029752612114
60.0,0.0225463155657053
64.0,0.02214093506336212
72.0,0.021388819441199303
80.0,0.020633235573768616
88.0,0.019921069964766502
96.0,0.019312016665935516
104.0,0.018711401149630547
112.0,0.01809011399745941
120.0,0.017476186156272888
128.0,0.016900377348065376
144.0,0.015803923830389977
160.0,0.01493134256452322
176.0,0.014276698231697083
192.0,0.013816208578646183
208.0,0.01339639164507389
224.0,0.013287834823131561
240.0,0.013118828646838665
256.0,0.01286713220179081
288.0,0.012259929440915585
320.0,0.012021913193166256
352.0,0.011707755737006664
384.0,0.011470010504126549
416.0,0.010887756943702698
448.0,0.00990250799804926
480.0,0.008898929692804813
512.0,0.007767381612211466
576.0,0.006326497066766024
640.0,0.005780338309705257
704.0,0.0064741079695522785
768.0,0.0067937616258859634
832.0,0.005705154966562986
896.0,0.005667945370078087
960.0,0.006028337404131889
1024.0,0.005514065269380808
1152.0,0.005583861842751503
1280.0,0.005432804115116596
1408.0,0.00442932965233922
1536.0,0.0029338777530938387
1664.0,0.0018092329846695065
1792.0,0.0024206708185374737
1920.0,0.0038678909186273813
2048.0,0.0029939794912934303
2304.0,0.0024690357968211174
2560.0,-0.0004642613639589399
2816.0,-6.438053969759494e-05
3072.0,-0.003663334297016263
3328.0,-0.004194565583020449
3584.0,-0.005551471374928951
3840.0,-0.006257020402699709
4096.0,-0.004568273667246103
4608.0,-0.002686906373128295
5120.0,-0.0019466091180220246
5632.0,-0.007959317415952682
6144.0,-0.012566476128995419
6656.0,-0.007861100137233734
7168.0,-0.007207978051155806
7680.0,-0.006372783798724413
8192.0,-0.0057153040543198586
end
