version,3.0
numOfCh,1
type,point
parent_name,fe81d_0dot08-0dot01
ch_type,1_1
kcount,1
numberNandB,1
brightnessNandB,1
carpet pos,0
pc,0
Time (ms),CH1 Auto-Correlation
1.0,0.03584549203515053
2.0,0.03554191067814827
3.0,0.03524309769272804
4.0,0.03495260700583458
5.0,0.034669119864702225
6.0,0.03438947722315788
7.0,0.034113459289073944
8.0,0.03384339064359665
9.0,0.0335710346698761
10.0,0.03329957649111748
11.0,0.033030759543180466
12.0,0.03276427090167999
13.0,0.032504186034202576
14.0,0.032249778509140015
15.0,0.03199581056833267
16.0,0.031747005879879
18.0,0.03125685825943947
20.0,0.03076094202697277
22.0,0.030277281999588013
24.0,0.029811564832925797
26.0,0.029343128204345703
28.0,0.028871264308691025
30.0,0.028423773124814034
32.0,0.027999036014080048
36.0,0.027201801538467407
40.0,0.026447884738445282
44.0,0.02571874111890793
48.0,0.025013813748955727
52.0,0.02429424598813057
56.0,0.02360766939818859
60.0,0.02293902263045311
64.0,0.022271011024713516
72.0,0.021020494401454926
80.0,0.019733574241399765
88.0,0.018564904108643532
96.0,0.01747274026274681
104.0,0.016525357961654663
112.0,0.015629148110747337
120.0,0.014764850959181786
128.0,0.013989356346428394
144.0,0.01273643784224987
160.0,0.01176324300467968
176.0,0.010939396917819977
192.0,0.010000539943575859
208.0,0.009083680808544159
224.0,0.008146621286869049
240.0,0.00699563417583704
256.0,0.005965675693005323
288.0,0.004449881613254547
320.0,0.0039317975752055645
352.0,0.003709269454702735
384.0,0.003642456140369177
416.0,0.003290247404947877
448.0,0.0026479072403162718
480.0,0.0022383718751370907
512.0,0.002887559588998556
576.0,0.004668326582759619
640.0,0.00437388988211751
704.0,0.003663213225081563
768.0,0.003410905133932829
832.0,0.0036735269241034985
896.0,0.0034886717330664396
960.0,0.0021477153059095144
1024.0,0.0013560621300712228
1152.0,0.00043541990453377366
1280.0,0.0003280208329670131
1408.0,0.0016696042148396373
1536.0,0.0002724779478739947
1664.0,-0.0003457763814367354
1792.0,-0.0027792821638286114
1920.0,-0.0036847214214503765
2048.0,-0.0021030972711741924
2304.0,-0.0018100013257935643
2560.0,-0.0020635011605918407
2816.0,-0.002661119680851698
3072.0,-0.005505668930709362
3328.0,-0.0018840327393263578
3584.0,-0.00014688314695376903
3840.0,-0.0012355251237750053
4096.0,0.0006106888176873326
4608.0,0.005353305023163557
5120.0,0.003806573338806629
5632.0,0.0003513625997584313
6144.0,-0.0013836212456226349
6656.0,-0.0019750434439629316
7168.0,-0.0013424436328932643
7680.0,7.230150367831811e-05
8192.0,-0.00203263433650136
end
