version,3.0
numOfCh,1
type,point
parent_name,fe81d_0dot08-0dot01
ch_type,1_1
kcount,1
numberNandB,1
brightnessNandB,1
carpet pos,0
pc,0
Time (ms),CH1 Auto-Correlation
1.0,0.037294626235961914
2.0,0.037024565041065216
3.0,0.036758966743946075
4.0,0.03650607541203499
5.0,0.036257144063711166
6.0,0.03600876405835152
7.0,0.03576381504535675
8.0,0.03551667183637619
9.0,0.03527427837252617
10.0,0.035023391246795654
11.0,0.03477848321199417
12.0,0.03453979641199112
13.0,0.03430454432964325
14.0,0.03408297151327133
15.0,0.03386140614748001
16.0,0.033642951399087906
18.0,0.03320568427443504
20.0,0.032801784574985504
22.0,0.03242390230298042
24.0,0.03207274526357651
26.0,0.031732652336359024
28.0,0.031399160623550415
30.0,0.031061165034770966
32.0,0.030749624595046043
36.0,0.030214516445994377
40.0,0.02973409928381443
44.0,0.029263613745570183
48.0,0.028782475739717484
52.0,0.02831115387380123
56.0,0.027875354513525963
60.0,0.027446841821074486
64.0,0.027015816420316696
72.0,0.02609066478908062
80.0,0.025209490209817886
88.0,0.024336963891983032
96.0,0.02361009269952774
104.0,0.0229790136218071
112.0,0.022432619705796242
120.0,0.021871689707040787
128.0,0.021191522479057312
144.0,0.01980300061404705
160.0,0.01866849698126316
176.0,0.017553482204675674
192.0,0.016481107100844383
208.0,0.015720369294285774
224.0,0.015060001984238625
240.0,0.014458814635872841
256.0,0.013762397691607475
288.0,0.012345707044005394
320.0,0.010261843912303448
352.0,0.008455819450318813
384.0,0.0075964550487697124
416.0,0.007940013892948627
448.0,0.008259989321231842
480.0,0.008178160525858402
512.0,0.007690835278481245
576.0,0.00656609982252121
640.0,0.005907631479203701
704.0,0.006109798792749643
768.0,0.006435517221689224
832.0,0.006978802382946014
896.0,0.006882683373987675
960.0,0.0064848801121115685
1024.0,0.006973669398576021
1152.0,0.0076711405999958515
1280.0,0.007034252863377333
1408.0,0.006233901716768742
1536.0,0.0035618040710687637
1664.0,0.0008989623747766018
1792.0,-0.0011378403287380934
1920.0,-0.001878384267911315
2048.0,-0.0008009066805243492
2304.0,-0.002195139415562153
2560.0,-0.005989092402160168
2816.0,-0.0049231513403356075
3072.0,-0.007688450627028942
3328.0,-0.008766517043113708
3584.0,-0.007866132073104382
3840.0,-0.007731386926025152
4096.0,-0.008866185322403908
4608.0,-0.006629768293350935
5120.0,-0.0058333976194262505
5632.0,-0.00339132035151124
6144.0,-0.0009196153259836137
6656.0,-9.668582788435742e-05
7168.0,0.0013524998212233186
7680.0,0.00948422309011221
8192.0,0.004121456760913134
end
