version,3.0
numOfCh,1
type,point
parent_name,fe81d_0dot08-0dot01
ch_type,1_1
kcount,1
numberNandB,1
brightnessNandB,1
carpet pos,0
pc,0
Time (ms),CH1 Auto-Correlation
1.0,0.03249981254339218
2.0,0.032225556671619415
3.0,0.031960584223270416
4.0,0.031702883541584015
5.0,0.031441524624824524
6.0,0.031183311715722084
7.0,0.0309193953871727
8.0,0.03065599873661995
9.0,0.030397988855838776
10.0,0.03014828823506832
11.0,0.029903125017881393
12.0,0.02966233529150486
13.0,0.02941448614001274
14.0,0.029167072847485542
15.0,0.028923625126481056
16.0,0.028677785769104958
18.0,0.028198400512337685
20.0,0.0277266688644886
22.0,0.027280142530798912
24.0,0.02681959979236126
26.0,0.02636970952153206
28.0,0.02593301422894001
30.0,0.025493040680885315
32.0,0.025055790320038795
36.0,0.02426149509847164
40.0,0.02355753630399704
44.0,0.022898849099874496
48.0,0.022242460399866104
52.0,0.021592456847429276
56.0,0.02098711021244526
60.0,0.020465187728405
64.0,0.019978391006588936
72.0,0.019092027097940445
80.0,0.01815437339246273
88.0,0.01714838668704033
96.0,0.016193509101867676
104.0,0.015293858014047146
112.0,0.014449073001742363
120.0,0.013726525008678436
128.0,0.013060263358056545
144.0,0.012081663124263287
160.0,0.011189492419362068
176.0,0.010244428180158138
192.0,0.009384749457240105
208.0,0.008485697209835052
224.0,0.007592316251248121
240.0,0.006840389687567949
256.0,0.0062611643224954605
288.0,0.005491570103913546
320.0,0.004518959205597639
352.0,0.004500142298638821
384.0,0.004212084226310253
416.0,0.004219955764710903
448.0,0.004171461332589388
480.0,0.0037370012141764164
512.0,0.003490477567538619
576.0,0.0037117397878319025
640.0,0.0031724395230412483
704.0,0.001953381346538663
768.0,0.00046314127393998206
832.0,0.00016041062190197408
896.0,0.00036576358252204955
960.0,-0.0002685834770090878
1024.0,-0.0011964410077780485
1152.0,0.00034002127358689904
1280.0,0.0004286981711629778
1408.0,0.00035368528915569186
1536.0,0.0012253880267962813
1664.0,0.002342200605198741
1792.0,0.002463409211486578
1920.0,0.004163216799497604
2048.0,0.005882136058062315
2304.0,0.002960686571896076
2560.0,0.0038532125763595104
2816.0,0.0044073560275137424
3072.0,0.00042829153244383633
3328.0,-0.0019273346988484263
3584.0,-0.0019762511365115643
3840.0,0.003719255793839693
4096.0,0.005610613618046045
4608.0,0.00241145514883101
5120.0,0.0011495148064568639
5632.0,3.3354606898683414e-07
6144.0,-0.005167271941900253
6656.0,6.146726809674874e-05
7168.0,-0.0023682669270783663
7680.0,-0.0031395747791975737
8192.0,-0.00898232962936163
end
