version,3.0
numOfCh,1
type,point
parent_name,fe81d_0dot08-0dot01
ch_type,1_1
kcount,1
numberNandB,1
brightnessNandB,1
carpet pos,0
pc,0
Time (ms),CH1 Auto-Correlation
1.0,0.04726196080446243
2.0,0.04618014022707939
3.0,0.0451723113656044
4.0,0.04411564767360687
5.0,0.04315446317195892
6.0,0.04218335449695587
7.0,0.0411447212100029
8.0,0.0401618592441082
9.0,0.03909115120768547
10.0,0.03806442767381668
11.0,0.037763435393571854
12.0,0.037494827061891556
13.0,0.037219397723674774
14.0,0.03694849833846092
15.0,0.03668265789747238
16.0,0.036417827010154724
18.0,0.035942960530519485
20.0,0.035533636808395386
22.0,0.03512328863143921
24.0,0.03472993150353432
26.0,0.03438383340835571
28.0,0.034039516001939774
30.0,0.033662132918834686
32.0,0.033344756811857224
36.0,0.032561901956796646
40.0,0.03164634481072426
44.0,0.0307485181838274
48.0,0.030008835718035698
52.0,0.029383428394794464
56.0,0.02874654345214367
60.0,0.02813003957271576
64.0,0.027518942952156067
72.0,0.0263535063713789
80.0,0.025449715554714203
88.0,0.024400807917118073
96.0,0.023304367437958717
104.0,0.02242886833846569
112.0,0.02193811535835266
120.0,0.02132538892328739
128.0,0.02077767252922058
144.0,0.018682356923818588
160.0,0.017415808513760567
176.0,0.016427600756287575
192.0,0.015329578891396523
208.0,0.01426136214286089
224.0,0.013372194021940231
240.0,0.012932934798300266
256.0,0.012817989103496075
288.0,0.012321063317358494
320.0,0.012156028300523758
352.0,0.01101568341255188
384.0,0.008399474434554577
416.0,0.005251026712357998
448.0,0.0021506850607693195
480.0,0.0001557303185109049
512.0,-0.0005469293682835996
576.0,-0.0008089719340205193
640.0,-0.001123556517995894
704.0,-0.0019106423715129495
768.0,-0.0034159363713115454
832.0,-0.0037404412869364023
896.0,-0.0014161671278998256
960.0,0.0019618519581854343
1024.0,0.0031905765645205975
1152.0,0.002720420015975833
1280.0,0.0004268600605428219
1408.0,-0.006514185108244419
1536.0,-0.008101471699774265
1664.0,-0.008867303840816021
1792.0,-0.010479382239282131
1920.0,-0.0071766129694879055
2048.0,-0.003848134307190776
2304.0,-0.0010617907391861081
2560.0,-0.0013456400483846664
2816.0,0.0019447588128969073
3072.0,0.0031492686830461025
3328.0,-0.0026981625705957413
3584.0,-0.009757344610989094
3840.0,-0.008039085194468498
4096.0,-0.0015423770528286695
4608.0,-0.014096696861088276
5120.0,0.007186615373939276
5632.0,0.010741122998297215
6144.0,0.0012626216048374772
6656.0,0.0005298898322507739
7168.0,0.0018072898965328932
end
