version,3.0
numOfCh,1
type,point
parent_name,fe81d_0dot08-0dot01
ch_type,1_1
kcount,1
numberNandB,1
brightnessNandB,1
carpet pos,0
pc,0
Time (ms),CH1 Auto-Correlation
1.0,0.025339296087622643
2.0,0.025073213502764702
3.0,0.024809502065181732
4.0,0.024546587839722633
5.0,0.02428985759615898
6.0,0.024037467315793037
7.0,0.023783011361956596
8.0,0.02353270910680294
9.0,0.02327839471399784
10.0,0.023028142750263214
11.0,0.022778039798140526
12.0,0.022527849301695824
13.0,0.02227051369845867
14.0,0.02201263979077339
15.0,0.021759960800409317
16.0,0.02151094190776348
18.0,0.02101101540029049
20.0,0.020514652132987976
22.0,0.02003568969666958
24.0,0.019565913826227188
26.0,0.019101722165942192
28.0,0.018661493435502052
30.0,0.01826019212603569
32.0,0.01787802204489708
36.0,0.017140578478574753
40.0,0.016431428492069244
44.0,0.015779906883835793
48.0,0.015211626887321472
52.0,0.014721203595399857
56.0,0.014271876774728298
60.0,0.0138328205794096
64.0,0.013382719829678535
72.0,0.012507583945989609
80.0,0.011639428324997425
88.0,0.010825534351170063
96.0,0.010134987533092499
104.0,0.009534522891044617
112.0,0.008964144624769688
120.0,0.008373875170946121
128.0,0.007758189924061298
144.0,0.006482477765530348
160.0,0.005171309225261211
176.0,0.00411078380420804
192.0,0.0035882259253412485
208.0,0.003419858403503895
224.0,0.0029402365908026695
240.0,0.002301009139046073
256.0,0.0021853302605450153
288.0,0.002361704595386982
320.0,0.002536326413974166
352.0,0.0025541288778185844
384.0,0.0027311781886965036
416.0,0.0031912410631775856
448.0,0.0032702800817787647
480.0,0.0026826588436961174
512.0,0.0019217089284211397
576.0,0.002123358193784952
640.0,0.0006736197974532843
704.0,-0.000972118170466274
768.0,-0.0007174406200647354
832.0,-0.0001888242841232568
896.0,-0.0009353458299301565
960.0,-0.001804100931622088
1024.0,-0.0012459256686270237
1152.0,0.0008282170747406781
1280.0,-0.00046656400081701577
1408.0,0.002037709578871727
1536.0,0.004034599754959345
1664.0,0.001464834320358932
1792.0,0.00012923017493449152
1920.0,0.0008630080264993012
2048.0,0.0007499861530959606
2304.0,-0.0021534429397433996
2560.0,-0.002341781510040164
2816.0,-0.003369780257344246
3072.0,-0.0005727685638703406
3328.0,0.002481293398886919
3584.0,0.0017548036994412541
3840.0,-7.168274169089273e-05
4096.0,-0.0009999495232477784
4608.0,-0.0021915212273597717
5120.0,-0.00195706682279706
5632.0,0.0016952622681856155
6144.0,-8.803309174254537e-05
6656.0,-0.005205371882766485
7168.0,0.0010389311937615275
7680.0,-0.001916749868541956
8192.0,-0.0072597935795784
end
