version,3.0
numOfCh,1
type,point
parent_name,fe81d_0dot08-0dot01
ch_type,1_1
kcount,1
numberNandB,1
brightnessNandB,1
carpet pos,0
pc,0
Time (ms),CH1 Auto-Correlation
1.0,0.026914987713098526
2.0,0.026606779545545578
3.0,0.02631000615656376
4.0,0.026040883734822273
5.0,0.025773540139198303
6.0,0.025504086166620255
7.0,0.02523084543645382
8.0,0.024952899664640427
9.0,0.024667998775839806
10.0,0.024409698322415352
11.0,0.02414301224052906
12.0,0.023888183757662773
13.0,0.02364419586956501
14.0,0.023404305800795555
15.0,0.023171359673142433
16.0,0.02294238843023777
18.0,0.022491656243801117
20.0,0.022035855799913406
22.0,0.021594783291220665
24.0,0.021189549937844276
26.0,0.020799670368433
28.0,0.020426321774721146
30.0,0.020076248794794083
32.0,0.01974906399846077
36.0,0.019132183864712715
40.0,0.01855476200580597
44.0,0.01799696497619152
48.0,0.01746045984327793
52.0,0.01696626842021942
56.0,0.01651940494775772
60.0,0.016083242371678352
64.0,0.01565493643283844
72.0,0.01475694589316845
80.0,0.013943989761173725
88.0,0.013198449276387691
96.0,0.01243867538869381
104.0,0.011581732891499996
112.0,0.01079484075307846
120.0,0.010045310482382774
128.0,0.00933584850281477
144.0,0.007997681386768818
160.0,0.006903322413563728
176.0,0.005944163538515568
192.0,0.0051234993152320385
208.0,0.004713464993983507
224.0,0.004460327327251434
240.0,0.00403525959700346
256.0,0.0036868967581540346
288.0,0.00339292804710567
320.0,0.003081349655985832
352.0,0.002765568671748042
384.0,0.002936834702268243
416.0,0.002701927674934268
448.0,0.0027155752759426832
480.0,0.0028057415038347244
512.0,0.0027433449868112803
576.0,0.00204077223315835
640.0,0.0013746663462370634
704.0,0.000659293495118618
768.0,0.0010688964975997806
832.0,0.0024993023835122585
896.0,0.0030186998192220926
960.0,0.004015246871858835
1024.0,0.003533479990437627
1152.0,0.0005059564136900008
1280.0,-0.002069976646453142
1408.0,-0.0006305446149781346
1536.0,-0.0012894044630229473
1664.0,-0.0019402585458010435
1792.0,-0.0008780582575127482
1920.0,0.002514465479180217
2048.0,0.004168105311691761
2304.0,0.0006791279301978648
2560.0,-0.0017151618376374245
2816.0,0.0012113002594560385
3072.0,0.001668373355641961
3328.0,-0.0033184157218784094
3584.0,-0.0020436712075024843
3840.0,-0.0019094529561698437
4096.0,-0.0015785282012075186
4608.0,0.00042372813913971186
5120.0,0.0004971919697709382
5632.0,-0.0038353479467332363
6144.0,-0.004027487710118294
6656.0,-0.005767194554209709
7168.0,-0.0002694650902412832
7680.0,-0.005456097889691591
8192.0,-0.0009493837715126574
end
