version,3.0
numOfCh,1
type,point
parent_name,fe81d_0dot08-0dot01
ch_type,1_1
kcount,1
numberNandB,1
brightnessNandB,1
carpet pos,0
pc,0
Time (ms),CH1 Auto-Correlation
1.0,0.04227839782834053
2.0,0.042017072439193726
3.0,0.04175714775919914
4.0,0.0414949432015419
5.0,0.04123718664050102
6.0,0.040987368673086166
7.0,0.040742434561252594
8.0,0.0405026413500309
9.0,0.04025774821639061
10.0,0.040015898644924164
11.0,0.039773400872945786
12.0,0.03952862694859505
13.0,0.03928030654788017
14.0,0.03903339058160782
15.0,0.03879483416676521
16.0,0.038556937128305435
18.0,0.03809326887130737
20.0,0.037661366164684296
22.0,0.037247516214847565
24.0,0.036851733922958374
26.0,0.036466535180807114
28.0,0.03608090430498123
30.0,0.03571685031056404
32.0,0.03537353128194809
36.0,0.03471944481134415
40.0,0.034108102321624756
44.0,0.03350547328591347
48.0,0.03289332613348961
52.0,0.03228965774178505
56.0,0.03171391040086746
60.0,0.03114267997443676
64.0,0.030608467757701874
72.0,0.029534684494137764
80.0,0.028536604717373848
88.0,0.027510784566402435
96.0,0.026552362367510796
104.0,0.025698792189359665
112.0,0.02475765161216259
120.0,0.023784523829817772
128.0,0.022924931719899178
144.0,0.021418709307909012
160.0,0.020248837769031525
176.0,0.0191649179905653
192.0,0.018257947638630867
208.0,0.017342638224363327
224.0,0.016792286187410355
240.0,0.0163339301943779
256.0,0.015969639644026756
288.0,0.01479582954198122
320.0,0.013670356012880802
352.0,0.012234827503561974
384.0,0.01064627431333065
416.0,0.010050559416413307
448.0,0.009680181741714478
480.0,0.009392459876835346
512.0,0.009718493558466434
576.0,0.009706501848995686
640.0,0.00843754317611456
704.0,0.007998250424861908
768.0,0.007485973183065653
832.0,0.0062999906949698925
896.0,0.00234444672241807
960.0,-0.001288935192860663
1024.0,-0.002042848849669099
1152.0,0.0011392892338335514
1280.0,0.00016124697867780924
1408.0,0.0003132974961772561
1536.0,-0.0006779026007279754
1664.0,-0.0027447855100035667
1792.0,-0.004253200255334377
1920.0,-0.008916825987398624
2048.0,-0.012833716347813606
2304.0,-0.017140688374638557
2560.0,-0.013292131945490837
2816.0,-0.00972655974328518
3072.0,-0.006357698235660791
3328.0,-0.0037010882515460253
3584.0,-0.0012244301615282893
3840.0,-0.0031802828889340162
4096.0,-0.0036101059522479773
4608.0,0.0025525116361677647
5120.0,0.0011058710515499115
5632.0,-0.0037543566431850195
6144.0,0.006469133775681257
6656.0,0.0022526048123836517
7168.0,0.005503087770193815
7680.0,0.010370268486440182
8192.0,-0.012828176841139793
end
