version,3.0
numOfCh,1
type,point
parent_name,fe81d_0dot08-0dot01
ch_type,1_1
kcount,1
numberNandB,1
brightnessNandB,1
carpet pos,0
pc,0
Time (ms),CH1 Auto-Correlation
1.0,0.05737331882119179
2.0,0.05323372781276703
3.0,0.04909416288137436
4.0,0.04494086652994156
5.0,0.04084090143442154
6.0,0.03669508919119835
7.0,0.0325973778963089
8.0,0.028513045981526375
9.0,0.024425344541668892
10.0,0.024229127913713455
11.0,0.024025646969676018
12.0,0.023854032158851624
13.0,0.023655125871300697
14.0,0.023452432826161385
15.0,0.023264892399311066
16.0,0.02317887544631958
18.0,0.022985290735960007
20.0,0.022761549800634384
22.0,0.022529762238264084
24.0,0.02233663760125637
26.0,0.021964319050312042
28.0,0.021568618714809418
30.0,0.02111460082232952
32.0,0.02062084525823593
36.0,0.019657328724861145
40.0,0.01907275803387165
44.0,0.018398506566882133
48.0,0.01790948212146759
52.0,0.017678270116448402
56.0,0.017289303243160248
60.0,0.016635114327073097
64.0,0.016021328046917915
72.0,0.01467152964323759
80.0,0.013434714637696743
88.0,0.012514985166490078
96.0,0.01152127142995596
104.0,0.010949245654046535
112.0,0.010271154344081879
120.0,0.009722039103507996
128.0,0.00934006366878748
144.0,0.008371216244995594
160.0,0.0072540477849543095
176.0,0.0063735321164131165
192.0,0.0054186624474823475
208.0,0.004608551040291786
224.0,0.003966236021369696
240.0,0.0033041266724467278
256.0,0.003035154892131686
288.0,0.0021115911658853292
320.0,0.000749882310628891
352.0,0.00020114252401981503
384.0,0.000534790800884366
416.0,0.0011848389403894544
448.0,0.00200505624525249
480.0,0.00289550400339067
512.0,0.003628643462434411
576.0,0.0033945185132324696
640.0,0.0018006348982453346
704.0,0.0010189941385760903
768.0,0.0005908027524128556
832.0,0.0004764966433867812
896.0,-0.0007484839297831059
960.0,-0.0015800818800926208
1024.0,-0.002095310017466545
1152.0,-0.00102046353276819
1280.0,0.0010901439236477017
1408.0,0.001645891461521387
1536.0,0.0026983737479895353
1664.0,0.002165402751415968
1792.0,0.0016921478090807796
1920.0,0.0018295288318768144
2048.0,0.002278767991811037
2304.0,0.0029542914126068354
2560.0,-0.0005328862462192774
2816.0,-0.0039044932927936316
3072.0,-0.004882850684225559
3328.0,-0.006534355226904154
3584.0,-0.0026218374259769917
3840.0,-0.00038175060763023794
4096.0,-0.0010924084344878793
4608.0,-0.0026542048435658216
5120.0,-0.0032962702680379152
5632.0,-0.00609755702316761
6144.0,0.0007564496481791139
6656.0,0.003480293555185199
7168.0,0.0017516531515866518
7680.0,-0.0011204183101654053
8192.0,0.0016173962503671646
end
