version,3.0
numOfCh,1
type,point
parent_name,fe81d_0dot08-0dot01
ch_type,1_1
kcount,1
numberNandB,1
brightnessNandB,1
carpet pos,0
pc,0
Time (ms),CH1 Auto-Correlation
1.0,0.032180823385715485
2.0,0.03192776069045067
3.0,0.03168071433901787
4.0,0.03144095838069916
5.0,0.03120049461722374
6.0,0.030970823019742966
7.0,0.030743876472115517
8.0,0.03051515854895115
9.0,0.03028891608119011
10.0,0.030069546774029732
11.0,0.02985079400241375
12.0,0.029636304825544357
13.0,0.029424726963043213
14.0,0.029216134920716286
15.0,0.029007233679294586
16.0,0.028807662427425385
18.0,0.028422702103853226
20.0,0.02803892455995083
22.0,0.02764877676963806
24.0,0.02726278267800808
26.0,0.026887880638241768
28.0,0.02653423696756363
30.0,0.026205414906144142
32.0,0.02590022422373295
36.0,0.025293998420238495
40.0,0.02472040057182312
44.0,0.024215316399931908
48.0,0.0237650815397501
52.0,0.023256808519363403
56.0,0.0226996298879385
60.0,0.022202594205737114
64.0,0.021761802956461906
72.0,0.020921919494867325
80.0,0.02006639912724495
88.0,0.019230393692851067
96.0,0.018487902358174324
104.0,0.017791874706745148
112.0,0.017138222232460976
120.0,0.016529468819499016
128.0,0.015933062881231308
144.0,0.014889187179505825
160.0,0.013945745304226875
176.0,0.013378065079450607
192.0,0.013180399313569069
208.0,0.012963224202394485
224.0,0.01272761169821024
240.0,0.012113428674638271
256.0,0.011510055512189865
288.0,0.010906054638326168
320.0,0.010221545584499836
352.0,0.009335434064269066
384.0,0.008033492602407932
416.0,0.006525841075927019
448.0,0.005210435017943382
480.0,0.004105644766241312
512.0,0.00237125507555902
576.0,-0.001544364495202899
640.0,-0.0037767854519188404
704.0,-0.003519986756145954
768.0,-0.002119646640494466
832.0,-0.0015743760159239173
896.0,-0.0017181613948196173
960.0,-0.0023682801984250546
1024.0,-0.002707031089812517
1152.0,0.0018543931655585766
1280.0,0.003457860555499792
1408.0,0.0022679464891552925
1536.0,0.0011114075314253569
1664.0,0.0006180970813147724
1792.0,-0.0014359885826706886
1920.0,-0.0034631541930139065
2048.0,-0.0025713504292070866
2304.0,-0.004907820839434862
2560.0,-0.006660091690719128
2816.0,-0.0046658567152917385
3072.0,0.0006770404288545251
3328.0,0.006007349118590355
3584.0,0.003407878801226616
3840.0,-0.005978117231279612
4096.0,-0.011126978322863579
4608.0,-0.0026156031526625156
5120.0,-0.0006286308052949607
5632.0,-0.00469968793913722
6144.0,0.003203902393579483
6656.0,0.0068616122007369995
7168.0,-0.0017558257095515728
7680.0,-0.005288800224661827
8192.0,0.00647208746522665
end
