version,3.0
numOfCh,1
type,point
parent_name,fe81d_0dot08-0dot01
ch_type,1_1
kcount,1
numberNandB,1
brightnessNandB,1
carpet pos,0
pc,0
Time (ms),CH1 Auto-Correlation
1.0,0.03260205313563347
2.0,0.03230850771069527
3.0,0.03202321007847786
4.0,0.031744565814733505
5.0,0.031473156064748764
6.0,0.031207609921693802
7.0,0.030944431200623512
8.0,0.030677713453769684
9.0,0.03040989488363266
10.0,0.030143877491354942
11.0,0.029886076226830482
12.0,0.029639843851327896
13.0,0.029399557039141655
14.0,0.029164932668209076
15.0,0.028933370485901833
16.0,0.028705090284347534
18.0,0.028240220621228218
20.0,0.027784928679466248
22.0,0.027352068573236465
24.0,0.026925329118967056
26.0,0.02649034559726715
28.0,0.02607305534183979
30.0,0.025664720684289932
32.0,0.025247689336538315
36.0,0.02442694455385208
40.0,0.02364729903638363
44.0,0.022913111373782158
48.0,0.02219766564667225
52.0,0.021545296534895897
56.0,0.020978640764951706
60.0,0.02047157846391201
64.0,0.01999138481914997
72.0,0.019062520936131477
80.0,0.01821323297917843
88.0,0.017462851479649544
96.0,0.01682279258966446
104.0,0.016268767416477203
112.0,0.015713440254330635
120.0,0.015193899162113667
128.0,0.01470091100782156
144.0,0.014019233174622059
160.0,0.013549290597438812
176.0,0.013046558946371078
192.0,0.012305308133363724
208.0,0.011408728547394276
224.0,0.010405877605080605
240.0,0.009346899576485157
256.0,0.008676638826727867
288.0,0.007382331881672144
320.0,0.006659910548478365
352.0,0.006170724518597126
384.0,0.005844424478709698
416.0,0.005069751758128405
448.0,0.005181101616472006
480.0,0.005163305904716253
512.0,0.004653511103242636
576.0,0.002234997693449259
640.0,0.0015503112226724625
704.0,0.0001793616684153676
768.0,-0.0009802572894841433
832.0,-0.0008563997689634562
896.0,-7.73026404203847e-05
960.0,4.746375998365693e-05
1024.0,0.0012764190323650837
1152.0,0.002893147524446249
1280.0,0.002080954145640135
1408.0,-0.0011159698478877544
1536.0,-0.0009954216657206416
1664.0,-0.0034224498085677624
1792.0,-0.006321956869214773
1920.0,-0.006203990895301104
2048.0,-0.0032527162693440914
2304.0,-0.003899255534633994
2560.0,-0.0018989893142133951
2816.0,-0.002496523316949606
3072.0,-0.0018226105021312833
3328.0,0.0007800340536050498
3584.0,-0.0008357156766578555
3840.0,-0.0007427356322295964
4096.0,-0.0016315625980496407
4608.0,0.003134547034278512
5120.0,0.0009533723932690918
5632.0,0.0008843500399962068
6144.0,-0.003993801772594452
6656.0,-0.0047431993298232555
7168.0,-0.0035494770854711533
7680.0,-3.378159090061672e-05
8192.0,0.0015976490685716271
end
