version,3.0
numOfCh,1
type,point
parent_name,fe81d_0dot08-0dot01
ch_type,1_1
kcount,1
numberNandB,1
brightnessNandB,1
carpet pos,0
pc,0
Time (ms),CH1 Auto-Correlation
1.0,0.03652966022491455
2.0,0.03624860569834709
3.0,0.03597600385546684
4.0,0.035720258951187134
5.0,0.03546580672264099
6.0,0.03522323817014694
7.0,0.03497294709086418
8.0,0.03472169116139412
9.0,0.034475311636924744
10.0,0.03423493355512619
11.0,0.03399967402219772
12.0,0.033768851310014725
13.0,0.033535465598106384
14.0,0.033300209790468216
15.0,0.033070266246795654
16.0,0.032851140946149826
18.0,0.03241243213415146
20.0,0.03198990225791931
22.0,0.03157150000333786
24.0,0.031149059534072876
26.0,0.030722789466381073
28.0,0.030311983078718185
30.0,0.029913082718849182
32.0,0.029528262093663216
36.0,0.028765156865119934
40.0,0.028007354587316513
44.0,0.027307450771331787
48.0,0.026645133271813393
52.0,0.026009082794189453
56.0,0.025377385318279266
60.0,0.024778073653578758
64.0,0.024205045774579048
72.0,0.02310657687485218
80.0,0.02204909734427929
88.0,0.021001623943448067
96.0,0.01995694264769554
104.0,0.01901618391275406
112.0,0.01825658790767193
120.0,0.017711713910102844
128.0,0.017267215996980667
144.0,0.01667376235127449
160.0,0.01616620272397995
176.0,0.015362138859927654
192.0,0.014501994475722313
208.0,0.01406380720436573
224.0,0.013917521573603153
240.0,0.013741031289100647
256.0,0.013488823547959328
288.0,0.014119302853941917
320.0,0.01420990563929081
352.0,0.014084969647228718
384.0,0.013694549910724163
416.0,0.01272002886980772
448.0,0.01177978329360485
480.0,0.010555754415690899
512.0,0.009570267982780933
576.0,0.006972210947424173
640.0,0.005360331851989031
704.0,0.005645089782774448
768.0,0.007613705471158028
832.0,0.009556940756738186
896.0,0.008686484768986702
960.0,0.0068578459322452545
1024.0,0.00561961904168129
1152.0,0.00607553543522954
1280.0,0.003443152876570821
1408.0,0.0021388251334428787
1536.0,0.0016108003910630941
1664.0,0.0022480341140180826
1792.0,-0.0011550929630175233
1920.0,0.00015501934103667736
2048.0,-0.0019910994451493025
2304.0,-0.004394173622131348
2560.0,-0.005574558395892382
2816.0,-0.0023619343992322683
3072.0,-0.0010259455302730203
3328.0,-0.002074951073154807
3584.0,0.0006032388773746789
3840.0,-0.0014868248254060745
4096.0,-0.0024545362684875727
4608.0,-0.0027559674344956875
5120.0,-0.007518501952290535
5632.0,-0.010700405575335026
6144.0,-0.013739988207817078
6656.0,-0.010712468065321445
7168.0,-0.003890939289703965
7680.0,0.0009360065450891852
8192.0,0.007106360048055649
end
