version,3.0
numOfCh,1
type,point
parent_name,fe81d_0dot08-0dot01
ch_type,1_1
kcount,1
numberNandB,1
brightnessNandB,1
carpet pos,0
pc,0
Time (ms),CH1 Auto-Correlation
1.0,0.030868832021951675
2.0,0.030606288462877274
3.0,0.03035031259059906
4.0,0.030095020309090614
5.0,0.029847079887986183
6.0,0.029606394469738007
7.0,0.02936399169266224
8.0,0.02912650629878044
9.0,0.02889913134276867
10.0,0.028680924326181412
11.0,0.02847093902528286
12.0,0.028261199593544006
13.0,0.028049321845173836
14.0,0.027838392183184624
15.0,0.027625074610114098
16.0,0.027419811114668846
18.0,0.027024907991290092
20.0,0.02664272114634514
22.0,0.026264196261763573
24.0,0.02588607370853424
26.0,0.025508126243948936
28.0,0.025117971003055573
30.0,0.024733366444706917
32.0,0.02436341531574726
36.0,0.02365734428167343
40.0,0.02300219051539898
44.0,0.02235148288309574
48.0,0.02174866572022438
52.0,0.021188270300626755
56.0,0.020641667768359184
60.0,0.020109590142965317
64.0,0.019647954031825066
72.0,0.018874138593673706
80.0,0.01814006082713604
88.0,0.01748647540807724
96.0,0.016932033002376556
104.0,0.016448814421892166
112.0,0.015945250168442726
120.0,0.015483862720429897
128.0,0.015040001831948757
144.0,0.014072095975279808
160.0,0.013172822073101997
176.0,0.012102320790290833
192.0,0.011175374500453472
208.0,0.010510744526982307
224.0,0.009735887870192528
240.0,0.008955965749919415
256.0,0.008160301484167576
288.0,0.006348243448883295
320.0,0.005097300745546818
352.0,0.004711178131401539
384.0,0.004084163345396519
416.0,0.0035202146973460913
448.0,0.0030975353438407183
480.0,0.0026464969851076603
512.0,0.0021762698888778687
576.0,0.0022484087385237217
640.0,0.0016196678625419736
704.0,0.0002957443066406995
768.0,-0.001313365763053298
832.0,-0.000940291618462652
896.0,-0.001427958020940423
960.0,-0.0016673713689669967
1024.0,-0.001167002716101706
1152.0,2.263528949697502e-05
1280.0,0.0001594306668266654
1408.0,-0.000549881428014487
1536.0,0.0015115358401089907
1664.0,0.003039806615561247
1792.0,0.0016899858601391315
1920.0,0.0002450019819661975
2048.0,0.0008447101572528481
2304.0,0.0007243244908750057
2560.0,-0.0007585646817460656
2816.0,-0.0022203237749636173
3072.0,-0.005521552171558142
3328.0,-0.004806597251445055
3584.0,-0.00436190003529191
3840.0,-0.0036719900090247393
4096.0,-0.007401250768452883
4608.0,-0.003068765392526984
5120.0,-0.0009625545935705304
5632.0,-0.003508827416226268
6144.0,-0.00159938121214509
6656.0,0.0017757635796442628
7168.0,0.0037129234988242388
7680.0,0.0028738141991198063
8192.0,-0.00035322061739861965
end
