version,3.0
numOfCh,1
type,point
parent_name,fe81d_0dot08-0dot01
ch_type,1_1
kcount,1
numberNandB,1
brightnessNandB,1
carpet pos,0
pc,0
Time (ms),CH1 Auto-Correlation
1.0,0.05832260474562645
2.0,0.0579574778676033
3.0,0.057582855224609375
4.0,0.057214800268411636
5.0,0.05684128403663635
6.0,0.05646631494164467
7.0,0.05609038472175598
8.0,0.055725693702697754
9.0,0.05535757541656494
10.0,0.055019527673721313
11.0,0.05468292161822319
12.0,0.05436191335320473
13.0,0.05403916537761688
14.0,0.0537283718585968
15.0,0.053421661257743835
16.0,0.053115081042051315
18.0,0.052534960210323334
20.0,0.051977138966321945
22.0,0.05141143873333931
24.0,0.05086313560605049
26.0,0.05034824088215828
28.0,0.0498485192656517
30.0,0.0493842251598835
32.0,0.04894927144050598
36.0,0.0480305477976799
40.0,0.047081172466278076
44.0,0.04606643691658974
48.0,0.045022811740636826
52.0,0.04399656131863594
56.0,0.043014202266931534
60.0,0.042095575481653214
64.0,0.04120273143053055
72.0,0.03955260291695595
80.0,0.0381835512816906
88.0,0.03661593422293663
96.0,0.0350290946662426
104.0,0.033721137791872025
112.0,0.032617758959531784
120.0,0.0316380076110363
128.0,0.030782993882894516
144.0,0.02895132638514042
160.0,0.026942754164338112
176.0,0.025911884382367134
192.0,0.02545502781867981
208.0,0.025293419137597084
224.0,0.02545355074107647
240.0,0.025862587615847588
256.0,0.02632010728120804
288.0,0.025409089401364326
320.0,0.022575197741389275
352.0,0.018528873100876808
384.0,0.014744168147444725
416.0,0.011219789274036884
448.0,0.007066506426781416
480.0,0.003611210035160184
512.0,0.0017670211382210255
576.0,-0.00042490236228331923
640.0,-0.0013179356465116143
704.0,-0.0017069594468921423
768.0,-0.0036241812631487846
832.0,-0.0062092384323477745
896.0,-0.007099680602550507
960.0,-0.004828143399208784
1024.0,-0.0022274854127317667
1152.0,-0.002992940368130803
1280.0,-0.0025078430771827698
1408.0,0.0009909910149872303
1536.0,-0.0021261977963149548
1664.0,-0.0037912153638899326
1792.0,-0.008090928196907043
1920.0,-0.01329308282583952
2048.0,-0.011482447385787964
2304.0,0.0012993093114346266
2560.0,0.008272020146250725
2816.0,0.010800132527947426
3072.0,0.009286182001233101
3328.0,0.006812676787376404
3584.0,0.005950605031102896
3840.0,0.008567455224692822
4096.0,0.004717671312391758
4608.0,-0.01444912888109684
5120.0,-0.014590620994567871
5632.0,-0.012570204213261604
6144.0,-0.00045062246499583125
6656.0,0.019487394019961357
7168.0,-0.006071475334465504
7680.0,-0.016278816387057304
8192.0,-0.050621770322322845
end
