version,3.0
numOfCh,1
type,point
parent_name,fe81d_0dot08-0dot01
ch_type,1_1
kcount,1
numberNandB,1
brightnessNandB,1
carpet pos,0
pc,0
Time (ms),CH1 Auto-Correlation
1.0,0.20251090824604034
2.0,0.201691135764122
3.0,0.20095095038414001
4.0,0.20018211007118225
5.0,0.19943107664585114
6.0,0.1986074000597
7.0,0.19783909618854523
8.0,0.19710907340049744
9.0,0.19641956686973572
10.0,0.19572503864765167
11.0,0.19508039951324463
12.0,0.19457246363162994
13.0,0.19408506155014038
14.0,0.19347573816776276
15.0,0.19294850528240204
16.0,0.1923786997795105
18.0,0.19140174984931946
20.0,0.1904807686805725
22.0,0.1895858645439148
24.0,0.18873728811740875
26.0,0.18793880939483643
28.0,0.1871960312128067
30.0,0.1864180713891983
32.0,0.1856531947851181
36.0,0.1841859519481659
40.0,0.1827802062034607
44.0,0.1813756227493286
48.0,0.1799188256263733
52.0,0.1786077916622162
56.0,0.17738543450832367
60.0,0.17637433111667633
64.0,0.17545752227306366
72.0,0.17243561148643494
80.0,0.16854287683963776
88.0,0.16483309864997864
96.0,0.16121657192707062
104.0,0.15783905982971191
112.0,0.15494805574417114
120.0,0.15187929570674896
128.0,0.14890621602535248
144.0,0.1422550529241562
160.0,0.13490334153175354
176.0,0.12753012776374817
192.0,0.12184811383485794
208.0,0.11811120808124542
224.0,0.11487740278244019
240.0,0.11313007771968842
256.0,0.11011025309562683
288.0,0.10638076066970825
320.0,0.10144002735614777
352.0,0.09783590584993362
384.0,0.09111787378787994
416.0,0.0816064104437828
448.0,0.07197818905115128
480.0,0.0639512836933136
512.0,0.060066480189561844
576.0,0.049751315265893936
640.0,0.041687607765197754
704.0,0.02974812686443329
768.0,0.01444526668637991
832.0,0.00473771570250392
896.0,0.0009112243424169719
960.0,-0.00576125830411911
1024.0,-0.018397895619273186
1152.0,-0.0587676577270031
1280.0,-0.06908410042524338
1408.0,-0.0664755180478096
1536.0,-0.06274651736021042
1664.0,-0.05966556817293167
1792.0,-0.060088761150836945
1920.0,-0.05643696337938309
2048.0,-0.05097917467355728
2304.0,-0.015894824638962746
2560.0,0.003729050513356924
2816.0,0.006579770240932703
3072.0,-0.0077713290229439735
3328.0,-0.04319116100668907
3584.0,-0.06949081271886826
3840.0,-0.06189518794417381
4096.0,-0.05206606537103653
end
