version,3.0
numOfCh,1
type,point
parent_name,fe81d_0dot08-0dot01
ch_type,1_1
kcount,1
numberNandB,1
brightnessNandB,1
carpet pos,0
pc,0
Time (ms),CH1 Auto-Correlation
1.0,0.033795930445194244
2.0,0.033539820462465286
3.0,0.03328130766749382
4.0,0.03302426636219025
5.0,0.03276838734745979
6.0,0.032519955188035965
7.0,0.032276224344968796
8.0,0.03204071521759033
9.0,0.03181273490190506
10.0,0.031582511961460114
11.0,0.03135869279503822
12.0,0.03113984875380993
13.0,0.030916910618543625
14.0,0.03069804608821869
15.0,0.030484741553664207
16.0,0.030267681926488876
18.0,0.029833458364009857
20.0,0.029401909559965134
22.0,0.0289757177233696
24.0,0.02854928746819496
26.0,0.028134118765592575
28.0,0.027741244062781334
30.0,0.027358826249837875
32.0,0.02697390504181385
36.0,0.02622070722281933
40.0,0.02552524022758007
44.0,0.024889672175049782
48.0,0.02427470125257969
52.0,0.023623164743185043
56.0,0.022951144725084305
60.0,0.02226906828582287
64.0,0.021610332652926445
72.0,0.020391209051012993
80.0,0.019324909895658493
88.0,0.018420472741127014
96.0,0.017635492607951164
104.0,0.016814788803458214
112.0,0.015958555042743683
120.0,0.015107547864317894
128.0,0.014408028684556484
144.0,0.013326367363333702
160.0,0.012194889597594738
176.0,0.011284579522907734
192.0,0.010372498072683811
208.0,0.009604843333363533
224.0,0.009118186309933662
240.0,0.008819670416414738
256.0,0.008581593632698059
288.0,0.008401847444474697
320.0,0.008429303765296936
352.0,0.007859041914343834
384.0,0.007116720546036959
416.0,0.006657435558736324
448.0,0.0070769391022622585
480.0,0.007201591040939093
512.0,0.007431504316627979
576.0,0.006033638026565313
640.0,0.0031786977779120207
704.0,0.0019015205325558782
768.0,0.001463982043787837
832.0,0.0008096073288470507
896.0,-0.0005418751388788223
960.0,-0.0008707993547432125
1024.0,4.537945278570987e-05
1152.0,0.004586981609463692
1280.0,0.003239827463403344
1408.0,0.0014150211354717612
1536.0,0.0004214928194414824
1664.0,-0.0005222409381531179
1792.0,-0.0020587921608239412
1920.0,-0.00010475979070179164
2048.0,0.0008074817014858127
2304.0,0.00157125701662153
2560.0,1.8735798221314326e-05
2816.0,-0.0012190156849101186
3072.0,-0.0031684045679867268
3328.0,0.002761309500783682
3584.0,0.003024851670488715
3840.0,0.00333137484267354
4096.0,-0.00044134948984719813
4608.0,-0.0004066120309289545
5120.0,-0.0013174673076719046
5632.0,-0.004479054361581802
6144.0,-0.003990065772086382
6656.0,-0.0038433116860687733
7168.0,-0.0007950406288728118
7680.0,-0.006063910201191902
8192.0,-0.002866513794288039
end
