version,3.0
numOfCh,1
type,point
parent_name,fe81d_0dot08-0dot01
ch_type,1_1
kcount,1
numberNandB,1
brightnessNandB,1
carpet pos,0
pc,0
Time (ms),CH1 Auto-Correlation
1.0,0.02750149741768837
2.0,0.02725674957036972
3.0,0.027013683691620827
4.0,0.02678132802248001
5.0,0.02655160427093506
6.0,0.026318801566958427
7.0,0.026088153943419456
8.0,0.025862576439976692
9.0,0.02563960663974285
10.0,0.025410205125808716
11.0,0.025186536833643913
12.0,0.024970829486846924
13.0,0.024753233417868614
14.0,0.02453593909740448
15.0,0.024317963048815727
16.0,0.024105634540319443
18.0,0.02369186282157898
20.0,0.023300787433981895
22.0,0.022926487028598785
24.0,0.022546982392668724
26.0,0.022171763703227043
28.0,0.02179778181016445
30.0,0.021425582468509674
32.0,0.02106167934834957
36.0,0.02037595771253109
40.0,0.019736170768737793
44.0,0.019127393141388893
48.0,0.018522463738918304
52.0,0.01797175407409668
56.0,0.01743672601878643
60.0,0.016909396275877953
64.0,0.016432015225291252
72.0,0.01554135698825121
80.0,0.01482865959405899
88.0,0.014247343875467777
96.0,0.01377240102738142
104.0,0.01336813997477293
112.0,0.01296508964151144
120.0,0.012543539516627789
128.0,0.012267790734767914
144.0,0.01175682432949543
160.0,0.011131731793284416
176.0,0.010419544763863087
192.0,0.009779703803360462
208.0,0.009308185428380966
224.0,0.009090525098145008
240.0,0.009051674976944923
256.0,0.00880249310284853
288.0,0.008000986650586128
320.0,0.007197133265435696
352.0,0.006391851231455803
384.0,0.005365600343793631
416.0,0.004623036365956068
448.0,0.0038050340954214334
480.0,0.002843984169885516
512.0,0.002217984991148114
576.0,0.003090504789724946
640.0,0.0035061175003647804
704.0,0.003311097389087081
768.0,0.0025612281169742346
832.0,0.003040981013327837
896.0,0.003589447820559144
960.0,0.00437582191079855
1024.0,0.0046073393896222115
1152.0,0.0022435409482568502
1280.0,0.0012167725944891572
1408.0,-0.0008809693972580135
1536.0,0.0003636617911979556
1664.0,0.00014985306188464165
1792.0,0.0017378531629219651
1920.0,0.0018198410980403423
2048.0,0.0016748697962611914
2304.0,0.0003589422267396003
2560.0,-0.0009916285052895546
2816.0,0.0005525787128135562
3072.0,0.0020397447515279055
3328.0,0.00033233812428079545
3584.0,-0.003066260600462556
3840.0,-0.003031768137589097
4096.0,-0.002669469453394413
4608.0,-0.004931550472974777
5120.0,-0.00597841152921319
5632.0,-0.00792580284178257
6144.0,-0.0033905755262821913
6656.0,0.0005599946016445756
7168.0,1.767586036294233e-05
7680.0,-0.00019749476632568985
8192.0,-0.004538878332823515
end
