version,3.0
numOfCh,1
type,point
parent_name,fe81d_0dot08-0dot01
ch_type,1_1
kcount,1
numberNandB,1
brightnessNandB,1
carpet pos,0
pc,0
Time (ms),CH1 Auto-Correlation
1.0,0.032080478966236115
2.0,0.0318279005587101
3.0,0.03158746287226677
4.0,0.03134573996067047
5.0,0.031100912019610405
6.0,0.03085503540933132
7.0,0.030607959255576134
8.0,0.030368322506546974
9.0,0.030130399391055107
10.0,0.02989191934466362
11.0,0.029654452577233315
12.0,0.02942190133035183
13.0,0.02919095940887928
14.0,0.02896697446703911
15.0,0.028751401230692863
16.0,0.028539763763546944
18.0,0.028130095452070236
20.0,0.027749618515372276
22.0,0.02738196589052677
24.0,0.027028881013393402
26.0,0.026707766577601433
28.0,0.026393894106149673
30.0,0.026094816625118256
32.0,0.025800500065088272
36.0,0.025241203606128693
40.0,0.024739379063248634
44.0,0.024300018325448036
48.0,0.02387790009379387
52.0,0.02346624992787838
56.0,0.02306497097015381
60.0,0.022648310288786888
64.0,0.022286783903837204
72.0,0.02158528007566929
80.0,0.0208741445094347
88.0,0.020202169194817543
96.0,0.019578546285629272
104.0,0.018932249397039413
112.0,0.018352501094341278
120.0,0.017865968868136406
128.0,0.017369210720062256
144.0,0.016464533284306526
160.0,0.015426034107804298
176.0,0.014333965256810188
192.0,0.01340008806437254
208.0,0.012773559428751469
224.0,0.012205012142658234
240.0,0.011628974229097366
256.0,0.011127318255603313
288.0,0.010709322988986969
320.0,0.009758814238011837
352.0,0.009068561717867851
384.0,0.008193133398890495
416.0,0.007467052433639765
448.0,0.006989690940827131
480.0,0.006366556975990534
512.0,0.005546643864363432
576.0,0.004215029068291187
640.0,0.002430479507893324
704.0,0.0006544268107973039
768.0,-0.0010173112386837602
832.0,-0.001964154187589884
896.0,-0.0029942328110337257
960.0,-0.0042488728649914265
1024.0,-0.00604854803532362
1152.0,-0.007684706244617701
1280.0,-0.006335025653243065
1408.0,-0.0032928914297372103
1536.0,1.0400142855360173e-05
1664.0,0.0016642672708258033
1792.0,0.0016726568574085832
1920.0,0.0030212600249797106
2048.0,0.0019690871704369783
2304.0,-0.0014027931028977036
2560.0,-0.004563721362501383
2816.0,-0.00789826363325119
3072.0,-0.008501381613314152
3328.0,-0.005673890933394432
3584.0,-0.002305004745721817
3840.0,-0.0009987192461267114
4096.0,0.0044094896875321865
4608.0,0.006909181829541922
5120.0,0.00135305046569556
5632.0,-0.004784401040524244
6144.0,0.0008186310878954828
6656.0,-0.0004199582617729902
7168.0,-0.008829531259834766
7680.0,-0.008517621085047722
8192.0,0.005431807599961758
end
