version,3.0
numOfCh,1
type,point
parent_name,19e3e_1dot0-0dot1
ch_type,1_1
kcount,1
numberNandB,1
brightnessNandB,1
carpet pos,0
pc,0
Time (ms),CH1 Auto-Correlation
1.0,0.08945061266422272
2.0,0.08263731002807617
3.0,0.0767834484577179
4.0,0.0716935470700264
5.0,0.06760237365961075
6.0,0.06369391083717346
7.0,0.0600934736430645
8.0,0.05691106244921684
9.0,0.053861238062381744
10.0,0.05118351802229881
11.0,0.04871346056461334
12.0,0.04630643129348755
13.0,0.044158563017845154
14.0,0.041987232863903046
15.0,0.04015238583087921
16.0,0.038694318383932114
18.0,0.03629698231816292
20.0,0.0342351496219635
22.0,0.03266073018312454
24.0,0.03105337731540203
26.0,0.02926895208656788
28.0,0.02772415429353714
30.0,0.026277365162968636
32.0,0.0246376134455204
36.0,0.022247401997447014
40.0,0.020333798602223396
44.0,0.01891351491212845
48.0,0.017575891688466072
52.0,0.01682267338037491
56.0,0.0164792463183403
60.0,0.016492288559675217
64.0,0.01610618084669113
72.0,0.013512233272194862
80.0,0.011441311798989773
88.0,0.010844697244465351
96.0,0.00905967503786087
104.0,0.006282699294388294
112.0,0.005151034332811832
120.0,0.005809081718325615
128.0,0.00614942517131567
144.0,0.005440044216811657
160.0,0.005636826157569885
176.0,0.003379756584763527
192.0,0.0008221400203183293
208.0,-0.000997379538603127
224.0,0.002813833300024271
240.0,0.005811575800180435
256.0,0.0064427824690938
288.0,0.005104693118482828
320.0,0.0073836189694702625
352.0,0.008146703243255615
384.0,0.006392338778823614
416.0,0.006589029915630817
448.0,0.002827363321557641
480.0,0.0013961594086140394
512.0,0.0017054894706234336
576.0,0.0053797522559762
640.0,0.0069353836588561535
704.0,0.003831339068710804
768.0,0.0021867852192372084
832.0,-0.0032655636314302683
896.0,-0.0015770538011565804
960.0,-0.0013451870763674378
1024.0,-0.004601249936968088
1152.0,-0.00548653956502676
1280.0,-0.008123270235955715
1408.0,-0.00461247144266963
1536.0,-0.008195776492357254
1664.0,-0.007450330536812544
1792.0,-0.007378906477242708
1920.0,-0.006609663832932711
2048.0,-0.0021983312908560038
2304.0,-0.0015199929475784302
2560.0,0.0006805534358136356
2816.0,0.003694134298712015
3072.0,0.00427171029150486
3328.0,0.0011732294224202633
3584.0,0.003110369434580207
3840.0,-0.0016870546387508512
4096.0,-0.0010872434359043837
4608.0,-0.002410141984000802
5120.0,0.003022667020559311
5632.0,0.006987161003053188
6144.0,0.0015540627064183354
6656.0,-0.005728678312152624
7168.0,-0.011010024696588516
7680.0,-0.004401540383696556
8192.0,0.006851395592093468
end
