version,3.0
numOfCh,1
type,point
parent_name,19e3e_1dot0-0dot1
ch_type,1_1
kcount,1
numberNandB,1
brightnessNandB,1
carpet pos,0
pc,0
Time (ms),CH1 Auto-Correlation
1.0,0.09327816218137741
2.0,0.08621885627508163
3.0,0.0802065059542656
4.0,0.07519519329071045
5.0,0.07059207558631897
6.0,0.06671644747257233
7.0,0.06293827295303345
8.0,0.05973157659173012
9.0,0.05677909031510353
10.0,0.05420799180865288
11.0,0.0519351065158844
12.0,0.0499812550842762
13.0,0.04807669669389725
14.0,0.04629119485616684
15.0,0.04449267312884331
16.0,0.04278700426220894
18.0,0.0400775671005249
20.0,0.037629298865795135
22.0,0.035537488758563995
24.0,0.033516038209199905
26.0,0.031860947608947754
28.0,0.029826989397406578
30.0,0.027525587007403374
32.0,0.025836680084466934
36.0,0.023227738216519356
40.0,0.022295711562037468
44.0,0.021448688581585884
48.0,0.02046860009431839
52.0,0.01991816982626915
56.0,0.01937192678451538
60.0,0.01905377395451069
64.0,0.018043894320726395
72.0,0.016135143116116524
80.0,0.013214393518865108
88.0,0.010722699575126171
96.0,0.009240065701305866
104.0,0.008154993876814842
112.0,0.00756671279668808
120.0,0.00701826810836792
128.0,0.007420138921588659
144.0,0.007396350614726543
160.0,0.0063581825233995914
176.0,0.004874452017247677
192.0,0.005412562284618616
208.0,0.00765835028141737
224.0,0.008071771822869778
240.0,0.00786573439836502
256.0,0.0074009401723742485
288.0,0.005481799598783255
320.0,0.004279587883502245
352.0,0.0011273804120719433
384.0,0.001740911859087646
416.0,0.0014111814089119434
448.0,0.00099810806568712
480.0,0.0041505941189825535
512.0,0.004409633576869965
576.0,0.006416469346731901
640.0,0.002838023705407977
704.0,-0.0004461265925783664
768.0,0.00039703285438008606
832.0,-0.0026238334830850363
896.0,-0.0027891246136277914
960.0,-0.0015956866554915905
1024.0,0.0022064344957470894
1152.0,0.004461551550775766
1280.0,0.006258459761738777
1408.0,0.0038990708999335766
1536.0,0.0013032493880018592
1664.0,0.0005000134697183967
1792.0,-0.0019188178703188896
1920.0,-0.0003114462015219033
2048.0,0.0015277366619557142
2304.0,0.0019513294100761414
2560.0,0.0005579189164564013
2816.0,0.0015139766037464142
3072.0,-0.0036967811174690723
3328.0,-0.004235171712934971
3584.0,-0.0029636553954333067
3840.0,-0.004624716471880674
4096.0,-0.003567360108718276
4608.0,-0.005010428372770548
5120.0,-0.004158880561590195
5632.0,-0.001854345086030662
6144.0,-0.004434559028595686
6656.0,-0.005061231553554535
7168.0,0.0004017300670966506
7680.0,-0.0009293490438722074
8192.0,-0.001306632999330759
end
