version,3.0
numOfCh,1
type,point
parent_name,19e3e_1dot0-0dot1
ch_type,1_1
kcount,1
numberNandB,1
brightnessNandB,1
carpet pos,0
pc,0
Time (ms),CH1 Auto-Correlation
1.0,0.09233751147985458
2.0,0.08556094765663147
3.0,0.07975316047668457
4.0,0.07458138465881348
5.0,0.07007179409265518
6.0,0.06624847650527954
7.0,0.06295357644557953
8.0,0.0601063147187233
9.0,0.05733044072985649
10.0,0.05464592203497887
11.0,0.052349843084812164
12.0,0.0501704178750515
13.0,0.0480218380689621
14.0,0.04599163308739662
15.0,0.04421399533748627
16.0,0.04247237741947174
18.0,0.039158571511507034
20.0,0.036625348031520844
22.0,0.03510001674294472
24.0,0.033848799765110016
26.0,0.03273925930261612
28.0,0.031793490052223206
30.0,0.030515573918819427
32.0,0.029049817472696304
36.0,0.02585478499531746
40.0,0.023188309744000435
44.0,0.020911088213324547
48.0,0.01873152144253254
52.0,0.016860051080584526
56.0,0.016284899786114693
60.0,0.01650763675570488
64.0,0.016350487247109413
72.0,0.01564500294625759
80.0,0.015459860675036907
88.0,0.013301585800945759
96.0,0.009902755729854107
104.0,0.00820931512862444
112.0,0.007398763671517372
120.0,0.0058350758627057076
128.0,0.004751596134155989
144.0,0.005014471709728241
160.0,0.006007371935993433
176.0,0.003358232555910945
192.0,-7.031267887214199e-05
208.0,-0.0010007622186094522
224.0,5.8800917031476274e-05
240.0,0.0021473586093634367
256.0,0.001852916437201202
288.0,-0.001011386513710022
320.0,-0.006695267744362354
352.0,-0.00939155649393797
384.0,-0.00658597843721509
416.0,-0.0018304423429071903
448.0,-0.002686366904526949
480.0,-0.0018484845058992505
512.0,0.0003748023009393364
576.0,-0.0022953450679779053
640.0,-0.006127288099378347
704.0,0.0006362373824231327
768.0,0.004178463947027922
832.0,0.0033275592140853405
896.0,0.000906101893633604
960.0,0.003917301073670387
1024.0,-0.00032035697950050235
1152.0,-0.00793169904500246
1280.0,-0.0013124317629262805
1408.0,0.00010740978177636862
1536.0,0.00141493312548846
1664.0,-0.0019957139156758785
1792.0,-6.761573558833334e-07
1920.0,-0.003527140012010932
2048.0,0.0019937227480113506
2304.0,-0.00039876604569144547
2560.0,-0.003264804370701313
2816.0,-0.0030553650576621294
3072.0,0.00015593472926411778
3328.0,0.003533119335770607
3584.0,0.0033768266439437866
3840.0,-0.004257426597177982
4096.0,-0.005902351811528206
4608.0,-0.0019573229365050793
5120.0,0.0014299968024715781
5632.0,0.00466160150244832
6144.0,0.0011720401234924793
6656.0,0.003604615107178688
7168.0,-0.00022621892276220024
7680.0,-0.0005941011477261782
8192.0,-0.005685441195964813
end
