version,3.0
numOfCh,1
type,point
parent_name,19e3e_1dot0-0dot1
ch_type,1_1
kcount,1
numberNandB,1
brightnessNandB,1
carpet pos,0
pc,0
Time (ms),CH1 Auto-Correlation
1.0,0.08368556946516037
2.0,0.07665370404720306
3.0,0.0708215981721878
4.0,0.06589139252901077
5.0,0.061536144465208054
6.0,0.057827599346637726
7.0,0.05456081032752991
8.0,0.05177288129925728
9.0,0.04938357323408127
10.0,0.047081880271434784
11.0,0.04475985839962959
12.0,0.04232436418533325
13.0,0.040071770548820496
14.0,0.03804940730333328
15.0,0.036308374255895615
16.0,0.0346979983150959
18.0,0.03242430463433266
20.0,0.03044356405735016
22.0,0.0283431988209486
24.0,0.02678302861750126
26.0,0.025283291935920715
28.0,0.024276206269860268
30.0,0.023271553218364716
32.0,0.022514162585139275
36.0,0.021204277873039246
40.0,0.020125942304730415
44.0,0.018432078883051872
48.0,0.017150461673736572
52.0,0.015451568178832531
56.0,0.01409666333347559
60.0,0.013129021041095257
64.0,0.012427636422216892
72.0,0.010580316185951233
80.0,0.008801941759884357
88.0,0.008013171143829823
96.0,0.008805998601019382
104.0,0.010203192941844463
112.0,0.009613270871341228
120.0,0.008986687287688255
128.0,0.00868875440210104
144.0,0.005583569873124361
160.0,0.0023117174860090017
176.0,0.0013055390445515513
192.0,-0.000378736003767699
208.0,-0.0020761562045663595
224.0,-0.0014617952983826399
240.0,-0.0001208248213515617
256.0,0.0014313739957287908
288.0,0.0015570726245641708
320.0,0.0009041313896887004
352.0,0.001695179846137762
384.0,0.002380257472395897
416.0,0.004399653058499098
448.0,0.005373694933950901
480.0,0.006152612157166004
512.0,0.002132744761183858
576.0,0.0008908608579076827
640.0,-0.0005578931886702776
704.0,-0.0013828185619786382
768.0,-0.003237857250496745
832.0,-0.0054289535619318485
896.0,-0.004941411782056093
960.0,-0.0030523480381816626
1024.0,-0.003810873720794916
1152.0,-0.0033073495142161846
1280.0,-0.0013026378583163023
1408.0,-0.002426210092380643
1536.0,0.0005180686130188406
1664.0,0.0029630728531628847
1792.0,-0.003813965478911996
1920.0,-0.004022554028779268
2048.0,0.0045738122425973415
2304.0,6.593572379642865e-06
2560.0,-0.00018169691611547023
2816.0,0.0013091345317661762
3072.0,-0.0029121574480086565
3328.0,-0.001400491688400507
3584.0,-0.005152878351509571
3840.0,-0.0029933045152574778
4096.0,-0.005845388863235712
4608.0,0.0011069145984947681
5120.0,0.008012145757675171
5632.0,0.0026932992041110992
6144.0,-0.004193713888525963
6656.0,0.0013774915132671595
7168.0,0.004803882446140051
7680.0,-0.0024572585243731737
8192.0,-0.002928611356765032
end
