version,3.0
numOfCh,1
type,point
parent_name,19e3e_1dot0-0dot1
ch_type,1_1
kcount,1
numberNandB,1
brightnessNandB,1
carpet pos,0
pc,0
Time (ms),CH1 Auto-Correlation
1.0,0.08830592781305313
2.0,0.08181308954954147
3.0,0.07591106742620468
4.0,0.07077498733997345
5.0,0.0663122907280922
6.0,0.062230031937360764
7.0,0.058538712561130524
8.0,0.05552089214324951
9.0,0.05280427634716034
10.0,0.050248920917510986
11.0,0.04781338945031166
12.0,0.045539069920778275
13.0,0.043558862060308456
14.0,0.04162157326936722
15.0,0.03969259560108185
16.0,0.03808318078517914
18.0,0.03487290441989899
20.0,0.03238058090209961
22.0,0.030346721410751343
24.0,0.028698967769742012
26.0,0.026993071660399437
28.0,0.024821465834975243
30.0,0.02282087877392769
32.0,0.021533066406846046
36.0,0.018974175676703453
40.0,0.016430767253041267
44.0,0.014051252044737339
48.0,0.012471870519220829
52.0,0.010753192938864231
56.0,0.009353882633149624
60.0,0.008761195465922356
64.0,0.008347034454345703
72.0,0.006498840171843767
80.0,0.003081456059589982
88.0,0.0029464338440448046
96.0,0.003521047765389085
104.0,0.0040913475677371025
112.0,0.004619630519300699
120.0,0.004788069054484367
128.0,0.006298060994595289
144.0,0.0063965111039578915
160.0,0.004380438476800919
176.0,0.003009264823049307
192.0,0.00045068844337947667
208.0,-0.0008366869878955185
224.0,0.00029723779880441725
240.0,0.0006929106893949211
256.0,0.0003328332968521863
288.0,-0.00046682090032845736
320.0,-0.0004969025612808764
352.0,-0.0018582162447273731
384.0,-0.0036718545015901327
416.0,0.000504113850183785
448.0,0.0029393292497843504
480.0,0.0025049198884516954
512.0,0.0006269588484428823
576.0,0.0009692622115835547
640.0,0.002328369999304414
704.0,0.003281652694568038
768.0,-0.0003624424571171403
832.0,-0.0009147710516117513
896.0,0.004917982034385204
960.0,0.003790214192122221
1024.0,0.0036547426134347916
1152.0,0.002003575675189495
1280.0,0.0047189053148031235
1408.0,0.004153157584369183
1536.0,-0.00031653145560994744
1664.0,-0.004546475596725941
1792.0,-0.0019164860714226961
1920.0,0.0023921579122543335
2048.0,0.003590499749407172
2304.0,0.002147350227460265
2560.0,-0.0021115229465067387
2816.0,-0.004140409175306559
3072.0,-0.0025499030016362667
3328.0,0.0015948748914524913
3584.0,-0.003014114685356617
3840.0,-0.004616418853402138
4096.0,-0.004754979629069567
4608.0,-0.0032046290580183268
5120.0,-0.00384867493994534
5632.0,-0.001233971561305225
6144.0,-0.0031373410020023584
6656.0,0.0016620107926428318
7168.0,0.0013450593687593937
7680.0,0.0013271764619275928
8192.0,0.001273414702154696
end
