version,3.0
numOfCh,1
type,point
parent_name,19e3e_1dot0-0dot1
ch_type,1_1
kcount,1
numberNandB,1
brightnessNandB,1
carpet pos,0
pc,0
Time (ms),CH1 Auto-Correlation
1.0,0.07994607836008072
2.0,0.07325491309165955
3.0,0.06786129623651505
4.0,0.06300196796655655
5.0,0.058911073952913284
6.0,0.05524411424994469
7.0,0.05173823609948158
8.0,0.04850824177265167
9.0,0.04573896527290344
10.0,0.043532416224479675
11.0,0.04153402894735336
12.0,0.03964291885495186
13.0,0.03772628307342529
14.0,0.03604109585285187
15.0,0.034176457673311234
16.0,0.03250762075185776
18.0,0.029638947919011116
20.0,0.02751433290541172
22.0,0.025508545339107513
24.0,0.024021482095122337
26.0,0.02284732647240162
28.0,0.021720290184020996
30.0,0.02096731960773468
32.0,0.02054229937493801
36.0,0.01907578483223915
40.0,0.017958590760827065
44.0,0.016577983275055885
48.0,0.015760404989123344
52.0,0.015465343371033669
56.0,0.015349376015365124
60.0,0.014788663946092129
64.0,0.013507815077900887
72.0,0.01110534742474556
80.0,0.007836748845875263
88.0,0.0070498050190508366
96.0,0.008054072968661785
104.0,0.009246580302715302
112.0,0.00885982345789671
120.0,0.007025301922112703
128.0,0.005385976750403643
144.0,0.0024319784715771675
160.0,-4.6865432523190975e-05
176.0,-0.001103969058021903
192.0,-0.00011791059660026804
208.0,1.1787699804699514e-05
224.0,0.001193435164168477
240.0,0.0006609750562347472
256.0,-0.0024056846741586924
288.0,-0.0018698357744142413
320.0,-0.003043172648176551
352.0,-0.001191916991956532
384.0,-0.001067077973857522
416.0,-0.0012406219029799104
448.0,-0.00045818035141564906
480.0,0.0026778285391628742
512.0,0.003532971953973174
576.0,0.0066985697485506535
640.0,0.005136686377227306
704.0,0.002464175457134843
768.0,0.002011252800002694
832.0,7.961803203215823e-05
896.0,-0.001367966877296567
960.0,-0.0036564087495207787
1024.0,-0.004738256800919771
1152.0,0.00015664583770558238
1280.0,0.002467024838551879
1408.0,0.0012450942303985357
1536.0,-0.005746775772422552
1664.0,-0.006021596025675535
1792.0,0.0020488016307353973
1920.0,0.001440943218767643
2048.0,-0.002174372086301446
2304.0,-0.0009069515508599579
2560.0,0.0021892725490033627
2816.0,-0.004556378349661827
3072.0,-5.17158696311526e-05
3328.0,0.0006815381930209696
3584.0,-0.004182346165180206
3840.0,0.0011559255653992295
4096.0,-0.00033408706076443195
4608.0,-0.0011200153967365623
5120.0,0.00046252133324742317
5632.0,0.0027879169210791588
6144.0,0.00018228990666102618
6656.0,-0.0014334393199533224
7168.0,0.0014673065161332488
7680.0,0.0011426927521824837
8192.0,0.0016370570519939065
end
