version,3.0
numOfCh,1
type,point
parent_name,19e3e_1dot0-0dot1
ch_type,1_1
kcount,1
numberNandB,1
brightnessNandB,1
carpet pos,0
pc,0
Time (ms),CH1 Auto-Correlation
1.0,0.08092720061540604
2.0,0.07442592829465866
3.0,0.06883987039327621
4.0,0.06395731121301651
5.0,0.05985429883003235
6.0,0.0564846396446228
7.0,0.053737424314022064
8.0,0.05112692713737488
9.0,0.04860474914312363
10.0,0.046318721026182175
11.0,0.04416965693235397
12.0,0.042221877723932266
13.0,0.04038767144083977
14.0,0.03853657841682434
15.0,0.036930643022060394
16.0,0.035547446459531784
18.0,0.033358439803123474
20.0,0.031410593539476395
22.0,0.029625624418258667
24.0,0.028227781876921654
26.0,0.027063772082328796
28.0,0.024988021701574326
30.0,0.023324351757764816
32.0,0.021884752437472343
36.0,0.01833106018602848
40.0,0.0156423207372427
44.0,0.013391940854489803
48.0,0.01157556101679802
52.0,0.010112339630723
56.0,0.008556080050766468
60.0,0.007405462209135294
64.0,0.0062153534963727
72.0,0.0062923370860517025
80.0,0.007073224987834692
88.0,0.007632954511791468
96.0,0.008675283752381802
104.0,0.008351783268153667
112.0,0.007096232380717993
120.0,0.00666045444086194
128.0,0.005838835146278143
144.0,0.0026710787788033485
160.0,0.0004507806443143636
176.0,-0.002234996994957328
192.0,-0.0028202077373862267
208.0,-0.004365305881947279
224.0,-0.0047668893821537495
240.0,-0.003038120921701193
256.0,-0.001107478397898376
288.0,0.00015598144091200083
320.0,-0.003537472104653716
352.0,-0.004496320616453886
384.0,-0.004982137121260166
416.0,-0.0038956294301897287
448.0,-0.0029096566140651703
480.0,-0.0037684892304241657
512.0,0.0007003899081610143
576.0,0.0018726855050772429
640.0,0.0009525998611934483
704.0,-0.001135974656790495
768.0,0.003144647926092148
832.0,0.0014878299552947283
896.0,0.0017598262056708336
960.0,2.2499882561533013e-06
1024.0,-0.00034607035922817886
1152.0,-0.0021342849358916283
1280.0,0.0007684666779823601
1408.0,0.007911818102002144
1536.0,0.0034228975418955088
1664.0,0.0002800443035084754
1792.0,-0.004253903403878212
1920.0,-0.00489769084379077
2048.0,-0.0003553889109753072
2304.0,0.0015496885171160102
2560.0,0.0010342878522351384
2816.0,0.0017914529889822006
3072.0,-0.0001209995461977087
3328.0,-0.005633221939206123
3584.0,-0.0017823546659201384
3840.0,0.003493731841444969
4096.0,0.0005842680111527443
4608.0,-0.0030035634990781546
5120.0,-0.0017197285778820515
5632.0,-0.0009718254441395402
6144.0,-0.0006529878592118621
6656.0,0.002290223026648164
7168.0,-0.004931982606649399
7680.0,0.0014032518956810236
8192.0,0.0005599305150099099
end
