version,3.0
numOfCh,1
type,point
parent_name,19e3e_1dot0-0dot1
ch_type,1_1
kcount,1
numberNandB,1
brightnessNandB,1
carpet pos,0
pc,0
Time (ms),CH1 Auto-Correlation
1.0,0.08408961445093155
2.0,0.07737360894680023
3.0,0.07146017998456955
4.0,0.06634736061096191
5.0,0.06172376498579979
6.0,0.05795719102025032
7.0,0.054446637630462646
8.0,0.05129653215408325
9.0,0.048465970903635025
10.0,0.0458822064101696
11.0,0.043456751853227615
12.0,0.04132581502199173
13.0,0.03940325602889061
14.0,0.03764055296778679
15.0,0.03590600937604904
16.0,0.03425965458154678
18.0,0.031164860352873802
20.0,0.028712555766105652
22.0,0.02689770981669426
24.0,0.025213170796632767
26.0,0.02332248166203499
28.0,0.02177250385284424
30.0,0.020365282893180847
32.0,0.01880829408764839
36.0,0.017367029562592506
40.0,0.01586752012372017
44.0,0.013942372985184193
48.0,0.012614254839718342
52.0,0.011451204307377338
56.0,0.010707853361964226
60.0,0.010335913859307766
64.0,0.009544651955366135
72.0,0.008272582665085793
80.0,0.006887973286211491
88.0,0.007055219728499651
96.0,0.007470962591469288
104.0,0.0072929225862026215
112.0,0.008197820745408535
120.0,0.009615485556423664
128.0,0.010712694376707077
144.0,0.006590590346604586
160.0,0.003096322063356638
176.0,0.0015674557071179152
192.0,0.0004919309285469353
208.0,0.003355281660333276
224.0,0.0037849745713174343
240.0,0.004227322526276112
256.0,0.005640604067593813
288.0,0.006644388195127249
320.0,0.0027327733114361763
352.0,-9.089315426535904e-05
384.0,-0.0005164503236301243
416.0,-0.00026434072060510516
448.0,-2.3654398319195025e-05
480.0,0.00034170705475844443
512.0,0.0001232105860253796
576.0,-0.0027812602929770947
640.0,-0.0038068469148129225
704.0,-0.005819286219775677
768.0,0.0018778096418827772
832.0,0.0019690757617354393
896.0,0.002364369109272957
960.0,0.0009150402620434761
1024.0,0.0003261699457652867
1152.0,-0.0028912252746522427
1280.0,-0.0021594210993498564
1408.0,-0.002524943556636572
1536.0,-0.004608841147273779
1664.0,7.274557719938457e-05
1792.0,0.0006272950558923185
1920.0,-0.00042208845843560994
2048.0,0.001281019882299006
2304.0,0.00015754339983686805
2560.0,-0.004796050488948822
2816.0,-0.0014122951542958617
3072.0,-0.0010408485541120172
3328.0,-0.003954452462494373
3584.0,-0.002575857564806938
3840.0,0.004177037160843611
4096.0,0.002411654917523265
4608.0,0.003118335735052824
5120.0,-0.0007775836274959147
5632.0,-0.0023206076584756374
6144.0,0.004049068782478571
6656.0,0.0005765890819020569
7168.0,-0.003051303094252944
7680.0,-0.0002158898423658684
8192.0,0.0027855352964252234
end
