version,3.0
numOfCh,1
type,point
parent_name,19e3e_1dot0-0dot1
ch_type,1_1
kcount,1
numberNandB,1
brightnessNandB,1
carpet pos,0
pc,0
Time (ms),CH1 Auto-Correlation
1.0,0.093776173889637
2.0,0.08702648431062698
3.0,0.08130958676338196
4.0,0.07639028877019882
5.0,0.07208798825740814
6.0,0.06837744265794754
7.0,0.06518776714801788
8.0,0.0621606707572937
9.0,0.059476088732481
10.0,0.057063065469264984
11.0,0.054791681468486786
12.0,0.052493415772914886
13.0,0.0503179170191288
14.0,0.04839783534407616
15.0,0.0465501993894577
16.0,0.04491870850324631
18.0,0.042282454669475555
20.0,0.03997310250997543
22.0,0.03836696594953537
24.0,0.03671335428953171
26.0,0.0348392091691494
28.0,0.03306028991937637
30.0,0.031483639031648636
32.0,0.030228085815906525
36.0,0.027637269347906113
40.0,0.025288905948400497
44.0,0.023349812254309654
48.0,0.022026075050234795
52.0,0.021444479003548622
56.0,0.02034374140202999
60.0,0.01879296824336052
64.0,0.01740249991416931
72.0,0.01518117543309927
80.0,0.013618385419249535
88.0,0.012530125677585602
96.0,0.012343631125986576
104.0,0.011065367609262466
112.0,0.011054906994104385
120.0,0.011196434497833252
128.0,0.010968360118567944
144.0,0.012578563764691353
160.0,0.013333696871995926
176.0,0.012936332263052464
192.0,0.012282933108508587
208.0,0.01284866314381361
224.0,0.010792375542223454
240.0,0.008965504355728626
256.0,0.006644345819950104
288.0,0.004955845884978771
320.0,0.005146770738065243
352.0,0.004893952514976263
384.0,0.005540516693145037
416.0,0.004170968197286129
448.0,0.004204634111374617
480.0,0.0058900644071400166
512.0,0.0064159263856709
576.0,0.003402320435270667
640.0,0.001892617903649807
704.0,2.221012800873723e-05
768.0,0.0001483717205701396
832.0,-0.0037134396843612194
896.0,-0.0036049033515155315
960.0,-0.006323586218059063
1024.0,-0.00802108459174633
1152.0,-0.003454979043453932
1280.0,-0.004849554039537907
1408.0,-0.0007553627365268767
1536.0,-0.004310162737965584
1664.0,-0.0014779219636693597
1792.0,-0.004122882150113583
1920.0,-0.0020730483811348677
2048.0,-0.005245629232376814
2304.0,-0.002752941334620118
2560.0,-0.00019398840959183872
2816.0,-0.002029240829870105
3072.0,-0.003055120585486293
3328.0,-0.004319122526794672
3584.0,-0.0018483405001461506
3840.0,0.0008423470426350832
4096.0,0.001193649135529995
4608.0,-0.0029376910533756018
5120.0,-6.201575888553634e-05
5632.0,0.0021844827570021152
6144.0,0.006165632978081703
6656.0,0.0063279471360147
7168.0,-0.000535941740963608
7680.0,-0.004866106901317835
8192.0,-0.0008037000661715865
end
