version,3.0
numOfCh,1
type,point
parent_name,19e3e_1dot0-0dot1
ch_type,1_1
kcount,1
numberNandB,1
brightnessNandB,1
carpet pos,0
pc,0
Time (ms),CH1 Auto-Correlation
1.0,0.09755027294158936
2.0,0.0910981297492981
3.0,0.08543276786804199
4.0,0.08062220364809036
5.0,0.07622712850570679
6.0,0.07219339162111282
7.0,0.06864401698112488
8.0,0.06544256210327148
9.0,0.06259257346391678
10.0,0.060142289847135544
11.0,0.057922717183828354
12.0,0.05603467673063278
13.0,0.05411691218614578
14.0,0.05249246209859848
15.0,0.0508514903485775
16.0,0.04935671016573906
18.0,0.04655122011899948
20.0,0.04384586587548256
22.0,0.041863299906253815
24.0,0.04011279717087746
26.0,0.03819148987531662
28.0,0.036408256739377975
30.0,0.03422112390398979
32.0,0.03231975436210632
36.0,0.029712984338402748
40.0,0.027732620015740395
44.0,0.026489844545722008
48.0,0.024899376556277275
52.0,0.023032568395137787
56.0,0.021837111562490463
60.0,0.02066449262201786
64.0,0.018807977437973022
72.0,0.014395741745829582
80.0,0.01230676844716072
88.0,0.011263331398367882
96.0,0.00888842809945345
104.0,0.006873810198158026
112.0,0.0070817419327795506
120.0,0.006863914895802736
128.0,0.00664518354460597
144.0,0.007382974494248629
160.0,0.007216302212327719
176.0,0.008275244385004044
192.0,0.006182806100696325
208.0,0.005703685339540243
224.0,0.0035235604736953974
240.0,0.0018595138099044561
256.0,0.0043290285393595695
288.0,0.005676149390637875
320.0,0.004361295141279697
352.0,0.0033727039117366076
384.0,0.0017642213497310877
416.0,0.001632068888284266
448.0,-0.003853533184155822
480.0,-0.005032764282077551
512.0,-0.004414665047079325
576.0,-0.0005863167461939156
640.0,0.0019236498046666384
704.0,-0.005327510181814432
768.0,-0.003683584975078702
832.0,-0.004212076775729656
896.0,-0.002832592697814107
960.0,-0.004517580848187208
1024.0,-0.004133452195674181
1152.0,-0.0013187250588089228
1280.0,-0.0046011172235012054
1408.0,-0.0030359968077391386
1536.0,-0.0006493250839412212
1664.0,-8.142513979692012e-05
1792.0,0.004937389399856329
1920.0,-0.0012643580557778478
2048.0,0.003365447511896491
2304.0,0.004538659006357193
2560.0,0.0034956291783601046
2816.0,-0.0019946517422795296
3072.0,-0.00517730787396431
3328.0,-0.002920557279139757
3584.0,0.0011922516860067844
3840.0,-0.0015562145272269845
4096.0,-0.0007869989494793117
4608.0,-1.3707689504371956e-05
5120.0,-0.00013672138447873294
5632.0,0.0008619104046374559
6144.0,-0.003280634991824627
6656.0,-0.0007969792932271957
7168.0,0.0012433371739462018
7680.0,-0.0014457657234743237
8192.0,0.005003897938877344
end
