version,3.0
numOfCh,1
type,point
parent_name,19e3e_1dot0-0dot1
ch_type,1_1
kcount,1
numberNandB,1
brightnessNandB,1
carpet pos,0
pc,0
Time (ms),CH1 Auto-Correlation
1.0,0.08440311253070831
2.0,0.07780823111534119
3.0,0.07222425192594528
4.0,0.06762367486953735
5.0,0.06359167397022247
6.0,0.06003729999065399
7.0,0.05693193897604942
8.0,0.054078295826911926
9.0,0.0518040768802166
10.0,0.049643974751234055
11.0,0.04774806275963783
12.0,0.04585675150156021
13.0,0.04408253729343414
14.0,0.042486678808927536
15.0,0.040884364396333694
16.0,0.039579421281814575
18.0,0.037128400057554245
20.0,0.0349520705640316
22.0,0.0331447497010231
24.0,0.03152748942375183
26.0,0.030019856989383698
28.0,0.028651440516114235
30.0,0.02798399142920971
32.0,0.02711678110063076
36.0,0.025376154109835625
40.0,0.023618096485733986
44.0,0.021877719089388847
48.0,0.020767921581864357
52.0,0.02042955905199051
56.0,0.02020072564482689
60.0,0.019198918715119362
64.0,0.017406534403562546
72.0,0.015673544257879257
80.0,0.013374981470406055
88.0,0.011781301349401474
96.0,0.00993115920573473
104.0,0.008672954514622688
112.0,0.008768940344452858
120.0,0.008942242711782455
128.0,0.007958438247442245
144.0,0.00860605202615261
160.0,0.00782169122248888
176.0,0.005386729724705219
192.0,0.0037771863862872124
208.0,0.002173925517126918
224.0,0.00544316042214632
240.0,0.006253605708479881
256.0,0.00712041649967432
288.0,0.0052032568491995335
320.0,0.003838747274130583
352.0,0.0036563428584486246
384.0,0.004463534336537123
416.0,0.004729908891022205
448.0,0.006887122057378292
480.0,0.007643801625818014
512.0,0.005259346682578325
576.0,0.0017923120176419616
640.0,0.005751592107117176
704.0,0.004898170940577984
768.0,0.0023244170006364584
832.0,-0.0010921062203124166
896.0,0.0026170709170401096
960.0,0.0023899758234620094
1024.0,0.001286740298382938
1152.0,-0.000477757363114506
1280.0,-0.004671386908739805
1408.0,0.0015099780866876245
1536.0,-0.004021978471428156
1664.0,-0.0068805525079369545
1792.0,-0.005279477220028639
1920.0,-0.008154605515301228
2048.0,-0.0038636932149529457
2304.0,-0.001878672163002193
2560.0,-0.001771539100445807
2816.0,-0.0025875407736748457
3072.0,-0.004386679735034704
3328.0,-0.0026233703829348087
3584.0,-0.0034715153742581606
3840.0,-0.0016417511506006122
4096.0,0.0007355992565862834
4608.0,0.0028855036944150925
5120.0,0.005952006671577692
5632.0,0.003915002569556236
6144.0,1.4604394891648553e-05
6656.0,-0.006088307127356529
7168.0,-0.007844552397727966
7680.0,-0.005998070351779461
8192.0,0.0015509496442973614
end
