version,3.0
numOfCh,1
type,point
parent_name,19e3e_1dot0-0dot1
ch_type,1_1
kcount,1
numberNandB,1
brightnessNandB,1
carpet pos,0
pc,0
Time (ms),CH1 Auto-Correlation
1.0,0.09340190887451172
2.0,0.08658023178577423
3.0,0.08068089187145233
4.0,0.07549639791250229
5.0,0.07115277647972107
6.0,0.06717369705438614
7.0,0.06353377550840378
8.0,0.06028320640325546
9.0,0.05743666738271713
10.0,0.05475114285945892
11.0,0.052521347999572754
12.0,0.050398603081703186
13.0,0.04844282940030098
14.0,0.04672747105360031
15.0,0.04507770389318466
16.0,0.04361196607351303
18.0,0.04139557108283043
20.0,0.03906868398189545
22.0,0.03669603168964386
24.0,0.03466331958770752
26.0,0.03299644961953163
28.0,0.031417734920978546
30.0,0.029927240684628487
32.0,0.02835845947265625
36.0,0.025509698316454887
40.0,0.022554652765393257
44.0,0.02036580815911293
48.0,0.018859267234802246
52.0,0.016725318506360054
56.0,0.015318338759243488
60.0,0.014112807810306549
64.0,0.01201039832085371
72.0,0.008858909830451012
80.0,0.006004303693771362
88.0,0.0034872416872531176
96.0,0.001720305997878313
104.0,-0.0001466308895032853
112.0,-0.0008685805951245129
120.0,-2.351885814277921e-05
128.0,-0.0001734316610964015
144.0,0.0012479680590331554
160.0,0.004085267428308725
176.0,0.006463430821895599
192.0,0.005918652750551701
208.0,0.0056503694504499435
224.0,0.006859233602881432
240.0,0.006192895583808422
256.0,0.005203842651098967
288.0,-0.00018466703477315605
320.0,0.00288838311098516
352.0,0.003360342001542449
384.0,0.00527308601886034
416.0,0.0027284487150609493
448.0,-0.00023166509345173836
480.0,0.0007589026936329901
512.0,0.0040643224492669106
576.0,0.005816427990794182
640.0,0.007214811630547047
704.0,0.0024445699527859688
768.0,-6.0089692851761356e-05
832.0,-0.004433865193277597
896.0,-0.0003310709726065397
960.0,0.00102169718593359
1024.0,-0.0032177853863686323
1152.0,-0.00010409554670332
1280.0,-0.001327789155766368
1408.0,-0.00013687893806491047
1536.0,-0.0032651142682880163
1664.0,-0.0030378433875739574
1792.0,-0.0029883321840316057
1920.0,0.0019556914921849966
2048.0,0.0011454079067334533
2304.0,0.003792561125010252
2560.0,0.005312217865139246
2816.0,0.003633042797446251
3072.0,-0.0010706600733101368
3328.0,0.002771535888314247
3584.0,0.00011475193605292588
3840.0,-0.0034482767805457115
4096.0,-0.0008303773356601596
4608.0,-0.0036413122434169054
5120.0,-0.003239734098315239
5632.0,-0.0006264179246500134
6144.0,0.0030620566103607416
6656.0,-0.0023179773706942797
7168.0,-0.0028401236049830914
7680.0,-0.0019616028293967247
8192.0,-0.0027829157188534737
end
