version,3.0
numOfCh,1
type,point
parent_name,19e3e_1dot0-0dot1
ch_type,1_1
kcount,1
numberNandB,1
brightnessNandB,1
carpet pos,0
pc,0
Time (ms),CH1 Auto-Correlation
1.0,0.08682137727737427
2.0,0.0797400027513504
3.0,0.07341800630092621
4.0,0.06779748201370239
5.0,0.06307599693536758
6.0,0.059028785675764084
7.0,0.05561165511608124
8.0,0.05286855250597
9.0,0.050356946885585785
10.0,0.048053957521915436
11.0,0.04584534466266632
12.0,0.043768275529146194
13.0,0.041982658207416534
14.0,0.04036707431077957
15.0,0.038824412971735
16.0,0.037273261696100235
18.0,0.0343538336455822
20.0,0.03184834122657776
22.0,0.029437251389026642
24.0,0.0273240115493536
26.0,0.02552199922502041
28.0,0.024061169475317
30.0,0.02290617860853672
32.0,0.02197219803929329
36.0,0.01968533545732498
40.0,0.017697496339678764
44.0,0.016795137897133827
48.0,0.01475747860968113
52.0,0.012233275920152664
56.0,0.009343083947896957
60.0,0.0077171605080366135
64.0,0.005994732026010752
72.0,0.005554042290896177
80.0,0.005539665464311838
88.0,0.005425695795565844
96.0,0.005544030573219061
104.0,0.003986566327512264
112.0,0.004704423248767853
120.0,0.0071791489608585835
128.0,0.008091212250292301
144.0,0.0039930641651153564
160.0,0.002477961825206876
176.0,0.0032696423586457968
192.0,0.002249492798000574
208.0,0.0038628641050308943
224.0,0.0036504699382930994
240.0,0.002872656099498272
256.0,0.003278143238276243
288.0,0.0019065048545598984
320.0,0.002836234401911497
352.0,0.0014636723790317774
384.0,0.00016382780449930578
416.0,-0.0009218159248121083
448.0,-0.0021639771293848753
480.0,-0.0018341096583753824
512.0,0.0006271472084335983
576.0,5.010779568692669e-05
640.0,0.0010495597962290049
704.0,0.0011455804342404008
768.0,-0.0002346633409615606
832.0,0.0006347811431623995
896.0,0.002618159633129835
960.0,0.005623971112072468
1024.0,0.0016306523466482759
1152.0,0.0011316718300804496
1280.0,-0.0011369632557034492
1408.0,-0.0034557559993118048
1536.0,-0.0025995534379035234
1664.0,-0.0021271042060106993
1792.0,-0.0011086608283221722
1920.0,0.0039272611029446125
2048.0,-0.0006683914107270539
2304.0,-0.004283548332750797
2560.0,-0.002736622467637062
2816.0,-0.002855796366930008
3072.0,-0.003752525197342038
3328.0,-0.00046574557200074196
3584.0,-0.0019333105301484466
3840.0,0.004719308577477932
4096.0,0.0018459924031049013
4608.0,0.00020202979794703424
5120.0,0.0030710443388670683
5632.0,-0.0002823945542331785
6144.0,-0.0003924150369130075
6656.0,-0.0032029799185693264
7168.0,-0.0035844615194946527
7680.0,-1.7392485460732132e-05
8192.0,-0.0033198529854416847
end
