version,3.0
numOfCh,1
type,point
parent_name,19e3e_1dot0-0dot1
ch_type,1_1
kcount,1
numberNandB,1
brightnessNandB,1
carpet pos,0
pc,0
Time (ms),CH1 Auto-Correlation
1.0,0.091724693775177
2.0,0.08477998524904251
3.0,0.07864704728126526
4.0,0.07295691221952438
5.0,0.06778497993946075
6.0,0.06324703246355057
7.0,0.059274736791849136
8.0,0.055887870490550995
9.0,0.0527082197368145
10.0,0.04971099644899368
11.0,0.04691563919186592
12.0,0.04438846930861473
13.0,0.0422714501619339
14.0,0.04040571674704552
15.0,0.0390256904065609
16.0,0.037708692252635956
18.0,0.03479587286710739
20.0,0.03256941959261894
22.0,0.030558224767446518
24.0,0.028817329555749893
26.0,0.02698054164648056
28.0,0.02526003308594227
30.0,0.02389594167470932
32.0,0.022788716480135918
36.0,0.020818065851926804
40.0,0.019505571573972702
44.0,0.018656477332115173
48.0,0.01815190538764
52.0,0.017680343240499496
56.0,0.01739581488072872
60.0,0.016445059329271317
64.0,0.015799295157194138
72.0,0.01337587833404541
80.0,0.012702401727437973
88.0,0.012908988632261753
96.0,0.012984653934836388
104.0,0.01282710675150156
112.0,0.01133622694760561
120.0,0.010154818184673786
128.0,0.009999840520322323
144.0,0.00932951457798481
160.0,0.009490108117461205
176.0,0.008071254938840866
192.0,0.006198781076818705
208.0,0.006466267164796591
224.0,0.0042152185924351215
240.0,0.0010104094399139285
256.0,0.0012641908833757043
288.0,0.0019358546705916524
320.0,0.004045140463858843
352.0,0.002631891518831253
384.0,0.0007215854711830616
416.0,0.00027750589651986957
448.0,-0.002755019348114729
480.0,0.002061309991404414
512.0,0.0034721253905445337
576.0,0.0032332271803170443
640.0,0.005765478126704693
704.0,0.0061117298901081085
768.0,0.006527651567012072
832.0,0.004965774714946747
896.0,0.0036816049832850695
960.0,0.000999311450868845
1024.0,0.0008413232280872762
1152.0,-0.0004809024976566434
1280.0,0.005131918471306562
1408.0,0.0048919967375695705
1536.0,0.003499820828437805
1664.0,0.0009218878694809973
1792.0,-0.00014509564789477736
1920.0,-1.664051342231687e-05
2048.0,0.003945386037230492
2304.0,-0.0036535824183374643
2560.0,-0.004167392384260893
2816.0,-0.002600261941552162
3072.0,-0.003797885263338685
3328.0,-0.002471952699124813
3584.0,-0.00469826627522707
3840.0,-0.003096210304647684
4096.0,-0.002700972603634
4608.0,-0.004901614971458912
5120.0,-0.0021349438466131687
5632.0,-0.003605547593906522
6144.0,-0.004370821174234152
6656.0,-0.003742256434634328
7168.0,0.0008575767278671265
7680.0,0.0013585357228294015
8192.0,0.000305424997350201
end
