version,3.0
numOfCh,1
type,point
parent_name,19e3e_1dot0-0dot1
ch_type,1_1
kcount,1
numberNandB,1
brightnessNandB,1
carpet pos,0
pc,0
Time (ms),CH1 Auto-Correlation
1.0,0.10341817885637283
2.0,0.09661703556776047
3.0,0.09091373533010483
4.0,0.0858694314956665
5.0,0.08143093436956406
6.0,0.07758456468582153
7.0,0.07434598356485367
8.0,0.07124347239732742
9.0,0.06831658631563187
10.0,0.06564177572727203
11.0,0.06315072625875473
12.0,0.06083643063902855
13.0,0.058702971786260605
14.0,0.056735970079898834
15.0,0.05504653975367546
16.0,0.05344929173588753
18.0,0.05059153214097023
20.0,0.04831033572554588
22.0,0.04650402441620827
24.0,0.044611841440200806
26.0,0.042900554835796356
28.0,0.04217340424656868
30.0,0.04146219417452812
32.0,0.04049887880682945
36.0,0.039739158004522324
40.0,0.03901318460702896
44.0,0.037100475281476974
48.0,0.03556178882718086
52.0,0.034711189568042755
56.0,0.03362704813480377
60.0,0.03305532783269882
64.0,0.03138401731848717
72.0,0.02778569422662258
80.0,0.027606256306171417
88.0,0.027578065171837807
96.0,0.026706043630838394
104.0,0.026540160179138184
112.0,0.025473779067397118
120.0,0.0245926883071661
128.0,0.02493934892117977
144.0,0.022106382995843887
160.0,0.017613841220736504
176.0,0.013059191405773163
192.0,0.011130242608487606
208.0,0.006684822030365467
224.0,0.006448628846555948
240.0,0.006488677114248276
256.0,0.004047267604619265
288.0,0.005213817115873098
320.0,0.0071738408878445625
352.0,0.008158056996762753
384.0,0.001991356024518609
416.0,0.0033805298153311014
448.0,-0.0008742414647713304
480.0,-0.0011408696882426739
512.0,-0.0025561789516359568
576.0,-0.0037103525828570127
640.0,0.0001906140096252784
704.0,0.0002631463867146522
768.0,0.00023811626306269318
832.0,-0.00436921464279294
896.0,-0.006764042656868696
960.0,-0.006197371985763311
1024.0,-0.0066148932091891766
1152.0,-0.010179471224546432
1280.0,-0.005646754056215286
1408.0,0.0013440639013424516
1536.0,0.0002168602659367025
1664.0,0.007837213575839996
1792.0,0.009690345264971256
1920.0,0.004769459832459688
2048.0,0.006514286156743765
2304.0,-0.00017546126036904752
2560.0,0.0011312855640426278
2816.0,-0.0006014521350152791
3072.0,0.0047990065068006516
3328.0,0.0067589120008051395
3584.0,-0.006504530552774668
3840.0,-0.007834873162209988
4096.0,-0.011559488251805305
4608.0,-0.005553424824029207
5120.0,0.004086346365511417
5632.0,-0.0029583682771772146
6144.0,-0.0070533547550439835
6656.0,-0.009554625488817692
7168.0,0.001897247158922255
7680.0,0.0006555189611390233
8192.0,0.007452966179698706
end
