version,3.0
numOfCh,1
type,point
parent_name,19e3e_1dot0-0dot1
ch_type,1_1
kcount,1
numberNandB,1
brightnessNandB,1
carpet pos,0
pc,0
Time (ms),CH1 Auto-Correlation
1.0,0.09603194892406464
2.0,0.08879785239696503
3.0,0.08253415673971176
4.0,0.07687997817993164
5.0,0.07203155010938644
6.0,0.06797144562005997
7.0,0.06426556408405304
8.0,0.060892052948474884
9.0,0.05801601707935333
10.0,0.05522787943482399
11.0,0.05269442871212959
12.0,0.0504363514482975
13.0,0.04837329685688019
14.0,0.04642786085605621
15.0,0.04485684633255005
16.0,0.043388593941926956
18.0,0.0408196859061718
20.0,0.0386197455227375
22.0,0.03667218238115311
24.0,0.03504366800189018
26.0,0.034365057945251465
28.0,0.03378060832619667
30.0,0.032855674624443054
32.0,0.03133661299943924
36.0,0.027606545016169548
40.0,0.025210082530975342
44.0,0.02297508344054222
48.0,0.021114449948072433
52.0,0.020239021629095078
56.0,0.020152680575847626
60.0,0.01968619041144848
64.0,0.018357260152697563
72.0,0.014894090592861176
80.0,0.011654084548354149
88.0,0.010809804312884808
96.0,0.01030531246215105
104.0,0.009500986896455288
112.0,0.00821606907993555
120.0,0.006875013001263142
128.0,0.006038298364728689
144.0,0.005277362186461687
160.0,0.004728749394416809
176.0,0.0012289470760151744
192.0,0.0010334827238693833
208.0,-0.00044350267853587866
224.0,-0.00046523709897883236
240.0,-0.0009843958541750908
256.0,-0.0018204194493591785
288.0,-0.002779860282316804
320.0,-0.005576931871473789
352.0,-0.0033650395926088095
384.0,-0.0022789707873016596
416.0,-0.00159541517496109
448.0,-0.00181952107232064
480.0,-0.0038652829825878143
512.0,-0.0035407734103500843
576.0,-0.006269525270909071
640.0,-0.005123396869748831
704.0,-0.004983695223927498
768.0,-0.006010239943861961
832.0,-0.005285546649247408
896.0,-0.003922616597265005
960.0,0.0009731082827784121
1024.0,0.005980790592730045
1152.0,0.0016900610644370317
1280.0,-0.002812345279380679
1408.0,-0.0005258504534140229
1536.0,0.0011411476880311966
1664.0,0.0015402983408421278
1792.0,-0.001972548896446824
1920.0,-0.008849583566188812
2048.0,-0.004448871593922377
2304.0,0.0047220150008797646
2560.0,0.0035411908756941557
2816.0,-0.007166862487792969
3072.0,-0.005609083455055952
3328.0,0.0004230522317811847
3584.0,-1.3701885109185241e-05
3840.0,0.003015416208654642
4096.0,0.0026893557514995337
4608.0,0.000679427816066891
5120.0,0.00012096914724679664
5632.0,0.0007896902388893068
6144.0,-0.002399013377726078
6656.0,-0.0005879219388589263
7168.0,-0.001892342697829008
7680.0,-0.0015964804915711284
8192.0,0.004666586872190237
end
