version,3.0
numOfCh,1
type,point
parent_name,19e3e_1dot0-0dot1
ch_type,1_1
kcount,1
numberNandB,1
brightnessNandB,1
carpet pos,0
pc,0
Time (ms),CH1 Auto-Correlation
1.0,0.08439280092716217
2.0,0.07786285132169724
3.0,0.0724564716219902
4.0,0.06757397204637527
5.0,0.06313475966453552
6.0,0.05922342464327812
7.0,0.0556253120303154
8.0,0.052415311336517334
9.0,0.04931606352329254
10.0,0.04637735337018967
11.0,0.04371318966150284
12.0,0.041396480053663254
13.0,0.03945127874612808
14.0,0.03764411807060242
15.0,0.03628064692020416
16.0,0.03522120788693428
18.0,0.03353529050946236
20.0,0.03196949139237404
22.0,0.030505113303661346
24.0,0.029064089059829712
26.0,0.027930578216910362
28.0,0.026534009724855423
30.0,0.024788806214928627
32.0,0.022471696138381958
36.0,0.01871936395764351
40.0,0.01685863547027111
44.0,0.016031604260206223
48.0,0.014922943897545338
52.0,0.013659439980983734
56.0,0.012863663025200367
60.0,0.011724090203642845
64.0,0.01083975750952959
72.0,0.009944310411810875
80.0,0.007200024556368589
88.0,0.004701750818639994
96.0,0.0038591702468693256
104.0,0.003944597207009792
112.0,0.003022226970642805
120.0,0.0029499216470867395
128.0,0.003689298639073968
144.0,0.0028654439374804497
160.0,0.001856612623669207
176.0,0.0019603914115577936
192.0,0.003489242633804679
208.0,0.0032746153883635998
224.0,0.0014838206116110086
240.0,0.00021971222304273397
256.0,-0.00058776541845873
288.0,0.0015645185485482216
320.0,0.0014514838112518191
352.0,-0.0017181449802592397
384.0,-0.0009092314285226166
416.0,-0.0028347426559776068
448.0,-0.005840065889060497
480.0,-0.004307664930820465
512.0,-0.0033973653335124254
576.0,-0.003012636676430702
640.0,0.0013091813307255507
704.0,0.0005935084191150963
768.0,-0.001523524522781372
832.0,-0.00027041014982387424
896.0,0.001891507301479578
960.0,0.0016359499422833323
1024.0,0.002328721806406975
1152.0,-0.0037968286778777838
1280.0,-0.0027209254913032055
1408.0,-0.0007728768978267908
1536.0,0.001288723316974938
1664.0,0.0009524495108053088
1792.0,0.003287361701950431
1920.0,0.0017650745576247573
2048.0,0.0006074334378354251
2304.0,-0.0011219398584216833
2560.0,-0.0024696416221559048
2816.0,-0.0032092018518596888
3072.0,-0.0003662963572423905
3328.0,-8.945471927290782e-05
3584.0,0.0008345487876795232
3840.0,-0.0005136989639140666
4096.0,-0.0008365368703380227
4608.0,-0.003311505075544119
5120.0,-0.00011733316932804883
5632.0,0.003980596549808979
6144.0,0.0010287438053637743
6656.0,-0.0005192618700675666
7168.0,0.0016748191555961967
7680.0,0.003111210186034441
8192.0,-0.001299097086302936
end
