version,3.0
numOfCh,1
type,point
parent_name,19e3e_1dot0-0dot1
ch_type,1_1
kcount,1
numberNandB,1
brightnessNandB,1
carpet pos,0
pc,0
Time (ms),CH1 Auto-Correlation
1.0,0.08529535681009293
2.0,0.078645259141922
3.0,0.07303990423679352
4.0,0.0680275410413742
5.0,0.06386517733335495
6.0,0.05997650325298309
7.0,0.056375280022621155
8.0,0.05330396443605423
9.0,0.05079523101449013
10.0,0.04845099896192551
11.0,0.04661523550748825
12.0,0.044879864901304245
13.0,0.04315276816487312
14.0,0.0417301207780838
15.0,0.04027833044528961
16.0,0.039074499160051346
18.0,0.03677627071738243
20.0,0.03458981215953827
22.0,0.03272633254528046
24.0,0.030990196391940117
26.0,0.029498552903532982
28.0,0.028359388932585716
30.0,0.027183378115296364
32.0,0.02605203539133072
36.0,0.024989895522594452
40.0,0.02316545508801937
44.0,0.021339423954486847
48.0,0.019822318106889725
52.0,0.018138179555535316
56.0,0.016960354521870613
60.0,0.015228083357214928
64.0,0.013955743052065372
72.0,0.012309182435274124
80.0,0.010242708958685398
88.0,0.008081836625933647
96.0,0.005530160386115313
104.0,0.005016743205487728
112.0,0.004964181687682867
120.0,0.004221383947879076
128.0,0.0015024238964542747
144.0,0.0005529430345632136
160.0,0.001930150086991489
176.0,0.0009556005825288594
192.0,0.002416143659502268
208.0,0.0038480262737721205
224.0,0.004150931257754564
240.0,0.006181207951158285
256.0,0.007463450077921152
288.0,0.0082708690315485
320.0,0.005399548914283514
352.0,0.0030597257427871227
384.0,0.0027474171947687864
416.0,-0.0010689659975469112
448.0,1.7599849115867983e-06
480.0,0.001400054432451725
512.0,-0.0016421637265011668
576.0,-0.00023547379532828927
640.0,0.003952573519200087
704.0,0.005069197621196508
768.0,0.001496175304055214
832.0,-0.0045194122940301895
896.0,-0.0031760376878082752
960.0,0.00259499647654593
1024.0,0.0009030381334014237
1152.0,-0.0017590946517884731
1280.0,0.0011138623813167214
1408.0,0.00103538588155061
1536.0,0.000775457825511694
1664.0,0.004769078455865383
1792.0,0.0021392812486737967
1920.0,0.0001645984302740544
2048.0,-0.0011722915805876255
2304.0,-0.006062892731279135
2560.0,-0.004998260177671909
2816.0,-0.004175346344709396
3072.0,-0.006868537049740553
3328.0,0.0014568755868822336
3584.0,-0.0009642064687795937
3840.0,-0.003143866779282689
4096.0,-0.003556743962690234
4608.0,-0.0005502033163793385
5120.0,0.003345550037920475
5632.0,0.0003934967680834234
6144.0,0.0011615167604759336
6656.0,0.0074334340170025826
7168.0,0.001371833961457014
7680.0,0.001848446438089013
8192.0,5.688368764822371e-05
end
