version,3.0
numOfCh,1
type,point
parent_name,19e3e_1dot0-0dot1
ch_type,1_1
kcount,1
numberNandB,1
brightnessNandB,1
carpet pos,0
pc,0
Time (ms),CH1 Auto-Correlation
1.0,0.09548182040452957
2.0,0.08840608596801758
3.0,0.08229468017816544
4.0,0.07709162682294846
5.0,0.07266499847173691
6.0,0.06858411431312561
7.0,0.0649973601102829
8.0,0.06163780391216278
9.0,0.058856163173913956
10.0,0.0563628114759922
11.0,0.054270826280117035
12.0,0.05243552476167679
13.0,0.05072486028075218
14.0,0.049192190170288086
15.0,0.04770754650235176
16.0,0.04634989798069
18.0,0.04388575628399849
20.0,0.04154762998223305
22.0,0.03910989314317703
24.0,0.03674784675240517
26.0,0.034508224576711655
28.0,0.0326412059366703
30.0,0.03062700293958187
32.0,0.02903628535568714
36.0,0.02736840769648552
40.0,0.026547672227025032
44.0,0.02646610513329506
48.0,0.02588927187025547
52.0,0.02496708557009697
56.0,0.023767003789544106
60.0,0.023047979921102524
64.0,0.023281531408429146
72.0,0.02214706316590309
80.0,0.02136191725730896
88.0,0.02065347321331501
96.0,0.019317684695124626
104.0,0.017699318006634712
112.0,0.016293786466121674
120.0,0.015506763011217117
128.0,0.015625035390257835
144.0,0.016199897974729538
160.0,0.01443449966609478
176.0,0.012236197479069233
192.0,0.010431501083076
208.0,0.009947044774889946
224.0,0.008688151836395264
240.0,0.008167878724634647
256.0,0.007200468797236681
288.0,0.007858259603381157
320.0,0.005623926874250174
352.0,0.0038649970665574074
384.0,0.002857423387467861
416.0,0.003675344167277217
448.0,0.0019581220112740993
480.0,0.00025841069873422384
512.0,0.0002997004776261747
576.0,-4.526126213022508e-05
640.0,0.0011398456990718842
704.0,-0.0028640280943363905
768.0,-0.0027241851203143597
832.0,-0.0075276996940374374
896.0,-0.008819580078125
960.0,-0.008147846907377243
1024.0,-0.006653547286987305
1152.0,-0.004422231577336788
1280.0,-0.0017798483604565263
1408.0,-0.0015351030742749572
1536.0,0.0034036000724881887
1664.0,0.003201590385288
1792.0,0.002408623695373535
1920.0,9.079273149836808e-05
2048.0,0.0021832722704857588
2304.0,-0.00017753688734956086
2560.0,9.299724297306966e-06
2816.0,-0.003833357011899352
3072.0,-0.003781824605539441
3328.0,0.0034171128645539284
3584.0,0.005060017574578524
3840.0,0.003991659730672836
4096.0,0.0018585117068141699
4608.0,-0.004417910240590572
5120.0,-0.005626031197607517
5632.0,0.00028375606052577496
6144.0,0.0058081671595573425
6656.0,-0.00023864666582085192
7168.0,-0.005259543191641569
7680.0,-0.0006803799187764525
8192.0,-0.0018599487375468016
end
