version,3.0
numOfCh,1
type,point
parent_name,19e3e_1dot0-0dot1
ch_type,1_1
kcount,1
numberNandB,1
brightnessNandB,1
carpet pos,0
pc,0
Time (ms),CH1 Auto-Correlation
1.0,0.0819707065820694
2.0,0.0755133256316185
3.0,0.07002097368240356
4.0,0.06514648348093033
5.0,0.060817599296569824
6.0,0.057180244475603104
7.0,0.0539664700627327
8.0,0.05138731002807617
9.0,0.049020711332559586
10.0,0.04692492634057999
11.0,0.044798411428928375
12.0,0.043094199150800705
13.0,0.04138781875371933
14.0,0.03978654369711876
15.0,0.03828299418091774
16.0,0.03680441528558731
18.0,0.03425973653793335
20.0,0.031972359865903854
22.0,0.0296369306743145
24.0,0.02764495462179184
26.0,0.026102036237716675
28.0,0.025015532970428467
30.0,0.02381717786192894
32.0,0.022873947396874428
36.0,0.02115941420197487
40.0,0.019246116280555725
44.0,0.017207622528076172
48.0,0.01584760472178459
52.0,0.014031553640961647
56.0,0.012602321803569794
60.0,0.012064661830663681
64.0,0.011404739692807198
72.0,0.009611879475414753
80.0,0.008953825570642948
88.0,0.007961483672261238
96.0,0.006421884521842003
104.0,0.005263694562017918
112.0,0.003378939116373658
120.0,0.0030679586343467236
128.0,0.0037520311307162046
144.0,-0.00012798186799045652
160.0,-0.0002261195913888514
176.0,0.0010245121084153652
192.0,0.0024185108486562967
208.0,0.0029568991158157587
224.0,0.0012228005798533559
240.0,0.0014460835373029113
256.0,-0.0002681144396774471
288.0,-0.0024414830841124058
320.0,-0.0023463962133973837
352.0,0.000573911180254072
384.0,0.0033900842536240816
416.0,0.0010915951570495963
448.0,-0.001331170555204153
480.0,-0.0037936281878501177
512.0,-0.00617721164599061
576.0,-0.0024398830719292164
640.0,-0.004361283034086227
704.0,-0.007471172139048576
768.0,-0.001517596305347979
832.0,-0.0006838745903223753
896.0,0.0010136427590623498
960.0,-0.0004655134689528495
1024.0,-0.005439502652734518
1152.0,-0.0013792248209938407
1280.0,0.0005427211872301996
1408.0,0.0013998523354530334
1536.0,0.0015353455673903227
1664.0,0.005506298039108515
1792.0,0.003773648524656892
1920.0,0.000829712487757206
2048.0,0.0009449675562791526
2304.0,-0.0028679673559963703
2560.0,-0.007289820350706577
2816.0,0.0006456823903135955
3072.0,0.00018740497762337327
3328.0,0.006132141686975956
3584.0,0.003392748301848769
3840.0,-0.0025725392624735832
4096.0,-0.0029520282987505198
4608.0,-0.0011210414813831449
5120.0,0.005471605807542801
5632.0,-0.004933579359203577
6144.0,-0.003842658596113324
6656.0,0.005595139227807522
7168.0,-0.001225725980475545
7680.0,-0.004818299785256386
8192.0,0.005783767439424992
end
