version,3.0
numOfCh,1
type,point
parent_name,19e3e_1dot0-0dot1
ch_type,1_1
kcount,1
numberNandB,1
brightnessNandB,1
carpet pos,0
pc,0
Time (ms),CH1 Auto-Correlation
1.0,0.0865616723895073
2.0,0.07965505868196487
3.0,0.07366921752691269
4.0,0.06852773576974869
5.0,0.06407573074102402
6.0,0.06030690670013428
7.0,0.05678621679544449
8.0,0.05339089781045914
9.0,0.05038515105843544
10.0,0.04760412499308586
11.0,0.045168183743953705
12.0,0.042763784527778625
13.0,0.04047463834285736
14.0,0.038318734616041183
15.0,0.03662632405757904
16.0,0.03514190763235092
18.0,0.032468296587467194
20.0,0.030219879001379013
22.0,0.028419455513358116
24.0,0.02704252302646637
26.0,0.025790005922317505
28.0,0.024088123813271523
30.0,0.021970679983496666
32.0,0.019559616222977638
36.0,0.016882898285984993
40.0,0.01604653149843216
44.0,0.015169317834079266
48.0,0.014497450552880764
52.0,0.014369916170835495
56.0,0.01256517693400383
60.0,0.011820575222373009
64.0,0.012092324905097485
72.0,0.011891604401171207
80.0,0.011429281905293465
88.0,0.010751979425549507
96.0,0.010750294663012028
104.0,0.00989050418138504
112.0,0.009641152806580067
120.0,0.009670569561421871
128.0,0.007825709879398346
144.0,0.0060744150541722775
160.0,0.007697815075516701
176.0,0.008239233866333961
192.0,0.008440940640866756
208.0,0.007239372935146093
224.0,0.005303657613694668
240.0,0.003110974095761776
256.0,-0.00019911410345230252
288.0,0.002653819741681218
320.0,0.004550272133201361
352.0,0.0032384274527430534
384.0,0.001913019921630621
416.0,0.0014414075994864106
448.0,-0.0019678277894854546
480.0,-0.0020057265646755695
512.0,-0.00206957571208477
576.0,0.0020395817700773478
640.0,-0.003487336216494441
704.0,-0.0017869671573862433
768.0,-0.006819669157266617
832.0,-0.005755949299782515
896.0,-0.004495440050959587
960.0,-0.0044508143328130245
1024.0,-0.0012825228041037917
1152.0,0.0025063729844987392
1280.0,-0.0026801852509379387
1408.0,-0.004003994166851044
1536.0,-0.005674846936017275
1664.0,-0.003540088189765811
1792.0,-0.0021632493007928133
1920.0,-0.005049866624176502
2048.0,-0.005528424400836229
2304.0,0.0007300068391487002
2560.0,0.00215508253313601
2816.0,0.004733250010758638
3072.0,0.002123249229043722
3328.0,-0.003368440316990018
3584.0,-0.0005677384324371815
3840.0,0.0012824522564187646
4096.0,0.0013621324906125665
4608.0,-0.0017315559089183807
5120.0,0.002733730711042881
5632.0,0.004691169131547213
6144.0,-0.0036686186213046312
6656.0,-0.004657415207475424
7168.0,-0.00266922265291214
7680.0,0.0037432340905070305
8192.0,0.006627344526350498
end
