version,3.0
numOfCh,1
type,point
parent_name,19e3e_1dot0-0dot1
ch_type,1_1
kcount,1
numberNandB,1
brightnessNandB,1
carpet pos,0
pc,0
Time (ms),CH1 Auto-Correlation
1.0,0.10908270627260208
2.0,0.10150826722383499
3.0,0.0949404314160347
4.0,0.08914501219987869
5.0,0.08379989862442017
6.0,0.07922036945819855
7.0,0.07518519461154938
8.0,0.07138542830944061
9.0,0.06786058098077774
10.0,0.06478963047266006
11.0,0.06177452951669693
12.0,0.0592544749379158
13.0,0.05719272047281265
14.0,0.05494748428463936
15.0,0.05276576802134514
16.0,0.050982508808374405
18.0,0.047896962612867355
20.0,0.04525326192378998
22.0,0.04319961741566658
24.0,0.041386231780052185
26.0,0.0396193228662014
28.0,0.037573523819446564
30.0,0.035870641469955444
32.0,0.03489214926958084
36.0,0.032663408666849136
40.0,0.03061455488204956
44.0,0.02855776436626911
48.0,0.027585968375205994
52.0,0.02593906968832016
56.0,0.024249829351902008
60.0,0.023756058886647224
64.0,0.022821856662631035
72.0,0.020243996754288673
80.0,0.017065618187189102
88.0,0.017232529819011688
96.0,0.016485072672367096
104.0,0.015979135408997536
112.0,0.016282852739095688
120.0,0.013844048604369164
128.0,0.011662320233881474
144.0,0.011360105127096176
160.0,0.014392688870429993
176.0,0.015512724407017231
192.0,0.01469847746193409
208.0,0.012644092552363873
224.0,0.013824722729623318
240.0,0.013478623703122139
256.0,0.012096834369003773
288.0,0.017042813822627068
320.0,0.010282065719366074
352.0,0.0056447372771799564
384.0,0.0014486315194517374
416.0,-0.0010772760724648833
448.0,0.000818797736428678
480.0,0.0016288122860714793
512.0,0.0030050184577703476
576.0,0.002716311253607273
640.0,0.000606674118898809
704.0,0.0014267010847106576
768.0,0.004154342692345381
832.0,0.009557336568832397
896.0,0.009195677004754543
960.0,0.004060375038534403
1024.0,-0.0016516518080607057
1152.0,-0.001917787711136043
1280.0,-0.003951997496187687
1408.0,-0.007855459116399288
1536.0,-0.009156662039458752
1664.0,-0.0059272246435284615
1792.0,-0.0038352608680725098
1920.0,-0.011675155721604824
2048.0,-0.006584580522030592
2304.0,-0.005978190340101719
2560.0,0.0009916065027937293
2816.0,0.0015625309897586703
3072.0,0.0006328380550257862
3328.0,0.0006697325734421611
3584.0,0.004312646575272083
3840.0,0.00038526731077581644
4096.0,-0.0006250713486224413
4608.0,-0.008232849650084972
5120.0,-0.004668248351663351
5632.0,-0.007058503571897745
6144.0,0.0018886999459937215
6656.0,0.003036965848878026
7168.0,-0.00011828539572888985
7680.0,0.004060246050357819
8192.0,-0.0002090802154270932
end
