version,3.0
numOfCh,1
type,point
parent_name,0cd20_1dot0-1dot0
ch_type,1_1
kcount,1
numberNandB,1
brightnessNandB,1
carpet pos,0
pc,0
Time (ms),CH1 Auto-Correlation
1.0,0.03436388820409775
2.0,0.03100690245628357
3.0,0.027733109891414642
4.0,0.024735819548368454
5.0,0.0222279354929924
6.0,0.020324235782027245
7.0,0.01898466795682907
8.0,0.0176848117262125
9.0,0.016743745654821396
10.0,0.015969322994351387
11.0,0.015289931558072567
12.0,0.01471829041838646
13.0,0.014162171632051468
14.0,0.01368237566202879
15.0,0.013164917938411236
16.0,0.012649505399167538
18.0,0.011828995309770107
20.0,0.010843710042536259
22.0,0.009818213060498238
24.0,0.008832103572785854
26.0,0.008094281889498234
28.0,0.007639660499989986
30.0,0.007159641478210688
32.0,0.0066692642867565155
36.0,0.006008854601532221
40.0,0.005599026568233967
44.0,0.005768032278865576
48.0,0.005511354189366102
52.0,0.004794371780008078
56.0,0.004527233075350523
60.0,0.004427182022482157
64.0,0.0042532579973340034
72.0,0.003237105207517743
80.0,0.0021774645429104567
88.0,0.0014484241837635636
96.0,0.0007371284300461411
104.0,0.0013971308944746852
112.0,0.0021305803675204515
120.0,0.00242397328838706
128.0,0.0020128698088228703
144.0,0.0009328061132691801
160.0,0.0005175918922759593
176.0,0.0008533916552551091
192.0,0.001153322053141892
208.0,0.0009164368384517729
224.0,0.0004143885162193328
240.0,-0.0004059395578224212
256.0,-0.00036329732392914593
288.0,-3.7238674849504605e-05
320.0,0.00026490484015084803
352.0,0.00038893515011295676
384.0,0.0004199196700938046
416.0,0.0008991177892312407
448.0,0.0004318298015277833
480.0,0.0008120160782709718
512.0,0.0007442758651450276
576.0,-7.926193211460486e-05
640.0,-0.0016065732343122363
704.0,-0.0006891375523991883
768.0,0.001006745151244104
832.0,0.0006808899925090373
896.0,-0.0002984429302159697
960.0,0.0006530068931169808
1024.0,0.000841429689899087
1152.0,0.0007576943608000875
1280.0,-0.0002714446163736284
1408.0,-0.0014653961407020688
1536.0,-0.0011865741107612848
1664.0,-0.000710505701135844
1792.0,-0.0011619633296504617
1920.0,-0.001093443133868277
2048.0,0.0015594627475365996
2304.0,-0.0008670144597999752
2560.0,-0.0001688623451627791
2816.0,-0.0012569999089464545
3072.0,0.0005517902900464833
3328.0,0.00038908701390028
3584.0,-8.008105942280963e-05
3840.0,0.0006470952648669481
4096.0,0.0008034405182115734
4608.0,-0.000986816710792482
5120.0,-0.00042967902845703065
5632.0,-0.0007722059381194413
6144.0,0.000992937944829464
6656.0,-0.0006349224131554365
7168.0,-0.0001369519013678655
7680.0,-0.0006623017252422869
8192.0,0.0014260266907513142
end
