version,3.0
numOfCh,1
type,point
parent_name,0cd20_1dot0-1dot0
ch_type,1_1
kcount,1
numberNandB,1
brightnessNandB,1
carpet pos,0
pc,0
Time (ms),CH1 Auto-Correlation
1.0,0.028116341680288315
2.0,0.02582602947950363
3.0,0.02395523339509964
4.0,0.02228946052491665
5.0,0.02089381031692028
6.0,0.019580338150262833
7.0,0.018484311178326607
8.0,0.017522400245070457
9.0,0.016640570014715195
10.0,0.015803823247551918
11.0,0.015053977258503437
12.0,0.014330434612929821
13.0,0.013682826422154903
14.0,0.013077274896204472
15.0,0.012504837475717068
16.0,0.011939981952309608
18.0,0.011004511266946793
20.0,0.010197469964623451
22.0,0.009662281721830368
24.0,0.009205096401274204
26.0,0.008752626366913319
28.0,0.00819721631705761
30.0,0.0077966745011508465
32.0,0.007364737801253796
36.0,0.006568725686520338
40.0,0.005917332135140896
44.0,0.005213555879890919
48.0,0.004439142532646656
52.0,0.0037569026462733746
56.0,0.0031302503775805235
60.0,0.002893999917432666
64.0,0.002771869068965316
72.0,0.0023953551426529884
80.0,0.0017625506734475493
88.0,0.0009106090874411166
96.0,0.00010329621727578342
104.0,-2.3870341465226375e-05
112.0,9.891794616123661e-05
120.0,0.0001831138361012563
128.0,-0.00028924740036018193
144.0,-0.00026256145793013275
160.0,-0.0005348037811927497
176.0,-1.169541064882651e-05
192.0,-0.0003282544785179198
208.0,-0.00038980465615168214
224.0,-8.18394182715565e-05
240.0,0.00033881462877616286
256.0,0.0007354996050707996
288.0,0.0006449786596931517
320.0,0.0013720184797421098
352.0,0.0010146981803700328
384.0,0.00027068209601566195
416.0,-0.0001150807729572989
448.0,-0.0005258631426841021
480.0,-0.0006173157598823309
512.0,-0.001329796388745308
576.0,-0.0007830203976482153
640.0,-9.928074723575264e-05
704.0,-0.0001797312288545072
768.0,-0.00011419160000514239
832.0,-0.0016466743545606732
896.0,0.00011406974226702005
960.0,0.00013820843014400452
1024.0,-0.0002050945331575349
1152.0,-0.00016428572416771203
1280.0,0.00037996642640791833
1408.0,-0.0001533539325464517
1536.0,-0.000904178770724684
1664.0,0.0007345863850787282
1792.0,0.0004412202979438007
1920.0,-0.0006513100815936923
2048.0,0.0008204063633456826
2304.0,-0.0008698172168806195
2560.0,-0.0006105341599322855
2816.0,0.00011902010737685487
3072.0,-0.0003515343414619565
3328.0,-0.0014391824370250106
3584.0,-0.00048091032658703625
3840.0,0.0008001351961866021
4096.0,0.0009233392775058746
4608.0,0.0004989812732674181
5120.0,-0.00014002413081470877
5632.0,0.0010741291334852576
6144.0,0.00017575050878804177
6656.0,-0.0002797791676130146
7168.0,-0.0013480305206030607
7680.0,-0.0007987629505805671
8192.0,-0.000285052607068792
end
