version,3.0
numOfCh,1
type,point
parent_name,0cd20_1dot0-1dot0
ch_type,1_1
kcount,1
numberNandB,1
brightnessNandB,1
carpet pos,0
pc,0
Time (ms),CH1 Auto-Correlation
1.0,0.02627929300069809
2.0,0.024044079706072807
3.0,0.022202786058187485
4.0,0.02060028724372387
5.0,0.019187312573194504
6.0,0.01796002686023712
7.0,0.016831904649734497
8.0,0.01576251909136772
9.0,0.014851067215204239
10.0,0.01401048619300127
11.0,0.013250368647277355
12.0,0.01252665650099516
13.0,0.011805704794824123
14.0,0.011149345897138119
15.0,0.010586545802652836
16.0,0.01011718437075615
18.0,0.009269623085856438
20.0,0.00850937981158495
22.0,0.007848959416151047
24.0,0.00718762818723917
26.0,0.006537080742418766
28.0,0.005993153899908066
30.0,0.005575251299887896
32.0,0.00522571662440896
36.0,0.004734029993414879
40.0,0.004035143181681633
44.0,0.0036105671897530556
48.0,0.0033303326927125454
52.0,0.003360338043421507
56.0,0.003353114239871502
60.0,0.0032086565624922514
64.0,0.0030427598394453526
72.0,0.0029854371678084135
80.0,0.0019231921760365367
88.0,0.0013749782228842378
96.0,0.001197352772578597
104.0,0.0007597865769639611
112.0,0.0005103580188006163
120.0,0.0007372717373073101
128.0,0.0010237385286018252
144.0,0.001469830865971744
160.0,0.0008427479770034552
176.0,0.0003924974298570305
192.0,0.00090170674957335
208.0,0.001037762500345707
224.0,-0.00010365623893449083
240.0,-0.00026621230063028634
256.0,-0.0005150633514858782
288.0,-0.0006800722912885249
320.0,-0.00018302592798136175
352.0,0.0005824214313179255
384.0,2.6084115233970806e-05
416.0,-0.00046744663268327713
448.0,-0.0007676976965740323
480.0,-0.00037886638892814517
512.0,-0.00020415130711626261
576.0,-0.00030247168615460396
640.0,-0.0003912494867108762
704.0,-0.00017656601266935468
768.0,3.0176684958860278e-05
832.0,0.0003808272012975067
896.0,0.0014031849568709731
960.0,-0.0004613024939317256
1024.0,-0.0009736786014400423
1152.0,-0.0008679511956870556
1280.0,-0.0004768547660205513
1408.0,-8.044813148444518e-05
1536.0,0.0011206534691154957
1664.0,0.0006472973036579788
1792.0,-0.0007431713165715337
1920.0,-0.0002517388784326613
2048.0,0.00023181602591648698
2304.0,0.0006965632201172411
2560.0,0.00029134118813090026
2816.0,-0.0009020910947583616
3072.0,-0.00028069966356270015
3328.0,-0.0003899523871950805
3584.0,-2.415449489490129e-05
3840.0,0.0005754483281634748
4096.0,-0.0014353059232234955
4608.0,-0.00048676031292416155
5120.0,-4.303010427975096e-05
5632.0,-0.0006796021480113268
6144.0,-0.00029907256248407066
6656.0,-0.000552650832105428
7168.0,-0.0001416683371644467
7680.0,0.0005271855043247342
8192.0,-0.00015365124272648245
end
