version,3.0
numOfCh,1
type,point
parent_name,0cd20_1dot0-1dot0
ch_type,1_1
kcount,1
numberNandB,1
brightnessNandB,1
carpet pos,0
pc,0
Time (ms),CH1 Auto-Correlation
1.0,0.028902214020490646
2.0,0.026631128042936325
3.0,0.02467392385005951
4.0,0.022941717877984047
5.0,0.02144371159374714
6.0,0.020088544115424156
7.0,0.018924616277217865
8.0,0.017824096605181694
9.0,0.016861392185091972
10.0,0.01599632203578949
11.0,0.015214979648590088
12.0,0.014456669799983501
13.0,0.013753492385149002
14.0,0.013143201358616352
15.0,0.01254888717085123
16.0,0.011942693032324314
18.0,0.011025255545973778
20.0,0.010199388489127159
22.0,0.009566898457705975
24.0,0.008955933153629303
26.0,0.008341149426996708
28.0,0.007839345373213291
30.0,0.007434938568621874
32.0,0.006980397272855043
36.0,0.006368191912770271
40.0,0.006082058418542147
44.0,0.0057597593404352665
48.0,0.005454118363559246
52.0,0.005104706156998873
56.0,0.004627881105989218
60.0,0.004449175670742989
64.0,0.00378362531773746
72.0,0.0029078745283186436
80.0,0.0023401048965752125
88.0,0.0017086504958570004
96.0,0.0009533654665574431
104.0,0.0002527564065530896
112.0,-0.0002525275049265474
120.0,-0.00021792233746964484
128.0,0.0006461614975705743
144.0,0.0010682137217372656
160.0,0.0014134543016552925
176.0,0.001769533148035407
192.0,0.00173940637614578
208.0,0.0017326291417703032
224.0,0.0019439976895228028
240.0,0.001784744206815958
256.0,0.0014781520003452897
288.0,0.0010426786029711366
320.0,0.0015907082706689835
352.0,0.0015621670754626393
384.0,0.0006846649339422584
416.0,0.000752860214561224
448.0,-0.00026110204635187984
480.0,0.0010496348841115832
512.0,0.0014544755686074495
576.0,0.001230211229994893
640.0,0.001256551593542099
704.0,0.0008145906613208354
768.0,0.0009176169987767935
832.0,0.0008537023095414042
896.0,0.001041135168634355
960.0,0.0016392860561609268
1024.0,0.0019717002287507057
1152.0,0.0007911919965408742
1280.0,-0.0008984804735518992
1408.0,0.0020161087159067392
1536.0,0.0011827027192339301
1664.0,8.712043199921027e-05
1792.0,4.0601509681437165e-05
1920.0,-0.0001108474243665114
2048.0,-0.0003831982903648168
2304.0,-0.001774969743564725
2560.0,-0.0006655027391389012
2816.0,-0.000585176341701299
3072.0,-0.0005971693899482489
3328.0,-0.0015073862159624696
3584.0,-0.0010714370291680098
3840.0,-0.0011183436727151275
4096.0,-0.0008816321496851742
4608.0,0.00018591550178825855
5120.0,3.580531483748928e-05
5632.0,0.0002448027371428907
6144.0,0.0001841234916355461
6656.0,-0.0003025087935384363
7168.0,-0.0008042168337851763
7680.0,-0.0009007890475913882
8192.0,-0.0017904122360050678
end
