version,3.0
numOfCh,1
type,point
parent_name,0cd20_1dot0-1dot0
ch_type,1_1
kcount,1
numberNandB,1
brightnessNandB,1
carpet pos,0
pc,0
Time (ms),CH1 Auto-Correlation
1.0,0.027741048485040665
2.0,0.025464143604040146
3.0,0.023552650585770607
4.0,0.021918848156929016
5.0,0.020433666184544563
6.0,0.019122010096907616
7.0,0.017955148592591286
8.0,0.0169276911765337
9.0,0.01599827967584133
10.0,0.015219749882817268
11.0,0.014553628861904144
12.0,0.014027566649019718
13.0,0.013542912900447845
14.0,0.013104689307510853
15.0,0.012655696831643581
16.0,0.012141105718910694
18.0,0.01144098024815321
20.0,0.010698006488382816
22.0,0.010025153867900372
24.0,0.009298230521380901
26.0,0.008688856847584248
28.0,0.008137552067637444
30.0,0.007738987449556589
32.0,0.007516639307141304
36.0,0.006882891524583101
40.0,0.006226023659110069
44.0,0.005812564864754677
48.0,0.005460422020405531
52.0,0.005307458341121674
56.0,0.005127442069351673
60.0,0.004807805642485619
64.0,0.004786427598446608
72.0,0.004525755997747183
80.0,0.004202110227197409
88.0,0.0034123314544558525
96.0,0.002859126077964902
104.0,0.002541319001466036
112.0,0.00233429460786283
120.0,0.0024081903975456953
128.0,0.002474328735843301
144.0,0.0023402655497193336
160.0,0.002333120908588171
176.0,0.0019726059399545193
192.0,0.0014367131516337395
208.0,0.0012531211832538247
224.0,0.0011945241130888462
240.0,0.0017178255366161466
256.0,0.0014554975787177682
288.0,0.0007367112557403743
320.0,0.0005401266971603036
352.0,-0.00019212704501114786
384.0,-0.0010549143189564347
416.0,-0.001300991978496313
448.0,-0.0018564716447144747
480.0,-0.0031248012091964483
512.0,-0.0037114506121724844
576.0,-0.0017883339896798134
640.0,7.821353210601956e-05
704.0,0.00028223672416061163
768.0,-0.0002969960914924741
832.0,0.0010845140786841512
896.0,0.0005725494120270014
960.0,0.0014450920280069113
1024.0,0.0014890709426254034
1152.0,0.0003801942802965641
1280.0,0.00014996247773524374
1408.0,-0.00024095592380035669
1536.0,-0.0006160725024528801
1664.0,0.0007285854662768543
1792.0,0.001156870392151177
1920.0,0.0011549241608008742
2048.0,0.0014170060167089105
2304.0,-0.0007730499492026865
2560.0,-0.0009779440006241202
2816.0,0.0013230877229943871
3072.0,0.0003713139158207923
3328.0,-0.0008829468861222267
3584.0,7.144443952711299e-05
3840.0,-8.704044012119994e-05
4096.0,-0.0005397684290073812
4608.0,-0.0006751741166226566
5120.0,-0.0011109759798273444
5632.0,0.000508883036673069
6144.0,-0.000975431757979095
6656.0,-0.0007805145578458905
7168.0,-0.0006753167835995555
7680.0,0.000299062900012359
8192.0,-0.0024778747465461493
end
