version,3.0
numOfCh,1
type,point
parent_name,0cd20_1dot0-1dot0
ch_type,1_1
kcount,1
numberNandB,1
brightnessNandB,1
carpet pos,0
pc,0
Time (ms),CH1 Auto-Correlation
1.0,0.029296383261680603
2.0,0.02696968987584114
3.0,0.02501349337399006
4.0,0.023272087797522545
5.0,0.021820154041051865
6.0,0.02053193747997284
7.0,0.019274292513728142
8.0,0.01808418147265911
9.0,0.01707436330616474
10.0,0.0160940270870924
11.0,0.015269913710653782
12.0,0.014520873315632343
13.0,0.013790438883006573
14.0,0.013160538859665394
15.0,0.012616961263120174
16.0,0.012085754424333572
18.0,0.011011822149157524
20.0,0.010158279910683632
22.0,0.009468943811953068
24.0,0.008864562958478928
26.0,0.00838574580848217
28.0,0.007923603989183903
30.0,0.007490628398954868
32.0,0.007062360178679228
36.0,0.006278009619563818
40.0,0.005596638191491365
44.0,0.005048608407378197
48.0,0.004382822662591934
52.0,0.00395892933011055
56.0,0.003336670808494091
60.0,0.0030869252514094114
64.0,0.002961969468742609
72.0,0.002338683232665062
80.0,0.0017605909379199147
88.0,0.0012298497604206204
96.0,0.0004210375773254782
104.0,0.0006679011858068407
112.0,0.0010035544401034713
120.0,0.00031944632064551115
128.0,-0.0007879873737692833
144.0,-0.0006751239998266101
160.0,0.0002567029732745141
176.0,0.0009283284889534116
192.0,0.0006587812677025795
208.0,1.6079888155218214e-05
224.0,0.0001879963674582541
240.0,-0.0007859612233005464
256.0,-0.0013956589391455054
288.0,-0.0006514847045764327
320.0,-0.0003211958101019263
352.0,0.000699913885910064
384.0,-0.00011203515896340832
416.0,-0.0016020004404708743
448.0,-0.0014003424439579248
480.0,-0.00030723155941814184
512.0,0.0009690347360447049
576.0,0.0005098443361930549
640.0,0.000706788501702249
704.0,0.0004067759437020868
768.0,0.001240003970451653
832.0,0.00049724051496014
896.0,-1.905279714264907e-05
960.0,-0.001041416428051889
1024.0,-0.0008893338381312788
1152.0,-0.00045062522985972464
1280.0,0.00013991630112286657
1408.0,-0.000908930494915694
1536.0,-0.001295249443501234
1664.0,-0.00036788362194783986
1792.0,-0.0002278144092997536
1920.0,0.00025586833362467587
2048.0,-0.000715926056727767
2304.0,-7.294248644029722e-05
2560.0,0.00036926459870301187
2816.0,-0.0010885795345529914
3072.0,-0.00047692868974991143
3328.0,0.0003904768964275718
3584.0,-0.00019186228746548295
3840.0,-0.00022376877313945442
4096.0,-0.0009008895722217858
4608.0,-0.00026736719883047044
5120.0,-1.7664029655861668e-05
5632.0,0.0002568640047684312
6144.0,0.00044018536573275924
6656.0,0.0001901345094665885
7168.0,0.0006199356867000461
7680.0,0.0005268361419439316
8192.0,0.0002859814849216491
end
