version,3.0
numOfCh,1
type,point
parent_name,0cd20_1dot0-1dot0
ch_type,1_1
kcount,1
numberNandB,1
brightnessNandB,1
carpet pos,0
pc,0
Time (ms),CH1 Auto-Correlation
1.0,0.02537532150745392
2.0,0.023296555504202843
3.0,0.02154882438480854
4.0,0.020062467083334923
5.0,0.018691079691052437
6.0,0.017503507435321808
7.0,0.016492731869220734
8.0,0.015575882978737354
9.0,0.014756720513105392
10.0,0.014011303894221783
11.0,0.013336502015590668
12.0,0.012702913954854012
13.0,0.012154665775597095
14.0,0.011613474227488041
15.0,0.01114975567907095
16.0,0.01071507204324007
18.0,0.009885328821837902
20.0,0.009183503687381744
22.0,0.00844457745552063
24.0,0.007789420895278454
26.0,0.007267313543707132
28.0,0.006717919372022152
30.0,0.0062351408414542675
32.0,0.0058185807429254055
36.0,0.005228640511631966
40.0,0.004570665769279003
44.0,0.00392356188967824
48.0,0.0031663738191127777
52.0,0.0028162780217826366
56.0,0.0025136130861938
60.0,0.002423812635242939
64.0,0.002195294015109539
72.0,0.0014233447145670652
80.0,0.001347720972262323
88.0,0.0013002385385334492
96.0,0.001507239998318255
104.0,0.0014439092483371496
112.0,0.0013598283985629678
120.0,0.001110709854401648
128.0,0.0008437157957814634
144.0,0.0003496181743685156
160.0,-0.0002442320983391255
176.0,-4.4753349357051775e-05
192.0,0.0002327560941921547
208.0,0.00012018661800539121
224.0,0.0003288817242719233
240.0,0.00034251200850121677
256.0,8.905049071472604e-06
288.0,-0.0005156686529517174
320.0,-0.0008247242076322436
352.0,-0.0012007516343146563
384.0,-0.001066987868398428
416.0,0.0006720725796185434
448.0,0.0007967014098539948
480.0,-0.0010844316566362977
512.0,-0.0007756720879115164
576.0,5.599720680038445e-05
640.0,0.001070019556209445
704.0,0.0008553645457141101
768.0,0.0007646862068213522
832.0,0.0018045883625745773
896.0,0.0013620342360809445
960.0,0.0013697614194825292
1024.0,0.00037620466900989413
1152.0,0.00017899434897117317
1280.0,-0.000730565341655165
1408.0,-0.0008047387818805873
1536.0,0.0010711031500250101
1664.0,0.0005441675311885774
1792.0,-0.0008526822202838957
1920.0,0.0008827046258375049
2048.0,-0.0002630189701449126
2304.0,-0.0002447792503517121
2560.0,0.000663060462102294
2816.0,0.0007025046506896615
3072.0,9.549876267556101e-05
3328.0,-0.000966009043622762
3584.0,0.0004954058094881475
3840.0,-0.0009037813870236278
4096.0,1.4739313883183058e-05
4608.0,-0.0003390988858882338
5120.0,0.0003996879095211625
5632.0,0.000719817413482815
6144.0,0.00012796666123904288
6656.0,0.0004829313838854432
7168.0,-0.0007617962546646595
7680.0,0.00020693030091933906
8192.0,-1.4669720258098096e-05
end
