version,3.0
numOfCh,1
type,point
parent_name,0cd20_1dot0-1dot0
ch_type,1_1
kcount,1
numberNandB,1
brightnessNandB,1
carpet pos,0
pc,0
Time (ms),CH1 Auto-Correlation
1.0,0.02937503345310688
2.0,0.02715410850942135
3.0,0.02516269125044346
4.0,0.02341335453093052
5.0,0.02191103994846344
6.0,0.020597001537680626
7.0,0.019425811246037483
8.0,0.01831335574388504
9.0,0.01730724610388279
10.0,0.016340717673301697
11.0,0.01545760128647089
12.0,0.014664423651993275
13.0,0.013970705680549145
14.0,0.013263601809740067
15.0,0.012641090899705887
16.0,0.011922924779355526
18.0,0.010779551230370998
20.0,0.009824957698583603
22.0,0.009060133248567581
24.0,0.008369503542780876
26.0,0.007694981526583433
28.0,0.007269639056175947
30.0,0.007024222519248724
32.0,0.0068677556701004505
36.0,0.006488819140940905
40.0,0.0059055667370557785
44.0,0.005427192896604538
48.0,0.005277847405523062
52.0,0.004985394421964884
56.0,0.004630362149327993
60.0,0.004288701806217432
64.0,0.004041404463350773
72.0,0.0037803729064762592
80.0,0.0034100874327123165
88.0,0.003358669113367796
96.0,0.0029597270768135786
104.0,0.002364771207794547
112.0,0.002009492600336671
120.0,0.0014463458210229874
128.0,0.0012643637601286173
144.0,0.0011365143582224846
160.0,0.0018258951604366302
176.0,0.0014484068378806114
192.0,0.0006025852635502815
208.0,0.00011921748227905482
224.0,0.00032380799530074
240.0,0.0003121109330095351
256.0,0.000559180392883718
288.0,0.000721365213394165
320.0,0.0008677826263010502
352.0,0.0016096335602924228
384.0,0.0006691371672786772
416.0,0.0002739907649811357
448.0,-0.0001227156026288867
480.0,0.0005920621333643794
512.0,0.001008899649605155
576.0,-0.0016122001688927412
640.0,-0.0020498265512287617
704.0,-0.0025734365917742252
768.0,-0.0028828599024564028
832.0,-0.00227401708252728
896.0,-0.001154193072579801
960.0,-0.0004692695220001042
1024.0,-0.0011454606428742409
1152.0,-0.0008283276110887527
1280.0,0.0002391297311987728
1408.0,0.0008604914182797074
1536.0,0.000139498122734949
1664.0,0.0017950818873941898
1792.0,0.0010761033045127988
1920.0,-0.00013427351950667799
2048.0,-0.00016658465028740466
2304.0,-0.0010389735689386725
2560.0,-0.00034385142498649657
2816.0,-0.0003160910273436457
3072.0,-0.00041075111948885024
3328.0,-0.0011276340810582042
3584.0,-0.00019814127881545573
3840.0,-0.0008187193889170885
4096.0,0.0006880092551000416
4608.0,0.0003983709029853344
5120.0,0.0004969583824276924
5632.0,-8.812008309178054e-05
6144.0,0.0001629927137400955
6656.0,0.0002777533372864127
7168.0,-2.0761031919391826e-05
7680.0,2.3702039470663294e-05
8192.0,-0.00016833876725286245
end
