version,3.0
numOfCh,1
type,point
parent_name,0cd20_1dot0-1dot0
ch_type,1_1
kcount,1
numberNandB,1
brightnessNandB,1
carpet pos,0
pc,0
Time (ms),CH1 Auto-Correlation
1.0,0.027676617726683617
2.0,0.02507156878709793
3.0,0.022892847657203674
4.0,0.021194489672780037
5.0,0.019754700362682343
6.0,0.018510479480028152
7.0,0.017578797414898872
8.0,0.016742130741477013
9.0,0.015877900645136833
10.0,0.015041647478938103
11.0,0.014392617158591747
12.0,0.013769835233688354
13.0,0.013136360794305801
14.0,0.012585856951773167
15.0,0.012071285396814346
16.0,0.011585372500121593
18.0,0.010355593636631966
20.0,0.009240043349564075
22.0,0.008251164108514786
24.0,0.007562832906842232
26.0,0.007138561457395554
28.0,0.00682883569970727
30.0,0.006531910039484501
32.0,0.006309955380856991
36.0,0.00573350302875042
40.0,0.005092330742627382
44.0,0.0044286856427788734
48.0,0.003899236908182502
52.0,0.003465468529611826
56.0,0.0029757751617580652
60.0,0.0028747194446623325
64.0,0.0028343419544398785
72.0,0.0025044262874871492
80.0,0.002006033668294549
88.0,0.0014972965000197291
96.0,0.0009706115815788507
104.0,0.0004665700835175812
112.0,9.08531728782691e-05
120.0,-0.00010192055924562737
128.0,-0.00013400216994341463
144.0,-6.606370152439922e-05
160.0,-0.0006702407263219357
176.0,-0.001127676572650671
192.0,-0.0010544025572016835
208.0,-0.0006245646509341896
224.0,-0.0002483754069544375
240.0,-0.00025042571360245347
256.0,2.3420345314661972e-05
288.0,-0.000667853164486587
320.0,-0.000746837817132473
352.0,0.0002951870555989444
384.0,6.10522911301814e-05
416.0,0.00030106064514257014
448.0,-0.0005675886059179902
480.0,-0.00019633436750154942
512.0,-0.0011278517777100205
576.0,-0.0003079361340496689
640.0,0.0008456784998998046
704.0,0.0002523380098864436
768.0,-0.00020283294725231826
832.0,-0.0006673352909274399
896.0,-0.0007938332855701447
960.0,-0.0004425715305842459
1024.0,0.0006867027259431779
1152.0,-0.0005707559175789356
1280.0,-0.0004890112904831767
1408.0,0.00044832215644419193
1536.0,0.0016095055034384131
1664.0,-0.00010344375186832622
1792.0,0.000505645468365401
1920.0,0.00012477221025619656
2048.0,-0.00046428415225818753
2304.0,-0.0004931396106258035
2560.0,-0.0008944339351728559
2816.0,-0.0008181588491424918
3072.0,0.0004036101745441556
3328.0,0.0004198783717583865
3584.0,-0.0006129321991465986
3840.0,-0.0009832467185333371
4096.0,-5.083415817352943e-05
4608.0,0.00026964087737724185
5120.0,-0.0003164742956869304
5632.0,-1.5173112842603587e-05
6144.0,0.00039993293466977775
6656.0,-0.0002224426862085238
7168.0,0.0001266259205294773
7680.0,0.0003895087575074285
8192.0,0.0002919280086643994
end
