version,3.0
numOfCh,1
type,point
parent_name,0cd20_1dot0-1dot0
ch_type,1_1
kcount,1
numberNandB,1
brightnessNandB,1
carpet pos,0
pc,0
Time (ms),CH1 Auto-Correlation
1.0,0.030016131699085236
2.0,0.027595827355980873
3.0,0.02552690915763378
4.0,0.023803524672985077
5.0,0.02224317565560341
6.0,0.020939946174621582
7.0,0.01977972872555256
8.0,0.01872202940285206
9.0,0.017734907567501068
10.0,0.016787700355052948
11.0,0.016052450984716415
12.0,0.015344442799687386
13.0,0.014685112982988358
14.0,0.01408421341329813
15.0,0.013499243184924126
16.0,0.013020017184317112
18.0,0.012128773145377636
20.0,0.011395968496799469
22.0,0.010735266841948032
24.0,0.010199571028351784
26.0,0.009649124927818775
28.0,0.009117307141423225
30.0,0.008703595958650112
32.0,0.008214496076107025
36.0,0.0070099495351314545
40.0,0.005900199059396982
44.0,0.005311253480613232
48.0,0.0049553741700947285
52.0,0.004880958702415228
56.0,0.004585753194987774
60.0,0.0043181502260267735
64.0,0.0040672761388123035
72.0,0.0032860354986041784
80.0,0.0028717746026813984
88.0,0.0023060222156345844
96.0,0.002159563358873129
104.0,0.0020592256914824247
112.0,0.002099802950397134
120.0,0.002895194571465254
128.0,0.0037049793172627687
144.0,0.0034455079585313797
160.0,0.002394811948761344
176.0,0.0013621030375361443
192.0,0.0013182524126023054
208.0,0.0012592826969921589
224.0,0.0008702785708010197
240.0,0.0010201968252658844
256.0,0.0019109882414340973
288.0,0.0013071165885776281
320.0,0.0005158231942914426
352.0,-0.0008403618703596294
384.0,-0.0001554605842102319
416.0,0.0008616184932179749
448.0,0.0018299608491361141
480.0,0.0016141992527991533
512.0,0.00077388173667714
576.0,0.0012530033709481359
640.0,0.0007488421979360282
704.0,0.0022211293689906597
768.0,0.0011794582242146134
832.0,0.00214528595097363
896.0,0.0014295038999989629
960.0,0.0007557228091172874
1024.0,0.001074611791409552
1152.0,-0.0008551678038202226
1280.0,-0.0008200854645110667
1408.0,-0.0018009592313319445
1536.0,8.470521424897015e-05
1664.0,0.00016193911142181605
1792.0,-0.0008917733794078231
1920.0,-0.0016775504918769002
2048.0,-0.0020107582677155733
2304.0,-0.001030324143357575
2560.0,-0.0010895555606111884
2816.0,-0.0006930195377208292
3072.0,-0.0008142153383232653
3328.0,0.001385779702104628
3584.0,0.0009615564486011863
3840.0,-7.256144454004243e-05
4096.0,0.0006196830654516816
4608.0,-0.0005602433811873198
5120.0,-0.00022537476615980268
5632.0,-0.0006086504436098039
6144.0,3.5929529985878617e-05
6656.0,-0.0008203535107895732
7168.0,-0.0012509332736954093
7680.0,3.928367004846223e-05
8192.0,-0.0008492247434332967
end
