version,3.0
numOfCh,1
type,point
parent_name,0cd20_1dot0-1dot0
ch_type,1_1
kcount,1
numberNandB,1
brightnessNandB,1
carpet pos,0
pc,0
Time (ms),CH1 Auto-Correlation
1.0,0.031856779009103775
2.0,0.02904514968395233
3.0,0.026553574949502945
4.0,0.024099033325910568
5.0,0.022005418315529823
6.0,0.02012147195637226
7.0,0.018614845350384712
8.0,0.017166446894407272
9.0,0.015868809074163437
10.0,0.014863691292703152
11.0,0.013923419639468193
12.0,0.013150916434824467
13.0,0.012452333234250546
14.0,0.01185799203813076
15.0,0.01125340349972248
16.0,0.010714261792600155
18.0,0.009805752895772457
20.0,0.00900013092905283
22.0,0.008362854830920696
24.0,0.007890903390944004
26.0,0.007323017343878746
28.0,0.006855269894003868
30.0,0.006506545934826136
32.0,0.0064650229178369045
36.0,0.006277252454310656
40.0,0.005935633089393377
44.0,0.005238500889390707
48.0,0.0047107539139688015
52.0,0.004519285634160042
56.0,0.004484403412789106
60.0,0.004369428846985102
64.0,0.004122292157262564
72.0,0.0032253223471343517
80.0,0.00301130092702806
88.0,0.00298210047185421
96.0,0.003111886093392968
104.0,0.002913669915869832
112.0,0.0021587894298136234
120.0,0.0015501506859436631
128.0,0.0015842743450775743
144.0,0.0019448864040896297
160.0,0.002571006305515766
176.0,0.002360202604904771
192.0,0.002026918111369014
208.0,0.0006375462980940938
224.0,-2.0224944819347e-05
240.0,0.00039138359716162086
256.0,0.0009089394588954747
288.0,0.0014660850865766406
320.0,0.00082009332254529
352.0,0.0011581191793084145
384.0,0.0018711251905187964
416.0,0.00141662557143718
448.0,0.000737492460757494
480.0,0.000764532363973558
512.0,-8.199171134037897e-05
576.0,-0.0009906695922836661
640.0,-0.0010418875608593225
704.0,-0.0009724866831675172
768.0,-0.0005696053267456591
832.0,-0.0007170402677729726
896.0,-0.0011475180508568883
960.0,-0.0004122948448639363
1024.0,-0.0008249251404777169
1152.0,0.0008372789598070085
1280.0,0.0004415956209413707
1408.0,0.0018174005672335625
1536.0,0.002427883679047227
1664.0,0.0015452849911525846
1792.0,0.0007467529503628612
1920.0,-0.00033433581120334566
2048.0,-0.0022072126157581806
2304.0,-0.0013187462463974953
2560.0,-0.0009663210948929191
2816.0,-0.00042919485713355243
3072.0,0.000922749808523804
3328.0,0.0003311566833872348
3584.0,-0.0012300999369472265
3840.0,-0.0010126861743628979
4096.0,-0.0005245762877166271
4608.0,-9.40580721362494e-05
5120.0,0.0003199836064595729
5632.0,-0.00018143463239539415
6144.0,-0.00043270920286886394
6656.0,-0.0007600122480653226
7168.0,-0.0006441951263695955
7680.0,-0.0006578934844583273
8192.0,8.922326378524303e-05
end
