version,3.0
numOfCh,1
type,point
parent_name,0cd20_1dot0-1dot0
ch_type,1_1
kcount,1
numberNandB,1
brightnessNandB,1
carpet pos,0
pc,0
Time (ms),CH1 Auto-Correlation
1.0,0.02747338078916073
2.0,0.02524835802614689
3.0,0.023450322449207306
4.0,0.021924708038568497
5.0,0.02054278925061226
6.0,0.019331451505422592
7.0,0.018257400020956993
8.0,0.017275162041187286
9.0,0.016404803842306137
10.0,0.015578629449009895
11.0,0.014844938181340694
12.0,0.014197657816112041
13.0,0.013605774380266666
14.0,0.013067243620753288
15.0,0.012589089572429657
16.0,0.012108800001442432
18.0,0.011193403974175453
20.0,0.010381380096077919
22.0,0.009818549267947674
24.0,0.009382323361933231
26.0,0.009102706797420979
28.0,0.008785313926637173
30.0,0.008288268931210041
32.0,0.007887428626418114
36.0,0.007182609289884567
40.0,0.006808185484260321
44.0,0.00656589400023222
48.0,0.006287552881985903
52.0,0.0060189575888216496
56.0,0.005693954881280661
60.0,0.005364257376641035
64.0,0.005200035870075226
72.0,0.004532857798039913
80.0,0.0039123413152992725
88.0,0.003816203912720084
96.0,0.0034182434901595116
104.0,0.0025237337686121464
112.0,0.0020364930387586355
120.0,0.001499011181294918
128.0,0.0010121144587174058
144.0,-5.959422196610831e-05
160.0,-0.00010389062663307413
176.0,-0.0005243312916718423
192.0,-0.0007263920269906521
208.0,-0.0005857645883224905
224.0,-0.0005510104820132256
240.0,-0.00045718636829406023
256.0,-0.0007446033996529877
288.0,-0.0006450454820878804
320.0,-0.001755235018208623
352.0,-0.0014658066211268306
384.0,-0.0018774959025904536
416.0,-0.001998014049604535
448.0,-0.0017976462841033936
480.0,-0.0014815605245530605
512.0,-0.0006899959407746792
576.0,-8.334435551660135e-05
640.0,8.229995728470385e-05
704.0,0.00037203007377684116
768.0,0.0009902542224153876
832.0,0.00044098918442614377
896.0,0.001342221861705184
960.0,0.0015710212755948305
1024.0,7.486750837415457e-05
1152.0,-0.00018839961558114737
1280.0,0.00016789606888778508
1408.0,0.001471493043936789
1536.0,0.0007943602977320552
1664.0,0.00013766081247013062
1792.0,-0.0008606275077909231
1920.0,-0.000667257234454155
2048.0,-0.0006655139150097966
2304.0,-0.0007249569171108305
2560.0,0.0011903326958417892
2816.0,-0.0003543758939485997
3072.0,-0.00033448723843321204
3328.0,0.0008134965319186449
3584.0,0.0005355969769880176
3840.0,-0.0016373343532904983
4096.0,0.00177081860601902
4608.0,-9.044464241014794e-05
5120.0,7.336898852372542e-05
5632.0,0.0003311675100121647
6144.0,-0.00023665778280701488
6656.0,-0.0006653541349805892
7168.0,6.053769538993947e-05
7680.0,-0.0006955810240469873
8192.0,-0.00025073220604099333
end
