version,3.0
numOfCh,1
type,point
parent_name,0cd20_1dot0-1dot0
ch_type,1_1
kcount,1
numberNandB,1
brightnessNandB,1
carpet pos,0
pc,0
Time (ms),CH1 Auto-Correlation
1.0,0.02886180207133293
2.0,0.02646859735250473
3.0,0.0244729146361351
4.0,0.02278178371489048
5.0,0.02126663736999035
6.0,0.01987886242568493
7.0,0.01864081248641014
8.0,0.01760738343000412
9.0,0.016675375401973724
10.0,0.015743939206004143
11.0,0.01488226093351841
12.0,0.014160627499222755
13.0,0.013536570593714714
14.0,0.012988190166652203
15.0,0.012514835223555565
16.0,0.011981768533587456
18.0,0.010987444780766964
20.0,0.01011604629456997
22.0,0.009398136287927628
24.0,0.008669833652675152
26.0,0.007928579114377499
28.0,0.0073533616960048676
30.0,0.006831649225205183
32.0,0.006441351491957903
36.0,0.005669026169925928
40.0,0.004883566405624151
44.0,0.004301771055907011
48.0,0.0037991355638951063
52.0,0.00331542338244617
56.0,0.0029009138233959675
60.0,0.0023850712459534407
64.0,0.0019342583836987615
72.0,0.0015764225972816348
80.0,0.001215641968883574
88.0,0.0010156807256862521
96.0,0.0014875010820105672
104.0,0.0018039288697764277
112.0,0.0017840847140178084
120.0,0.0016799495788291097
128.0,0.0016097419429570436
144.0,0.0014027312863618135
160.0,0.000615552591625601
176.0,0.0006681681261397898
192.0,0.0011488873278722167
208.0,0.0012695876648649573
224.0,0.0003045248449780047
240.0,-0.00011691958934534341
256.0,-0.001137894461862743
288.0,-0.0016073206206783652
320.0,-0.0011038079392164946
352.0,0.00016542903904337436
384.0,-0.0006693933391943574
416.0,-0.0010887597454711795
448.0,-0.0009070271626114845
480.0,-0.0004334402328822762
512.0,-0.0008847845601849258
576.0,0.0003936233406420797
640.0,-6.694700459775049e-06
704.0,0.0006871566292829812
768.0,-0.00032251630909740925
832.0,-0.0001214859148603864
896.0,-0.0005946417804807425
960.0,-0.0009169956902042031
1024.0,7.133986946428195e-05
1152.0,-0.0008499545510858297
1280.0,0.0006813069339841604
1408.0,0.0009959684684872627
1536.0,-0.00018987515068147331
1664.0,6.191296415636316e-05
1792.0,0.0007988729630596936
1920.0,0.00012192063877591863
2048.0,-0.0003402237198315561
2304.0,-0.0006448925123549998
2560.0,-0.001066752476617694
2816.0,-0.00022257902310229838
3072.0,0.000572686898522079
3328.0,0.0002747282851487398
3584.0,-0.00038193815271370113
3840.0,-0.0021511982195079327
4096.0,0.0009178277105093002
4608.0,3.877771450788714e-05
5120.0,-0.0003091780235990882
5632.0,1.6513504306203686e-05
6144.0,0.0008435853524133563
6656.0,-0.00029637894476763904
7168.0,-0.00045734678860753775
7680.0,0.0008760667988099158
8192.0,-5.279513061395846e-05
end
