version,3.0
numOfCh,1
type,point
parent_name,0cd20_1dot0-1dot0
ch_type,1_1
kcount,1
numberNandB,1
brightnessNandB,1
carpet pos,0
pc,0
Time (ms),CH1 Auto-Correlation
1.0,0.027367206290364265
2.0,0.02494698576629162
3.0,0.022869203239679337
4.0,0.020918654277920723
5.0,0.019137902185320854
6.0,0.017733629792928696
7.0,0.016312841325998306
8.0,0.01517102774232626
9.0,0.014073386788368225
10.0,0.013133927248418331
11.0,0.012187276966869831
12.0,0.011269120499491692
13.0,0.010467897169291973
14.0,0.009814147837460041
15.0,0.009129317477345467
16.0,0.008645301684737206
18.0,0.00784396007657051
20.0,0.007281699683517218
22.0,0.006724638398736715
24.0,0.006430922541767359
26.0,0.006227761507034302
28.0,0.006006975658237934
30.0,0.00579508813098073
32.0,0.005485908128321171
36.0,0.004838346969336271
40.0,0.004054422490298748
44.0,0.003326660254970193
48.0,0.0029001012444496155
52.0,0.0024833460338413715
56.0,0.002181994030252099
60.0,0.0018893660744652152
64.0,0.0018078276189044118
72.0,0.0019619306549429893
80.0,0.0023140613920986652
88.0,0.0017114755464717746
96.0,0.0011508509051054716
104.0,0.00043325984734110534
112.0,0.0002598494465928525
120.0,0.00022671282931696624
128.0,0.00035192666109651327
144.0,-8.605671609984711e-05
160.0,0.0005949441692791879
176.0,-1.3811722965328954e-05
192.0,3.766148802242242e-05
208.0,-0.0003991431731265038
224.0,-0.0011777471518144011
240.0,-0.0017194193787872791
256.0,-0.0020964478608220816
288.0,-0.001814583083614707
320.0,-0.0005560770514421165
352.0,-0.0004524985852185637
384.0,-0.0008913582423701882
416.0,-0.0007800851599313319
448.0,-0.0008279542671516538
480.0,-0.00015664125385228544
512.0,0.00036294583696871996
576.0,-0.0002794398460537195
640.0,-0.0007237459067255259
704.0,-0.0008733102586120367
768.0,0.00016231200424954295
832.0,1.2354201999187353e-06
896.0,0.000861189910210669
960.0,0.0008538264082744718
1024.0,-0.000703749421518296
1152.0,3.166825990774669e-05
1280.0,0.0011258937884122133
1408.0,-0.0008938291575759649
1536.0,-0.0013596354983747005
1664.0,-0.0004339024017099291
1792.0,-0.0008149835048243403
1920.0,-0.00044646052992902696
2048.0,0.001289505511522293
2304.0,-0.0006135773728601635
2560.0,-0.00021821176051162183
2816.0,8.374756725970656e-05
3072.0,0.0003336042573209852
3328.0,0.000420500262407586
3584.0,-0.00018107723735738546
3840.0,0.00015497578715439886
4096.0,0.00027121874154545367
4608.0,-2.746669269981794e-05
5120.0,-0.00022907920356374234
5632.0,-0.000848849886097014
6144.0,0.00016840470198076218
6656.0,0.00047939844080246985
7168.0,0.0006016431143507361
7680.0,-0.0005140997818671167
8192.0,0.00011419459769967943
end
