version,3.0
numOfCh,1
type,point
parent_name,0cd20_1dot0-1dot0
ch_type,1_1
kcount,1
numberNandB,1
brightnessNandB,1
carpet pos,0
pc,0
Time (ms),CH1 Auto-Correlation
1.0,0.02954879030585289
2.0,0.026767488569021225
3.0,0.024475954473018646
4.0,0.022696511819958687
5.0,0.02118607982993126
6.0,0.01983051933348179
7.0,0.018562564626336098
8.0,0.01725004054605961
9.0,0.016124863177537918
10.0,0.0151470135897398
11.0,0.014409293420612812
12.0,0.013734259642660618
13.0,0.01310422271490097
14.0,0.012445798143744469
15.0,0.011881702579557896
16.0,0.011347135528922081
18.0,0.010637139901518822
20.0,0.009887054562568665
22.0,0.009232308715581894
24.0,0.008575511164963245
26.0,0.00793450977653265
28.0,0.007389148231595755
30.0,0.00673917168751359
32.0,0.00609747227281332
36.0,0.005282775033265352
40.0,0.00461536506190896
44.0,0.004244387615472078
48.0,0.003837487893179059
52.0,0.0035527790896594524
56.0,0.003697730368003249
60.0,0.003610377898439765
64.0,0.003385762684047222
72.0,0.002851049415767193
80.0,0.0026211675722151995
88.0,0.0021918145939707756
96.0,0.001558268559165299
104.0,0.001465135719627142
112.0,0.0004997598589397967
120.0,0.00018159030878450722
128.0,0.0006829326739534736
144.0,0.00048634031554684043
160.0,0.0006975998403504491
176.0,4.8761274229036644e-05
192.0,-0.0014321962371468544
208.0,-0.001554561429657042
224.0,-0.0001322740426985547
240.0,0.000766843615565449
256.0,9.211781434714794e-05
288.0,0.00032311727409251034
320.0,0.0007554016192443669
352.0,0.0011514463694766164
384.0,0.0010507262777537107
416.0,0.0011941904667764902
448.0,-0.0004499015340115875
480.0,-0.0006139287143014371
512.0,-0.0011499617248773575
576.0,-0.0007727074553258717
640.0,-0.0017347066896036267
704.0,-0.0027452174108475447
768.0,-0.0016051928978413343
832.0,-0.0011508410098031163
896.0,0.0004434656002558768
960.0,0.00021946782362647355
1024.0,-0.0005520262056961656
1152.0,-0.0006608866970054805
1280.0,-0.00020086715812794864
1408.0,0.0012299444060772657
1536.0,-0.00010921265493379906
1664.0,-0.0015900064026936889
1792.0,1.0873989594983868e-05
1920.0,-5.0482613005442545e-05
2048.0,-0.0011281220940873027
2304.0,0.0003453674435149878
2560.0,0.00019472830172162503
2816.0,0.0014246414648368955
3072.0,0.0002645970380399376
3328.0,-0.000707025348674506
3584.0,-0.0008516358211636543
3840.0,-0.0004706153704319149
4096.0,0.000671406218316406
4608.0,0.00019800283189397305
5120.0,-0.00010842809570021927
5632.0,0.0009149495745077729
6144.0,-0.0011497670784592628
6656.0,-0.00032605763408355415
7168.0,-9.747015428729355e-05
7680.0,-0.00013708612823393196
8192.0,-0.0004583770933095366
end
