version,3.0
numOfCh,1
type,point
parent_name,0cd20_1dot0-1dot0
ch_type,1_1
kcount,1
numberNandB,1
brightnessNandB,1
carpet pos,0
pc,0
Time (ms),CH1 Auto-Correlation
1.0,0.02811494842171669
2.0,0.02581005170941353
3.0,0.023820318281650543
4.0,0.02222127467393875
5.0,0.020797505974769592
6.0,0.019471438601613045
7.0,0.01827647164463997
8.0,0.01715419813990593
9.0,0.016162607818841934
10.0,0.01521916314959526
11.0,0.014396414160728455
12.0,0.01366759929805994
13.0,0.01305100042372942
14.0,0.012510553933680058
15.0,0.011982955038547516
16.0,0.011436200700700283
18.0,0.010617241263389587
20.0,0.010074316523969173
22.0,0.0094990199431777
24.0,0.008901570923626423
26.0,0.008462276309728622
28.0,0.00813552550971508
30.0,0.00785912573337555
32.0,0.007548777386546135
36.0,0.006814850494265556
40.0,0.006301778834313154
44.0,0.006001625210046768
48.0,0.005616622976958752
52.0,0.005045545753091574
56.0,0.0045661018230021
60.0,0.004249685909599066
64.0,0.004170119296759367
72.0,0.004403757397085428
80.0,0.004135502502322197
88.0,0.003724384121596813
96.0,0.003226538887247443
104.0,0.002933627227321267
112.0,0.0025147676933556795
120.0,0.0025290364865213633
128.0,0.002393728820607066
144.0,0.0021874818485230207
160.0,0.0029117611702531576
176.0,0.002990933833643794
192.0,0.002588207833468914
208.0,0.0020028671715408564
224.0,0.0013458963949233294
240.0,0.0005621137097477913
256.0,0.0005236392607912421
288.0,0.0014088638126850128
320.0,0.002359157893806696
352.0,0.002235878026112914
384.0,0.0011068880558013916
416.0,0.00020282829063944519
448.0,4.004377842647955e-05
480.0,0.00047081519733183086
512.0,0.001157294143922627
576.0,-0.0009234070312231779
640.0,-0.0003800556296482682
704.0,0.0003334682260174304
768.0,-0.0013083094963803887
832.0,-0.0020436018239706755
896.0,-0.0008426978019997478
960.0,0.0001952804741449654
1024.0,0.0008277121232822537
1152.0,-0.0005429611774161458
1280.0,-0.0015659891068935394
1408.0,-0.0014817763585597277
1536.0,-0.0005366530967876315
1664.0,-0.0008387572015635669
1792.0,-0.0018250149441882968
1920.0,-0.0013724876334890723
2048.0,-0.0011017477372661233
2304.0,-0.0007779280422255397
2560.0,0.000743152282666415
2816.0,0.0005815545446239412
3072.0,-0.00015041980077512562
3328.0,0.0005184719921089709
3584.0,0.0008001350797712803
3840.0,0.0014086213195696473
4096.0,0.001320313778705895
4608.0,0.0005604046164080501
5120.0,-0.0007627335144206882
5632.0,-0.002722968580201268
6144.0,-0.0011183974565938115
6656.0,0.000923012790735811
7168.0,0.0012221373617649078
7680.0,0.0005155171966180205
8192.0,0.00016222172416746616
end
