version,3.0
numOfCh,1
type,point
parent_name,0cd20_1dot0-1dot0
ch_type,1_1
kcount,1
numberNandB,1
brightnessNandB,1
carpet pos,0
pc,0
Time (ms),CH1 Auto-Correlation
1.0,0.026998205110430717
2.0,0.024896979331970215
3.0,0.023091016337275505
4.0,0.021517083048820496
5.0,0.020110979676246643
6.0,0.018877189606428146
7.0,0.017775706946849823
8.0,0.016770096495747566
9.0,0.015909045934677124
10.0,0.015116071328520775
11.0,0.014313728548586369
12.0,0.01352100819349289
13.0,0.01286002341657877
14.0,0.012354327365756035
15.0,0.011794636026024818
16.0,0.011316502466797829
18.0,0.010397509671747684
20.0,0.009562481194734573
22.0,0.008846879005432129
24.0,0.008207254111766815
26.0,0.007537865545600653
28.0,0.0071618701331317425
30.0,0.006733778398483992
32.0,0.006370314862579107
36.0,0.0057457443326711655
40.0,0.00521348649635911
44.0,0.004917355254292488
48.0,0.0045960876159369946
52.0,0.00436666002497077
56.0,0.004068578127771616
60.0,0.003944208845496178
64.0,0.0036393217742443085
72.0,0.002961960854008794
80.0,0.002423829399049282
88.0,0.0019696499221026897
96.0,0.0013926163082942367
104.0,0.0010363494511693716
112.0,0.000841044238768518
120.0,0.0008631177479401231
128.0,0.0007254689699038863
144.0,0.0005234800628386438
160.0,0.0011958351824432611
176.0,0.0009617394534870982
192.0,0.0007449494441971183
208.0,-0.00012702454114332795
224.0,-0.0005175346159376204
240.0,-0.000558630155865103
256.0,-0.000778666406404227
288.0,-2.4500272047589533e-05
320.0,-0.0006117119337432086
352.0,-0.0008276439621113241
384.0,-0.0004784268676303327
416.0,-0.0010451347334310412
448.0,-0.0015213703736662865
480.0,0.00019026837253477424
512.0,0.00032297908910550177
576.0,-0.0002340280043426901
640.0,1.0569827281869948e-05
704.0,-0.0007401276961900294
768.0,-0.0015189910773187876
832.0,-0.0018565556965768337
896.0,-0.0010747575433924794
960.0,-4.687860928243026e-05
1024.0,0.0006432249210774899
1152.0,0.0008747067186050117
1280.0,0.001148983370512724
1408.0,0.0006085599306970835
1536.0,-1.6247482562903315e-05
1664.0,0.0009994676802307367
1792.0,-0.0006545854266732931
1920.0,-0.001734595512971282
2048.0,-0.0012095269048586488
2304.0,-4.163041739957407e-05
2560.0,-9.643384146329481e-06
2816.0,0.0006707635475322604
3072.0,-0.0006672876770608127
3328.0,-0.0006004479364491999
3584.0,-0.0006912299431860447
3840.0,0.00041031328146345913
4096.0,0.0009141444461420178
4608.0,-0.0004953939351253211
5120.0,0.0007659996626898646
5632.0,-0.000140527801704593
6144.0,-0.0009333924972452223
6656.0,0.00023153529036790133
7168.0,-0.0008559359121136367
7680.0,-0.0002706677478272468
8192.0,0.00015630682173650712
end
