version,3.0
numOfCh,1
type,point
parent_name,0cd20_1dot0-1dot0
ch_type,1_1
kcount,1
numberNandB,1
brightnessNandB,1
carpet pos,0
pc,0
Time (ms),CH1 Auto-Correlation
1.0,0.03498418629169464
2.0,0.03232468292117119
3.0,0.029814789071679115
4.0,0.028059177100658417
5.0,0.026156235486268997
6.0,0.0244060680270195
7.0,0.022765817120671272
8.0,0.02109922096133232
9.0,0.019859833642840385
10.0,0.018597325310111046
11.0,0.01748719811439514
12.0,0.016315419226884842
13.0,0.015463806688785553
14.0,0.014645688235759735
15.0,0.01386476494371891
16.0,0.013104226440191269
18.0,0.011958685703575611
20.0,0.01100917998701334
22.0,0.010252300649881363
24.0,0.009482238441705704
26.0,0.008846521377563477
28.0,0.008281523361802101
30.0,0.007726483512669802
32.0,0.007216312922537327
36.0,0.006475113332271576
40.0,0.0063239033333957195
44.0,0.00606542220339179
48.0,0.005800754763185978
52.0,0.005681280512362719
56.0,0.005487355869263411
60.0,0.005507493857294321
64.0,0.00565612455829978
72.0,0.005102456547319889
80.0,0.004476452246308327
88.0,0.0034158832859247923
96.0,0.0029983120039105415
104.0,0.0023043742403388023
112.0,0.0011633780086413026
120.0,0.001179467886686325
128.0,0.00189963320735842
144.0,0.00132135977037251
160.0,0.000683448975905776
176.0,0.0003136879240628332
192.0,-0.001104371272958815
208.0,-0.0008593104430474341
224.0,-1.230079578817822e-05
240.0,-0.0006824552547186613
256.0,-0.00011466291471151635
288.0,0.0007028259569779038
320.0,-0.0002915895020123571
352.0,-0.0005545120220631361
384.0,-0.00022495616576634347
416.0,-0.0004016007005702704
448.0,-0.0009983215713873506
480.0,-0.0012619023909792304
512.0,-0.001054319553077221
576.0,-0.0006456081755459309
640.0,-0.0006539653404615819
704.0,-0.00029921860550530255
768.0,-0.00022499739134218544
832.0,-0.0001666168391238898
896.0,0.0011908519081771374
960.0,-0.0017132395878434181
1024.0,-0.0027369598392397165
1152.0,-0.0020072804763913155
1280.0,-0.0021874443627893925
1408.0,-0.0010440099285915494
1536.0,0.001088844146579504
1664.0,0.0009289958397857845
1792.0,0.0001607634621905163
1920.0,0.0015336318174377084
2048.0,0.0008535776869393885
2304.0,-0.00025578204076737165
2560.0,-0.0006480163428932428
2816.0,0.0006747895968146622
3072.0,0.0006227243575267494
3328.0,-0.0005104370648041368
3584.0,0.0009870979702100158
3840.0,3.7236509342619684e-06
4096.0,-0.0007679424015805125
4608.0,-3.910482337232679e-05
5120.0,-0.0002544206799939275
5632.0,0.0004977289354428649
6144.0,-0.0007898054900579154
6656.0,0.00016401095490437
7168.0,-0.0004470870189834386
7680.0,0.0007330421358346939
8192.0,0.0002338514314033091
end
