version,3.0
numOfCh,1
type,point
parent_name,0cd20_1dot0-1dot0
ch_type,1_1
kcount,1
numberNandB,1
brightnessNandB,1
carpet pos,0
pc,0
Time (ms),CH1 Auto-Correlation
1.0,0.0326431542634964
2.0,0.030020955950021744
3.0,0.028065716847777367
4.0,0.026205433532595634
5.0,0.024298761039972305
6.0,0.02289084531366825
7.0,0.021509945392608643
8.0,0.02017306722700596
9.0,0.01887289434671402
10.0,0.017891330644488335
11.0,0.01695568859577179
12.0,0.016061073169112206
13.0,0.015355218201875687
14.0,0.014767330139875412
15.0,0.014185992069542408
16.0,0.013615122996270657
18.0,0.012516896240413189
20.0,0.011495979502797127
22.0,0.01054549403488636
24.0,0.009798373095691204
26.0,0.009264979511499405
28.0,0.008772545494139194
30.0,0.008330081589519978
32.0,0.00791866797953844
36.0,0.007466502953320742
40.0,0.007081849500536919
44.0,0.007024475838989019
48.0,0.006890921387821436
52.0,0.006477541755884886
56.0,0.006155615206807852
60.0,0.005864187143743038
64.0,0.00560018140822649
72.0,0.004705710802227259
80.0,0.003815005300566554
88.0,0.0038197722751647234
96.0,0.004885287955403328
104.0,0.005106064956635237
112.0,0.004668041598051786
120.0,0.0042237951420247555
128.0,0.004196585156023502
144.0,0.0040235863998532295
160.0,0.0029600029811263084
176.0,0.0018808890599757433
192.0,0.0013742054579779506
208.0,0.002238330664113164
224.0,0.001585405203513801
240.0,0.00191654940135777
256.0,0.002500497968867421
288.0,0.0018973469268530607
320.0,0.00048113454249687493
352.0,-7.880106568336487e-05
384.0,0.0012161934282630682
416.0,-0.0001356460270471871
448.0,-0.0006154726725071669
480.0,-0.0011145544704049826
512.0,-0.001240989426150918
576.0,-0.0002849915181286633
640.0,-2.952185423055198e-05
704.0,-0.0001667181495577097
768.0,-0.0010799557203426957
832.0,0.0008486181613989174
896.0,3.807729808613658e-05
960.0,-0.0015344134299084544
1024.0,-0.0010676891542971134
1152.0,-0.00035715827834792435
1280.0,0.000687530729919672
1408.0,-0.0007832905976101756
1536.0,-8.554534724680707e-05
1664.0,0.00012911796511616558
1792.0,0.0011818732600659132
1920.0,0.00130292063113302
2048.0,0.0008519908296875656
2304.0,-8.62459564814344e-05
2560.0,0.0011842958629131317
2816.0,0.0005036540096625686
3072.0,0.0010624330025166273
3328.0,-0.001001622760668397
3584.0,-0.0019595494959503412
3840.0,5.8055913541466e-05
4096.0,-1.0993282558047213e-05
4608.0,-0.0001254414237337187
5120.0,-0.0003449396463111043
5632.0,6.942083564354107e-05
6144.0,-0.0009205348906107247
6656.0,-0.0013663115678355098
7168.0,0.00037782127037644386
7680.0,0.0005733895814046264
8192.0,-0.0011924001155421138
end
