version,3.0
numOfCh,1
type,point
parent_name,0cd20_1dot0-1dot0
ch_type,1_1
kcount,1
numberNandB,1
brightnessNandB,1
carpet pos,0
pc,0
Time (ms),CH1 Auto-Correlation
1.0,0.029015306383371353
2.0,0.026795919984579086
3.0,0.02491627261042595
4.0,0.02321016415953636
5.0,0.021747732535004616
6.0,0.02049386128783226
7.0,0.019365185871720314
8.0,0.01841161772608757
9.0,0.01758061721920967
10.0,0.016803892329335213
11.0,0.016057869419455528
12.0,0.015471113845705986
13.0,0.014878273010253906
14.0,0.01430458202958107
15.0,0.013895513489842415
16.0,0.013429326936602592
18.0,0.012627520598471165
20.0,0.01183523889631033
22.0,0.01111461129039526
24.0,0.010617255233228207
26.0,0.010229620151221752
28.0,0.009828691370785236
30.0,0.00942525640130043
32.0,0.009010003879666328
36.0,0.008269653655588627
40.0,0.0073033543303608894
44.0,0.006482231430709362
48.0,0.00599872088059783
52.0,0.005709771532565355
56.0,0.005222854670137167
60.0,0.004788873717188835
64.0,0.004299731459468603
72.0,0.0033865803852677345
80.0,0.003156862687319517
88.0,0.002984778257086873
96.0,0.002181574236601591
104.0,0.0016294569941237569
112.0,0.0011628363281488419
120.0,0.0011890168534591794
128.0,0.0011852334719151258
144.0,0.0015227093826979399
160.0,0.0011138224508613348
176.0,0.0007084503886289895
192.0,0.00011499908578116447
208.0,-0.000627359317149967
224.0,-0.0006699194782413542
240.0,0.0005607197526842356
256.0,0.0005465617286972702
288.0,-0.0002311124262632802
320.0,0.00012294278712943196
352.0,0.0017155978130176663
384.0,0.0023992338683456182
416.0,0.0022392626851797104
448.0,0.0015301390085369349
480.0,0.0007180410320870578
512.0,0.0010652204509824514
576.0,0.0009446664480492473
640.0,0.000939844292588532
704.0,-0.00018662250658962876
768.0,-0.0007588508888147771
832.0,-0.00024014701193664223
896.0,0.0005262044724076986
960.0,0.002009006217122078
1024.0,0.001830543391406536
1152.0,-6.523173942696303e-05
1280.0,0.0005961600109003484
1408.0,0.0003295379283372313
1536.0,-0.0007057733018882573
1664.0,0.0003648575220722705
1792.0,-0.000468720420030877
1920.0,0.0005273923743516207
2048.0,-0.00032129426836036146
2304.0,0.0005740487249568105
2560.0,-0.0006693055620416999
2816.0,0.0006481138407252729
3072.0,-0.0013749103527516127
3328.0,-0.00013091551954858005
3584.0,-0.0010084803216159344
3840.0,-0.00012174781295470893
4096.0,-0.0009463290334679186
4608.0,-0.00040420994628220797
5120.0,-0.0009755711653269827
5632.0,-0.00020351387502159923
6144.0,-0.0005740131018683314
6656.0,-0.0013747462071478367
7168.0,0.0004344093322288245
7680.0,6.465452770498814e-06
8192.0,-0.0009654706809669733
end
