version,3.0
numOfCh,1
type,point
parent_name,0cd20_1dot0-1dot0
ch_type,1_1
kcount,1
numberNandB,1
brightnessNandB,1
carpet pos,0
pc,0
Time (ms),CH1 Auto-Correlation
1.0,0.02723883092403412
2.0,0.024947892874479294
3.0,0.023001549765467644
4.0,0.021355029195547104
5.0,0.019921235740184784
6.0,0.018731847405433655
7.0,0.017682505771517754
8.0,0.016694478690624237
9.0,0.015742717310786247
10.0,0.014899415895342827
11.0,0.014200601726770401
12.0,0.01352053415030241
13.0,0.012875105254352093
14.0,0.01229805126786232
15.0,0.011739798821508884
16.0,0.01125215645879507
18.0,0.010476421564817429
20.0,0.009756647050380707
22.0,0.00909331813454628
24.0,0.008565939962863922
26.0,0.008088805712759495
28.0,0.007666995748877525
30.0,0.007402570452541113
32.0,0.007281625643372536
36.0,0.006940059829503298
40.0,0.006283171474933624
44.0,0.005583450198173523
48.0,0.0047500417567789555
52.0,0.004088853020220995
56.0,0.003964654635637999
60.0,0.0038327700458467007
64.0,0.0037666275165975094
72.0,0.0037805724423378706
80.0,0.0035433745943009853
88.0,0.002529930556192994
96.0,0.002105059800669551
104.0,0.0021035773679614067
112.0,0.0019959823694080114
120.0,0.0017860758816823363
128.0,0.0010763797909021378
144.0,0.0003959285095334053
160.0,-9.714798943605274e-05
176.0,-0.00029948673909530044
192.0,1.961933776328806e-05
208.0,-0.0003364798321854323
224.0,2.4728455173317343e-05
240.0,-4.378353878564667e-06
256.0,-0.00027599468012340367
288.0,-0.000679993478115648
320.0,0.00012469285866245627
352.0,-0.0008739266777411103
384.0,-0.0010347702773287892
416.0,-0.00012256932677701116
448.0,-0.00044774444540962577
480.0,-5.2745290304301307e-05
512.0,-0.0008518149261362851
576.0,0.00018288576393388212
640.0,-0.00011525381705723703
704.0,-0.00014488714805338532
768.0,0.001239896286278963
832.0,0.0008382097585126758
896.0,0.0006536970613524318
960.0,0.0004080375947523862
1024.0,-0.0003518879530020058
1152.0,-0.0017181072616949677
1280.0,-0.001784064806997776
1408.0,5.972026883682702e-06
1536.0,-0.0002936381788458675
1664.0,-0.0010328645585104823
1792.0,-0.0006477657007053494
1920.0,0.0005466335569508374
2048.0,0.00014450986054725945
2304.0,0.0003669674915727228
2560.0,0.0005445153801701963
2816.0,-0.0003579010663088411
3072.0,-0.0008543895673938096
3328.0,0.0009517325670458376
3584.0,-0.0006606793031096458
3840.0,3.9270464185392484e-05
4096.0,0.00047667467151768506
4608.0,-0.001177105470560491
5120.0,0.00016301139839924872
5632.0,0.00011406845442252234
6144.0,-8.039908425416797e-05
6656.0,0.0003237237688153982
7168.0,-0.0015366320731118321
7680.0,-0.00018752781033981591
8192.0,0.0015419634291902184
end
