version,3.0
numOfCh,1
type,point
parent_name,0cd20_1dot0-1dot0
ch_type,1_1
kcount,1
numberNandB,1
brightnessNandB,1
carpet pos,0
pc,0
Time (ms),CH1 Auto-Correlation
1.0,0.02853541634976864
2.0,0.026075812056660652
3.0,0.02410135418176651
4.0,0.02237074263393879
5.0,0.02089921198785305
6.0,0.01958840899169445
7.0,0.018417399376630783
8.0,0.01737031899392605
9.0,0.01645195670425892
10.0,0.015604276210069656
11.0,0.014863661490380764
12.0,0.014234120026230812
13.0,0.013685530051589012
14.0,0.01309350784868002
15.0,0.012578103691339493
16.0,0.01214498933404684
18.0,0.01121396292001009
20.0,0.010455705225467682
22.0,0.009650632739067078
24.0,0.009016677737236023
26.0,0.008443858474493027
28.0,0.007948269136250019
30.0,0.007404609117656946
32.0,0.006871398072689772
36.0,0.005925892852246761
40.0,0.00514900591224432
44.0,0.004391904920339584
48.0,0.003917684778571129
52.0,0.003496558405458927
56.0,0.0031885229982435703
60.0,0.0028969792183488607
64.0,0.0026939110830426216
72.0,0.0023526980075985193
80.0,0.001861377852037549
88.0,0.0012918878346681595
96.0,0.0010758350836113095
104.0,0.0006981348269619048
112.0,5.380737275118008e-05
120.0,-0.0001043503507389687
128.0,-0.00015810733020771295
144.0,0.00019531178986653686
160.0,0.000387404317734763
176.0,4.0346862078877166e-05
192.0,0.0007357617723755538
208.0,0.0006930165109224617
224.0,0.00035487095010466874
240.0,0.0002596286649350077
256.0,0.0003750029718503356
288.0,-0.0001800052123144269
320.0,-0.0008471682667732239
352.0,-0.0007824850035831332
384.0,0.0001280295109609142
416.0,0.00040399745921604335
448.0,-0.0006812208448536694
480.0,-0.0013424953212961555
512.0,-0.001835340983234346
576.0,-0.0014120376436039805
640.0,-0.001238023629412055
704.0,-3.508733425405808e-05
768.0,0.0009474884136579931
832.0,0.000717142247594893
896.0,0.0007536414777860045
960.0,-0.00040592136792838573
1024.0,0.000410156964790076
1152.0,0.0005197974387556314
1280.0,4.561696550808847e-05
1408.0,-0.00031910149846225977
1536.0,-0.00041285809129476547
1664.0,-0.0005209373775869608
1792.0,-0.0017655885312706232
1920.0,-0.00017853644385468215
2048.0,0.00116793904453516
2304.0,0.0005573468515649438
2560.0,0.00016417281585745513
2816.0,-0.00022674386855214834
3072.0,-0.0007846020744182169
3328.0,-0.00017625786131247878
3584.0,0.0006694839103147388
3840.0,-0.00016765740292612463
4096.0,-0.00038395781302824616
4608.0,8.02304275566712e-05
5120.0,0.00029174747760407627
5632.0,0.00010433539864607155
6144.0,0.00039743661182001233
6656.0,0.00022302869183477014
7168.0,-0.001033376669511199
7680.0,-0.000835905026178807
8192.0,-0.00012863341544289142
end
