version,3.0
numOfCh,1
type,point
parent_name,0cd20_1dot0-1dot0
ch_type,1_1
kcount,1
numberNandB,1
brightnessNandB,1
carpet pos,0
pc,0
Time (ms),CH1 Auto-Correlation
1.0,0.0262492373585701
2.0,0.024023158475756645
3.0,0.022208213806152344
4.0,0.020687123760581017
5.0,0.019353307783603668
6.0,0.018168006092309952
7.0,0.01709255389869213
8.0,0.016189010813832283
9.0,0.015353232622146606
10.0,0.014573018997907639
11.0,0.01385459490120411
12.0,0.013168702833354473
13.0,0.012557380832731724
14.0,0.011892376467585564
15.0,0.011263038031756878
16.0,0.010719241574406624
18.0,0.009870965965092182
20.0,0.009134989231824875
22.0,0.00853051245212555
24.0,0.008017361164093018
26.0,0.007418643683195114
28.0,0.006882428657263517
30.0,0.006406088825315237
32.0,0.0059427302330732346
36.0,0.0050962576642632484
40.0,0.004366576671600342
44.0,0.0037871329113841057
48.0,0.0031967749819159508
52.0,0.0026445493567734957
56.0,0.0020910752937197685
60.0,0.0017747243400663137
64.0,0.0015887621557340026
72.0,0.0013382332399487495
80.0,0.0019243323476985097
88.0,0.002484916476532817
96.0,0.002260299166664481
104.0,0.0020106087904423475
112.0,0.0019423565827310085
120.0,0.0015161107294261456
128.0,0.0012890729121863842
144.0,0.0006947596557438374
160.0,-2.3706545107415877e-05
176.0,0.00012604345101863146
192.0,-9.107471669267397e-06
208.0,0.00014310221013147384
224.0,-2.1363901396398433e-05
240.0,0.00043915724381804466
256.0,0.0007579480297863483
288.0,0.0002320883795619011
320.0,0.0001391773985233158
352.0,0.00024263514205813408
384.0,0.00012503120524343103
416.0,0.0003854049136862159
448.0,-3.755712532438338e-05
480.0,0.0005049245664849877
512.0,0.00027500613941811025
576.0,0.0013409628299996257
640.0,0.0007558222278021276
704.0,-0.0009891209192574024
768.0,-0.001064435811713338
832.0,-0.0010821546893566847
896.0,-0.0005346962134353817
960.0,-0.0007738160202279687
1024.0,0.0009655093308538198
1152.0,-0.0001533785689389333
1280.0,-0.001434255507774651
1408.0,-0.0005837747594341636
1536.0,-0.00032300801831297576
1664.0,-0.0005148294731043279
1792.0,-0.001410607947036624
1920.0,-0.0006195734604261816
2048.0,0.00023903943656478077
2304.0,0.00022863474441692233
2560.0,0.00040554878069087863
2816.0,0.0012462877202779055
3072.0,-0.00042718189070001245
3328.0,0.0013261295389384031
3584.0,-0.0006874088430777192
3840.0,0.0009861100697889924
4096.0,-0.00039091703365556896
4608.0,-0.0006640682695433497
5120.0,-0.0006012702942825854
5632.0,7.573005859740078e-05
6144.0,-0.00047154846834018826
6656.0,0.000943380466196686
7168.0,-0.00045748308184556663
7680.0,-0.00041379377944394946
8192.0,-0.0015205413801595569
end
