version,3.0
numOfCh,1
type,point
parent_name,34a6d_0dot2-1dot0
ch_type,1_1
kcount,1
numberNandB,1
brightnessNandB,1
carpet pos,0
pc,0
Time (ms),CH1 Auto-Correlation
1.0,0.022679857909679413
2.0,0.02223419025540352
3.0,0.02181916870176792
4.0,0.02142374776303768
5.0,0.021048197522759438
6.0,0.020674852654337883
7.0,0.020312704145908356
8.0,0.019963044673204422
9.0,0.019635336473584175
10.0,0.019310109317302704
11.0,0.018999043852090836
12.0,0.01868470013141632
13.0,0.018381750211119652
14.0,0.01808135211467743
15.0,0.017790386453270912
16.0,0.0175198782235384
18.0,0.017021052539348602
20.0,0.016538459807634354
22.0,0.01608055643737316
24.0,0.0156641136854887
26.0,0.015267297625541687
28.0,0.014868197962641716
30.0,0.014496511779725552
32.0,0.014121966436505318
36.0,0.013416549190878868
40.0,0.012762571685016155
44.0,0.012141691520810127
48.0,0.011574149131774902
52.0,0.011049496941268444
56.0,0.010557001456618309
60.0,0.010109061375260353
64.0,0.009660492651164532
72.0,0.008810422383248806
80.0,0.007985242642462254
88.0,0.007370023988187313
96.0,0.006885599344968796
104.0,0.00653466209769249
112.0,0.006269482430070639
120.0,0.0060997651889920235
128.0,0.005961613263934851
144.0,0.0056846002116799355
160.0,0.005239119753241539
176.0,0.004968015011399984
192.0,0.004453733563423157
208.0,0.0036795155610889196
224.0,0.003176657250151038
240.0,0.0027017397806048393
256.0,0.0023218118585646152
288.0,0.0025869470555335283
320.0,0.0026107248850166798
352.0,0.002154085785150528
384.0,0.0026394438464194536
416.0,0.002792094135656953
448.0,0.0025070032570511103
480.0,0.0014036539942026138
512.0,0.00022488871763926
576.0,-0.0008909054449759424
640.0,6.026522783031396e-07
704.0,0.0008991421200335026
768.0,0.0009950710227712989
832.0,0.0005373304593376815
896.0,0.0013209896860644221
960.0,0.0014168110210448503
1024.0,0.0013079866766929626
1152.0,0.002311320975422859
1280.0,0.0010506914695724845
1408.0,0.000842493842355907
1536.0,0.0017507125157862902
1664.0,0.001217138022184372
1792.0,0.0009319575619883835
1920.0,0.003707949770614505
2048.0,0.002496186411008239
2304.0,-0.0010510411811992526
2560.0,0.0001635850203456357
2816.0,-0.0011943539138883352
3072.0,0.0024239805061370134
3328.0,0.0003609024570323527
3584.0,-0.0012618419714272022
3840.0,-0.0008049450698308647
4096.0,-0.001695561222732067
4608.0,-0.003874285612255335
5120.0,0.0005797783378511667
5632.0,-0.0011413291795179248
6144.0,-0.0030226397793740034
6656.0,-0.0025777877308428288
7168.0,-0.0017217440763488412
7680.0,-0.0032907985150814056
8192.0,0.0005566161125898361
end
