version,3.0
numOfCh,1
type,point
parent_name,34a6d_0dot2-1dot0
ch_type,1_1
kcount,1
numberNandB,1
brightnessNandB,1
carpet pos,0
pc,0
Time (ms),CH1 Auto-Correlation
1.0,0.019835198298096657
2.0,0.019382866099476814
3.0,0.01895640417933464
4.0,0.018558815121650696
5.0,0.01817227341234684
6.0,0.017822595313191414
7.0,0.01750914379954338
8.0,0.017189890146255493
9.0,0.016887225210666656
10.0,0.016589146107435226
11.0,0.01629689149558544
12.0,0.01600869558751583
13.0,0.01575043424963951
14.0,0.015499292872846127
15.0,0.015254920348525047
16.0,0.015019092708826065
18.0,0.014568276703357697
20.0,0.014144288375973701
22.0,0.013744216412305832
24.0,0.013380139134824276
26.0,0.013042841106653214
28.0,0.012741614133119583
30.0,0.012439004145562649
32.0,0.012183424085378647
36.0,0.011744022369384766
40.0,0.011327576823532581
44.0,0.010960474610328674
48.0,0.010602901689708233
52.0,0.010330173186957836
56.0,0.01008694525808096
60.0,0.009919492527842522
64.0,0.009733069688081741
72.0,0.009391697123646736
80.0,0.0090358667075634
88.0,0.008643517270684242
96.0,0.008180120028555393
104.0,0.0077749150805175304
112.0,0.0073867375031113625
120.0,0.006967176683247089
128.0,0.0065980288200080395
144.0,0.00597363943234086
160.0,0.00567144388332963
176.0,0.005255873780697584
192.0,0.004781247116625309
208.0,0.004403633065521717
224.0,0.004267534241080284
240.0,0.00400746101513505
256.0,0.003781568491831422
288.0,0.0030315828043967485
320.0,0.002498605754226446
352.0,0.0014530562330037355
384.0,0.0010660687694326043
416.0,0.0012377637904137373
448.0,0.0012158108875155449
480.0,0.0012459937715902925
512.0,0.0008854313055053353
576.0,8.648364746477455e-05
640.0,0.00046353309880942106
704.0,0.0009280573576688766
768.0,0.0011501361150294542
832.0,0.000828051008284092
896.0,0.000281780055956915
960.0,-0.00032660283613950014
1024.0,-0.0009643175872042775
1152.0,-0.0010239861439913511
1280.0,-0.0003067196230404079
1408.0,-0.00044075181358493865
1536.0,-0.0007982595707289875
1664.0,-0.0004800514143425971
1792.0,0.000383794802473858
1920.0,-5.104570391267771e-06
2048.0,0.0001609554310562089
2304.0,-0.00041012917063198984
2560.0,0.0004215569351799786
2816.0,-0.0007535558543168008
3072.0,-0.0008400015067309141
3328.0,-0.0014964299043640494
3584.0,-0.002525201765820384
3840.0,-0.0004769214428961277
4096.0,0.0012101157335564494
4608.0,-0.0016538554336875677
5120.0,-0.0004626273876056075
5632.0,0.0010428036330267787
6144.0,0.0024733389727771282
6656.0,-0.0018917934503406286
7168.0,-0.0013547090347856283
7680.0,0.00011066657316405326
8192.0,0.0016214899951592088
end
