version,3.0
numOfCh,1
type,point
parent_name,34a6d_0dot2-1dot0
ch_type,1_1
kcount,1
numberNandB,1
brightnessNandB,1
carpet pos,0
pc,0
Time (ms),CH1 Auto-Correlation
1.0,0.023059627041220665
2.0,0.02264932543039322
3.0,0.02225741557776928
4.0,0.021884780377149582
5.0,0.021522169932723045
6.0,0.021173542365431786
7.0,0.020832767710089684
8.0,0.0205027237534523
9.0,0.020167216658592224
10.0,0.019859423860907555
11.0,0.01954800635576248
12.0,0.019250599667429924
13.0,0.018957048654556274
14.0,0.01867382600903511
15.0,0.01839149370789528
16.0,0.01813468523323536
18.0,0.01764744333922863
20.0,0.017193732783198357
22.0,0.01677129976451397
24.0,0.01637614704668522
26.0,0.015978511422872543
28.0,0.015588298439979553
30.0,0.015232827514410019
32.0,0.01494247280061245
36.0,0.014452081173658371
40.0,0.01402787771075964
44.0,0.013577313162386417
48.0,0.01313780527561903
52.0,0.012716695666313171
56.0,0.012260736897587776
60.0,0.011789380572736263
64.0,0.011358948424458504
72.0,0.010518276132643223
80.0,0.009766154922544956
88.0,0.009100304916501045
96.0,0.008458794094622135
104.0,0.007920583710074425
112.0,0.007472021505236626
120.0,0.007013344671577215
128.0,0.0065894946455955505
144.0,0.005852808244526386
160.0,0.0052703251130878925
176.0,0.005057168658822775
192.0,0.005209408700466156
208.0,0.005163717549294233
224.0,0.005286490544676781
240.0,0.005230145063251257
256.0,0.005011923611164093
288.0,0.004471191670745611
320.0,0.0038678322453051805
352.0,0.004130380693823099
384.0,0.003931092564016581
416.0,0.003071835730224848
448.0,0.0029055497143417597
480.0,0.0032280071172863245
512.0,0.002786512253805995
576.0,0.0018063384341076016
640.0,0.0007288283668458462
704.0,0.0004390764224808663
768.0,0.0016641044057905674
832.0,0.00240438268519938
896.0,0.0015193375293165445
960.0,0.0010785136837512255
1024.0,0.0011259526945650578
1152.0,0.0009236462647095323
1280.0,-0.0008582537993788719
1408.0,-0.0024681955110281706
1536.0,-0.0010950148571282625
1664.0,-0.001926153083331883
1792.0,-0.0037586805410683155
1920.0,-0.0024206226225942373
2048.0,-0.0014832894084975123
2304.0,-0.0018498336430639029
2560.0,-0.0012122741900384426
2816.0,0.00016146776033565402
3072.0,-0.00156397873070091
3328.0,0.001567665720358491
3584.0,0.001549186767078936
3840.0,0.0023991407360881567
4096.0,0.0010827698279172182
4608.0,0.00193989637773484
5120.0,0.0018176784506067634
5632.0,-0.0008455251227132976
6144.0,-0.0036293172743171453
6656.0,-0.004275323823094368
7168.0,-0.003739523934200406
7680.0,-0.0016493392176926136
8192.0,-0.0007737267878837883
end
