version,3.0
numOfCh,1
type,point
parent_name,34a6d_0dot2-1dot0
ch_type,1_1
kcount,1
numberNandB,1
brightnessNandB,1
carpet pos,0
pc,0
Time (ms),CH1 Auto-Correlation
1.0,0.021493153646588326
2.0,0.021060489118099213
3.0,0.020634200423955917
4.0,0.02025062032043934
5.0,0.01989966630935669
6.0,0.01954357698559761
7.0,0.019228966906666756
8.0,0.018922297284007072
9.0,0.018618714064359665
10.0,0.018312877044081688
11.0,0.01801348850131035
12.0,0.017747756093740463
13.0,0.01748824119567871
14.0,0.017232509329915047
15.0,0.016990384086966515
16.0,0.016741439700126648
18.0,0.016281090676784515
20.0,0.015858732163906097
22.0,0.015468374826014042
24.0,0.015101064927875996
26.0,0.014757373370230198
28.0,0.01441333256661892
30.0,0.014079420827329159
32.0,0.013764004223048687
36.0,0.013239151798188686
40.0,0.012738185003399849
44.0,0.01223123911768198
48.0,0.011769501492381096
52.0,0.011346564628183842
56.0,0.010945945978164673
60.0,0.010562604293227196
64.0,0.010253249667584896
72.0,0.009696715511381626
80.0,0.009249454364180565
88.0,0.00861142948269844
96.0,0.0080683259293437
104.0,0.007568812929093838
112.0,0.007234103512018919
120.0,0.0068729897029697895
128.0,0.0065780081786215305
144.0,0.0058532836847007275
160.0,0.005239092279225588
176.0,0.004904872737824917
192.0,0.004652880597859621
208.0,0.004359295126050711
224.0,0.003955027554184198
240.0,0.00351540045812726
256.0,0.0028467325028032064
288.0,0.0017020647646859288
320.0,0.0009182689827866852
352.0,0.00045513693476095796
384.0,1.920628892548848e-05
416.0,-0.00019757405971176922
448.0,-9.332469926448539e-05
480.0,0.0005779306520707905
512.0,0.0014757219469174743
576.0,0.0030444085132330656
640.0,0.002723833778873086
704.0,0.002358601428568363
768.0,0.0023003793321549892
832.0,0.0014641338493674994
896.0,0.0009568726527504623
960.0,0.001683633541688323
1024.0,0.001309273997321725
1152.0,0.0019508155528455973
1280.0,0.0022226048167794943
1408.0,0.002394234063103795
1536.0,0.0023915814235806465
1664.0,0.0011812015436589718
1792.0,-2.9965367502882145e-05
1920.0,0.0006208349950611591
2048.0,-7.080804061843082e-05
2304.0,-0.0012382896384224296
2560.0,0.0022771311923861504
2816.0,0.001825031591579318
3072.0,-0.001182706793770194
3328.0,-0.0021628811955451965
3584.0,-0.002344974782317877
3840.0,-0.0016192119801416993
4096.0,-0.00012010047794319689
4608.0,-0.0019222907721996307
5120.0,-0.0007795516867190599
5632.0,-0.001606525620445609
6144.0,-0.003726957133039832
6656.0,-0.000562245084438473
7168.0,-0.00028520278283394873
7680.0,-0.002009715186432004
8192.0,-0.001851297332905233
end
