version,3.0
numOfCh,1
type,point
parent_name,34a6d_0dot2-1dot0
ch_type,1_1
kcount,1
numberNandB,1
brightnessNandB,1
carpet pos,0
pc,0
Time (ms),CH1 Auto-Correlation
1.0,0.023797903209924698
2.0,0.023369595408439636
3.0,0.02295784093439579
4.0,0.022575175389647484
5.0,0.022210702300071716
6.0,0.021865734830498695
7.0,0.021530024707317352
8.0,0.021205183118581772
9.0,0.02088831178843975
10.0,0.020578915253281593
11.0,0.020277157425880432
12.0,0.01999865099787712
13.0,0.019724128767848015
14.0,0.019441835582256317
15.0,0.019160795956850052
16.0,0.01889396831393242
18.0,0.01837008260190487
20.0,0.01786092482507229
22.0,0.0173647440969944
24.0,0.01690084859728813
26.0,0.016472280025482178
28.0,0.01606043055653572
30.0,0.01566440425813198
32.0,0.015272993594408035
36.0,0.014555745758116245
40.0,0.01392617542296648
44.0,0.013377883471548557
48.0,0.012861018069088459
52.0,0.01234737504273653
56.0,0.011861486360430717
60.0,0.011366674676537514
64.0,0.010918072424829006
72.0,0.010065687820315361
80.0,0.00937859807163477
88.0,0.008903865702450275
96.0,0.008723746985197067
104.0,0.008545013144612312
112.0,0.00815958809107542
120.0,0.007623893208801746
128.0,0.007154680788516998
144.0,0.006548306904733181
160.0,0.005635770503431559
176.0,0.004654736258089542
192.0,0.0037079080939292908
208.0,0.0029971415642648935
224.0,0.0024630974512547255
240.0,0.0021263814996927977
256.0,0.0018037559930235147
288.0,0.0013775163097307086
320.0,0.0011227678041905165
352.0,0.0013677955139428377
384.0,0.0021943747997283936
416.0,0.002618576865643263
448.0,0.002817237749695778
480.0,0.0025834799744188786
512.0,0.0026685683988034725
576.0,0.0030378946103155613
640.0,0.0028155180625617504
704.0,0.0019887660164386034
768.0,0.001942143659107387
832.0,0.0015823750291019678
896.0,0.0014410358853638172
960.0,0.0005129601922817528
1024.0,-0.0005568963824771345
1152.0,-0.0012804009020328522
1280.0,-0.00039688782999292016
1408.0,0.0003662253147922456
1536.0,-0.0013675258960574865
1664.0,-0.002641925821080804
1792.0,-0.0022945746313780546
1920.0,-0.0023368285037577152
2048.0,-0.0018516966374590993
2304.0,-0.0009666116093285382
2560.0,-0.0008920219843275845
2816.0,-0.00021894775272812694
3072.0,0.002290022326633334
3328.0,0.00026731324032880366
3584.0,-0.001344416756182909
3840.0,-0.001932128332555294
4096.0,-0.0019404190825298429
4608.0,-0.0011687447549775243
5120.0,-0.0009287707507610321
5632.0,0.00014081435801927
6144.0,-0.000777650042437017
6656.0,0.0002272353449370712
7168.0,-0.0001907248079078272
7680.0,-0.0012756000505760312
8192.0,0.0009504621266387403
end
