version,3.0
numOfCh,1
type,point
parent_name,34a6d_0dot2-1dot0
ch_type,1_1
kcount,1
numberNandB,1
brightnessNandB,1
carpet pos,0
pc,0
Time (ms),CH1 Auto-Correlation
1.0,0.019430186599493027
2.0,0.019006330519914627
3.0,0.018599070608615875
4.0,0.018216697499155998
5.0,0.01785854436457157
6.0,0.01752929948270321
7.0,0.017213674262166023
8.0,0.016908640041947365
9.0,0.016600584611296654
10.0,0.016298824921250343
11.0,0.01600731909275055
12.0,0.015711599960923195
13.0,0.015432752668857574
14.0,0.015166317112743855
15.0,0.014898134395480156
16.0,0.014629595912992954
18.0,0.014125337824225426
20.0,0.01364344172179699
22.0,0.013199709355831146
24.0,0.012784107588231564
26.0,0.012414015829563141
28.0,0.012042302638292313
30.0,0.011675365269184113
32.0,0.01132118795067072
36.0,0.010691830888390541
40.0,0.010095139034092426
44.0,0.0094929663464427
48.0,0.00888069998472929
52.0,0.008284739218652248
56.0,0.007728296797722578
60.0,0.007276705000549555
64.0,0.006903876084834337
72.0,0.006217325106263161
80.0,0.00570840435102582
88.0,0.005216331221163273
96.0,0.004889258183538914
104.0,0.004571577999740839
112.0,0.004284324124455452
120.0,0.004054016433656216
128.0,0.003852185094729066
144.0,0.003756255144253373
160.0,0.003988637588918209
176.0,0.003900254610925913
192.0,0.003690177109092474
208.0,0.0032997189555317163
224.0,0.0026346954982727766
240.0,0.002287933835759759
256.0,0.0019139841897413135
288.0,0.0010980298975482583
320.0,0.0007485664100386202
352.0,0.0011502871057018638
384.0,0.0016461829654872417
416.0,0.0020637973211705685
448.0,0.0014337904285639524
480.0,0.0010424705687910318
512.0,0.0010475022718310356
576.0,0.0006387654575519264
640.0,0.0005904259160161018
704.0,-0.0016814992995932698
768.0,-0.00224618474021554
832.0,-0.0018779189558699727
896.0,-0.001834832364693284
960.0,-0.0021873193327337503
1024.0,-0.0010371648240834475
1152.0,-0.0007045306265354156
1280.0,0.0006103203049860895
1408.0,0.0005794152384623885
1536.0,-0.00023548574245069176
1664.0,0.0010934825986623764
1792.0,0.0022357963025569916
1920.0,0.002258177613839507
2048.0,0.0007982880342751741
2304.0,0.001600901479832828
2560.0,5.678746310877614e-05
2816.0,-0.0009132670238614082
3072.0,-0.001699027488939464
3328.0,-0.0008976129465736449
3584.0,0.0002636623685248196
3840.0,0.0014147949405014515
4096.0,0.0010467135580256581
4608.0,0.0003943383926525712
5120.0,-0.0005169399664737284
5632.0,-0.00010112347081303596
6144.0,0.000993881607428193
6656.0,0.00021247156837489456
7168.0,-0.00189323874656111
7680.0,-0.0006875309627503157
8192.0,0.0006180473719723523
end
