version,3.0
numOfCh,1
type,point
parent_name,34a6d_0dot2-1dot0
ch_type,1_1
kcount,1
numberNandB,1
brightnessNandB,1
carpet pos,0
pc,0
Time (ms),CH1 Auto-Correlation
1.0,0.02516479417681694
2.0,0.024717312306165695
3.0,0.02429673820734024
4.0,0.023886483162641525
5.0,0.02350303716957569
6.0,0.023131996393203735
7.0,0.022786103188991547
8.0,0.022465001791715622
9.0,0.022147854790091515
10.0,0.021831931546330452
11.0,0.021507378667593002
12.0,0.02121002972126007
13.0,0.020907800644636154
14.0,0.02061864361166954
15.0,0.020348504185676575
16.0,0.020073512569069862
18.0,0.01955879107117653
20.0,0.019058234989643097
22.0,0.018580012023448944
24.0,0.018098030239343643
26.0,0.017618464305996895
28.0,0.017168419435620308
30.0,0.01671251468360424
32.0,0.0162587221711874
36.0,0.015478987246751785
40.0,0.014731588773429394
44.0,0.014009447768330574
48.0,0.01335692498832941
52.0,0.012737062759697437
56.0,0.012161649763584137
60.0,0.011604600585997105
64.0,0.011097202077507973
72.0,0.010264393873512745
80.0,0.009460771456360817
88.0,0.008653261698782444
96.0,0.007823687046766281
104.0,0.007275067735463381
112.0,0.0068932487629354
120.0,0.006589267402887344
128.0,0.0062685636803507805
144.0,0.0059224390424788
160.0,0.005555162206292152
176.0,0.004976327996701002
192.0,0.004583040717989206
208.0,0.004367354325950146
224.0,0.004037974402308464
240.0,0.0037179000210016966
256.0,0.003196910722181201
288.0,0.0027140735182911158
320.0,0.002190162194892764
352.0,0.0021612741984426975
384.0,0.0023455957416445017
416.0,0.0026487340219318867
448.0,0.002390761859714985
480.0,0.0020979729015380144
512.0,0.0021827665623277426
576.0,0.0023390555288642645
640.0,0.0011087058810517192
704.0,0.0003727274015545845
768.0,0.0015269926516339183
832.0,0.0033203070051968098
896.0,0.002589070936664939
960.0,0.0017982368590310216
1024.0,0.00379160069860518
1152.0,0.0036226585507392883
1280.0,0.0021084798499941826
1408.0,0.001051778090186417
1536.0,-0.0018871648935601115
1664.0,-0.0019308156333863735
1792.0,-0.0008597635314799845
1920.0,-0.000269052543444559
2048.0,-0.00011457895743660629
2304.0,-0.0003370119375176728
2560.0,-0.0013504682574421167
2816.0,-0.003448748029768467
3072.0,-0.0029736917931586504
3328.0,-0.0026355020236223936
3584.0,0.0007995616761036217
3840.0,0.00118386244866997
4096.0,-3.262023165007122e-05
4608.0,-0.001618859707377851
5120.0,0.00037486868677660823
5632.0,0.0003624098899308592
6144.0,0.0010693256044760346
6656.0,-0.002203630516305566
7168.0,-0.0011423287214711308
7680.0,0.0017692111432552338
8192.0,-0.0014590785140171647
end
