version,3.0
numOfCh,1
type,point
parent_name,34a6d_0dot2-1dot0
ch_type,1_1
kcount,1
numberNandB,1
brightnessNandB,1
carpet pos,0
pc,0
Time (ms),CH1 Auto-Correlation
1.0,0.02269425429403782
2.0,0.02223934978246689
3.0,0.021809125319123268
4.0,0.021399591118097305
5.0,0.021006662398576736
6.0,0.020626327022910118
7.0,0.020252510905265808
8.0,0.019885651767253876
9.0,0.019535863772034645
10.0,0.019196972250938416
11.0,0.018874740228056908
12.0,0.018569903448224068
13.0,0.018270879983901978
14.0,0.017971936613321304
15.0,0.01768157258629799
16.0,0.017385968938469887
18.0,0.016833992674946785
20.0,0.0163193978369236
22.0,0.015820853412151337
24.0,0.01532926969230175
26.0,0.01486602146178484
28.0,0.014405881054699421
30.0,0.013983526267111301
32.0,0.013593793846666813
36.0,0.012873485684394836
40.0,0.01218898594379425
44.0,0.011530241928994656
48.0,0.010883892886340618
52.0,0.010258364491164684
56.0,0.009669383987784386
60.0,0.009118204936385155
64.0,0.008592036552727222
72.0,0.007552439346909523
80.0,0.006739821285009384
88.0,0.006130591034889221
96.0,0.005664477590471506
104.0,0.005231090355664492
112.0,0.0046685198321938515
120.0,0.004254292696714401
128.0,0.004026556853204966
144.0,0.003601144067943096
160.0,0.003579407464712858
176.0,0.00389054580591619
192.0,0.003867697436362505
208.0,0.0037553843576461077
224.0,0.003352216212078929
240.0,0.002555044600740075
256.0,0.0016392533434554935
288.0,3.9346654375549406e-05
320.0,-0.0002154129761038348
352.0,0.00034275586949661374
384.0,0.0005101276328787208
416.0,0.0007093265885487199
448.0,0.000754013133700937
480.0,0.0006739012897014618
512.0,0.0006962823099456728
576.0,0.0015767329605296254
640.0,0.0002206728095188737
704.0,-0.001111879595555365
768.0,-0.0006697388016618788
832.0,-2.255565777886659e-05
896.0,0.0005655399290844798
960.0,0.0015387285966426134
1024.0,0.002367883687838912
1152.0,0.0020138134714215994
1280.0,0.0022595764603465796
1408.0,0.0019003130728378892
1536.0,0.0010730607900768518
1664.0,0.0004500764771364629
1792.0,0.0005797031917609274
1920.0,-0.0010718947742134333
2048.0,-0.001878424664027989
2304.0,-0.001730291754938662
2560.0,-0.0010923949303105474
2816.0,0.0015401063719764352
3072.0,-0.0020866745617240667
3328.0,-0.0017161652212962508
3584.0,-0.00012121805775677785
3840.0,7.943092350615188e-05
4096.0,0.0008124820305965841
4608.0,-0.00018326638382859528
5120.0,-4.7402492782566696e-05
5632.0,0.00030190745019353926
6144.0,-0.0019197439542040229
6656.0,-0.0024315936025232077
7168.0,-0.0025648304726928473
7680.0,-0.001686783623881638
8192.0,0.0008800651994533837
end
