version,3.0
numOfCh,1
type,point
parent_name,34a6d_0dot2-1dot0
ch_type,1_1
kcount,1
numberNandB,1
brightnessNandB,1
carpet pos,0
pc,0
Time (ms),CH1 Auto-Correlation
1.0,0.019343601539731026
2.0,0.018895022571086884
3.0,0.01847824454307556
4.0,0.018102241680026054
5.0,0.01775677502155304
6.0,0.017417795956134796
7.0,0.017108535394072533
8.0,0.01680675707757473
9.0,0.016514072194695473
10.0,0.016219310462474823
11.0,0.015940900892019272
12.0,0.015682917088270187
13.0,0.015430307947099209
14.0,0.015179583802819252
15.0,0.01494503952562809
16.0,0.014715536497533321
18.0,0.014256075955927372
20.0,0.013815013691782951
22.0,0.013403544202446938
24.0,0.012986932881176472
26.0,0.012543807737529278
28.0,0.012150228023529053
30.0,0.011791442520916462
32.0,0.011450170539319515
36.0,0.010827681049704552
40.0,0.010186552070081234
44.0,0.009519731625914574
48.0,0.00888910610228777
52.0,0.008285386487841606
56.0,0.007725944742560387
60.0,0.007231095340102911
64.0,0.006766756996512413
72.0,0.0059301224537193775
80.0,0.005170947872102261
88.0,0.004348766524344683
96.0,0.0035505560226738453
104.0,0.00293615460395813
112.0,0.002432287437841296
120.0,0.001967180985957384
128.0,0.0015177472960203886
144.0,0.0008477341616526246
160.0,0.0006508246879093349
176.0,0.0004953975440002978
192.0,0.0003997888998128474
208.0,0.0005855198833160102
224.0,0.0008090278133749962
240.0,0.0010469419648870826
256.0,0.0010308362543582916
288.0,0.0012035403633490205
320.0,0.0016507537802681327
352.0,0.0019196695648133755
384.0,0.0012647932162508368
416.0,0.0008028065203689039
448.0,0.00010604428098304197
480.0,-0.0011382707161828876
512.0,-0.001888265018351376
576.0,-0.001119290478527546
640.0,-0.001363114919513464
704.0,-0.0004828732635360211
768.0,0.0008235927671194077
832.0,0.0007129498990252614
896.0,0.0001883893710328266
960.0,0.00037744975998066366
1024.0,0.0007709209457971156
1152.0,0.000931854301597923
1280.0,0.0008481424301862717
1408.0,0.0012659358326345682
1536.0,-0.00021240128262434155
1664.0,-0.00042850608588196337
1792.0,-0.0014500301331281662
1920.0,-0.002232748083770275
2048.0,0.0005835298798047006
2304.0,-0.00135123822838068
2560.0,-0.0001683922891970724
2816.0,9.607359970686957e-06
3072.0,-0.0005715407314710319
3328.0,-0.0008384919492527843
3584.0,-0.0004949614522047341
3840.0,0.0013957713963463902
4096.0,0.0007246704772114754
4608.0,0.00028273079078644514
5120.0,-0.0004884683876298368
5632.0,0.0005157851264812052
6144.0,-0.0003571032721083611
6656.0,0.0005050016916356981
7168.0,0.0002300929481862113
7680.0,0.00040888821240514517
8192.0,-0.00018295276095159352
end
