version,3.0
numOfCh,1
type,point
parent_name,34a6d_0dot2-1dot0
ch_type,1_1
kcount,1
numberNandB,1
brightnessNandB,1
carpet pos,0
pc,0
Time (ms),CH1 Auto-Correlation
1.0,0.02090062014758587
2.0,0.020430278033018112
3.0,0.019979653880000114
4.0,0.01954706758260727
5.0,0.019117446616292
6.0,0.018725400790572166
7.0,0.018332624807953835
8.0,0.01796145550906658
9.0,0.017606224864721298
10.0,0.017262978479266167
11.0,0.01692592352628708
12.0,0.016595371067523956
13.0,0.016270626336336136
14.0,0.015960857272148132
15.0,0.01567874848842621
16.0,0.015410295687615871
18.0,0.014878015965223312
20.0,0.014396962709724903
22.0,0.01396044809371233
24.0,0.013577928766608238
26.0,0.013226605951786041
28.0,0.012920291163027287
30.0,0.012650581076741219
32.0,0.012392044998705387
36.0,0.011900946497917175
40.0,0.011493421159684658
44.0,0.011151175945997238
48.0,0.010808836668729782
52.0,0.010401267558336258
56.0,0.010012227110564709
60.0,0.009715693071484566
64.0,0.009509995579719543
72.0,0.009042161516845226
80.0,0.008594979532063007
88.0,0.00804100837558508
96.0,0.007556101307272911
104.0,0.00721675343811512
112.0,0.0069542438723146915
120.0,0.00665880786255002
128.0,0.00635124184191227
144.0,0.005377219989895821
160.0,0.004312057979404926
176.0,0.0036346809938549995
192.0,0.003341884119436145
208.0,0.003059640759602189
224.0,0.003026051912456751
240.0,0.002820574212819338
256.0,0.0026915152557194233
288.0,0.002725232858210802
320.0,0.0025277978274971247
352.0,0.001826810883358121
384.0,0.0017301472835242748
416.0,0.0012461930746212602
448.0,0.001048940815962851
480.0,0.0007873537833802402
512.0,0.00022466626251116395
576.0,8.301884372485802e-05
640.0,0.00014273067063186318
704.0,0.0010112052550539374
768.0,0.0014565590536221862
832.0,0.002147041028365493
896.0,0.0014373244484886527
960.0,0.002381240716204047
1024.0,0.001947739627212286
1152.0,0.0009326264844276011
1280.0,0.0008857717039063573
1408.0,7.906810060376301e-05
1536.0,-0.001356121152639389
1664.0,-0.0017021019011735916
1792.0,-0.0006542719202116132
1920.0,0.0004948650603182614
2048.0,-0.0004936429904773831
2304.0,-0.002596879145130515
2560.0,-0.003921236842870712
2816.0,-0.001982618123292923
3072.0,-0.0014253525296226144
3328.0,-0.0013516199542209506
3584.0,-0.0014677769504487514
3840.0,-0.0009622626821510494
4096.0,-0.0007749248761683702
4608.0,-0.0009135568398050964
5120.0,0.002594816265627742
5632.0,0.002614951692521572
6144.0,0.00016320869326591492
6656.0,0.001907483208924532
7168.0,0.0008946792222559452
7680.0,5.145438262843527e-05
8192.0,-0.0016876793233677745
end
