version,3.0
numOfCh,1
type,point
parent_name,34a6d_0dot2-1dot0
ch_type,1_1
kcount,1
numberNandB,1
brightnessNandB,1
carpet pos,0
pc,0
Time (ms),CH1 Auto-Correlation
1.0,0.023456037044525146
2.0,0.023014312610030174
3.0,0.022604813799262047
4.0,0.022224722430109978
5.0,0.021844491362571716
6.0,0.02148185670375824
7.0,0.02115647681057453
8.0,0.020832853391766548
9.0,0.020518802106380463
10.0,0.020223289728164673
11.0,0.01994713954627514
12.0,0.019678452983498573
13.0,0.019420770928263664
14.0,0.019169112667441368
15.0,0.01892264559864998
16.0,0.01867504045367241
18.0,0.018189562484622
20.0,0.017714055255055428
22.0,0.017308266833424568
24.0,0.01692534051835537
26.0,0.01654120720922947
28.0,0.016156163066625595
30.0,0.015780657529830933
32.0,0.015411348082125187
36.0,0.014698691666126251
40.0,0.014077764004468918
44.0,0.013487995602190495
48.0,0.012966789305210114
52.0,0.012474830262362957
56.0,0.012063722126185894
60.0,0.01169084943830967
64.0,0.011327450163662434
72.0,0.010565883480012417
80.0,0.009927239269018173
88.0,0.009363132528960705
96.0,0.008832626976072788
104.0,0.008345626294612885
112.0,0.007889499887824059
120.0,0.00745870778337121
128.0,0.007086730096489191
144.0,0.00628454377874732
160.0,0.005491148214787245
176.0,0.005002544727176428
192.0,0.004617486149072647
208.0,0.004139147233217955
224.0,0.003427824703976512
240.0,0.002812878228724003
256.0,0.0023131214547902346
288.0,0.001416784361936152
320.0,0.0014671172248199582
352.0,0.0014378802152350545
384.0,0.0009041647426784039
416.0,0.0008193154353648424
448.0,0.0010010594269260764
480.0,0.0017385013634338975
512.0,0.002507697092369199
576.0,0.0030066869221627712
640.0,0.0027389314491301775
704.0,0.003293669316917658
768.0,0.004426571074873209
832.0,0.004727082327008247
896.0,0.005662998650223017
960.0,0.00435731653124094
1024.0,0.0019140841905027628
1152.0,0.0010177678195759654
1280.0,0.0026199533604085445
1408.0,0.005126605276018381
1536.0,0.004847463220357895
1664.0,0.002462939824908972
1792.0,0.0008087706519290805
1920.0,0.0002047038433374837
2048.0,0.0008979025296866894
2304.0,0.0015511714154854417
2560.0,-0.00016210388275794685
2816.0,-0.0009125879732891917
3072.0,-0.000927640707232058
3328.0,0.0011432404862716794
3584.0,-0.0008731639827601612
3840.0,-0.002629874274134636
4096.0,-0.002316127996891737
4608.0,-0.0009760971879586577
5120.0,-0.0024309600703418255
5632.0,-0.0006634974852204323
6144.0,-0.0021377482917159796
6656.0,-0.0027335623744875193
7168.0,-0.0006039109430275857
7680.0,-0.0017997046234086156
8192.0,-0.0019319903803989291
end
