version,3.0
numOfCh,1
type,point
parent_name,34a6d_0dot2-1dot0
ch_type,1_1
kcount,1
numberNandB,1
brightnessNandB,1
carpet pos,0
pc,0
Time (ms),CH1 Auto-Correlation
1.0,0.020083526149392128
2.0,0.019660845398902893
3.0,0.01927253045141697
4.0,0.018890731036663055
5.0,0.018526479601860046
6.0,0.01814970187842846
7.0,0.017797043547034264
8.0,0.017464498057961464
9.0,0.017135778442025185
10.0,0.016832593828439713
11.0,0.016540788114070892
12.0,0.01625332236289978
13.0,0.01596578024327755
14.0,0.015678446739912033
15.0,0.015405125916004181
16.0,0.015125119127333164
18.0,0.014593424275517464
20.0,0.014082551933825016
22.0,0.013584282249212265
24.0,0.013112579472362995
26.0,0.012670141644775867
28.0,0.012245576828718185
30.0,0.011880065314471722
32.0,0.011563438922166824
36.0,0.010980801656842232
40.0,0.010437713004648685
44.0,0.00996621698141098
48.0,0.00949658639729023
52.0,0.009000109508633614
56.0,0.008555511012673378
60.0,0.008155337534844875
64.0,0.007784657180309296
72.0,0.006970118265599012
80.0,0.006177673116326332
88.0,0.005488300230354071
96.0,0.004879448562860489
104.0,0.004414155147969723
112.0,0.003918539732694626
120.0,0.0034601136576384306
128.0,0.0032536492217332125
144.0,0.002650090027600527
160.0,0.0019870512187480927
176.0,0.0013049215776845813
192.0,0.0005529915797524154
208.0,-0.00011227840150240809
224.0,-0.0006492538959719241
240.0,-0.0007629218162037432
256.0,-0.00026915338821709156
288.0,0.0006049250951036811
320.0,0.0004400551551952958
352.0,0.0002733326400630176
384.0,0.0001878918264992535
416.0,0.0009565615910105407
448.0,0.0009505789494141936
480.0,0.0003483193868305534
512.0,-0.00023860344663262367
576.0,-1.4838688912277576e-05
640.0,-0.0009756256476975977
704.0,-0.00032309413654729724
768.0,0.0019019205356016755
832.0,0.0016334197716787457
896.0,-7.311661465791985e-05
960.0,-0.0019980906508862972
1024.0,-0.003360640723258257
1152.0,-0.0012452979572117329
1280.0,-0.00099058891646564
1408.0,-0.0005935818771831691
1536.0,-0.0012297728098928928
1664.0,-0.000955490511842072
1792.0,-0.002265003975480795
1920.0,-0.002670221496373415
2048.0,-0.0015345158753916621
2304.0,-0.000729740597307682
2560.0,-0.0004614322097040713
2816.0,-0.0007865591906011105
3072.0,0.0009059137082658708
3328.0,0.0011605857871472836
3584.0,0.002414354821667075
3840.0,0.0004921173676848412
4096.0,0.002116252202540636
4608.0,0.00013665352889802307
5120.0,-1.999672531383112e-05
5632.0,-0.0013134151231497526
6144.0,-0.0020909232553094625
6656.0,-9.63051788858138e-05
7168.0,0.0011122262803837657
7680.0,0.0012555773137137294
8192.0,0.0013786907074972987
end
