version,3.0
numOfCh,1
type,point
parent_name,34a6d_0dot2-1dot0
ch_type,1_1
kcount,1
numberNandB,1
brightnessNandB,1
carpet pos,0
pc,0
Time (ms),CH1 Auto-Correlation
1.0,0.018940597772598267
2.0,0.01845197193324566
3.0,0.018014196306467056
4.0,0.017601151019334793
5.0,0.01719839684665203
6.0,0.016823850572109222
7.0,0.01645737886428833
8.0,0.01611163467168808
9.0,0.0157823096960783
10.0,0.015479829162359238
11.0,0.015176159329712391
12.0,0.014882886782288551
13.0,0.014592858962714672
14.0,0.014313395135104656
15.0,0.014041651040315628
16.0,0.013779503293335438
18.0,0.013281416147947311
20.0,0.012811964377760887
22.0,0.01236074510961771
24.0,0.011931720189750195
26.0,0.011541380546987057
28.0,0.011172518134117126
30.0,0.010840034112334251
32.0,0.010519292205572128
36.0,0.00986448209732771
40.0,0.009221049956977367
44.0,0.008656441234052181
48.0,0.008158930577337742
52.0,0.0076644993387162685
56.0,0.007212776690721512
60.0,0.00690059456974268
64.0,0.006620562169700861
72.0,0.0060952273197472095
80.0,0.005552107002586126
88.0,0.005079314578324556
96.0,0.004534741397947073
104.0,0.003965793177485466
112.0,0.0033543468452990055
120.0,0.002754125278443098
128.0,0.0023364101070910692
144.0,0.0019434436690062284
160.0,0.0017334639560431242
176.0,0.0016674736980348825
192.0,0.0012799514224752784
208.0,0.0007525590481236577
224.0,0.00024002759892027825
240.0,-0.0001777963334461674
256.0,-0.0006391642382368445
288.0,-0.0009606321109458804
320.0,-0.001245608669705689
352.0,-0.0008182046003639698
384.0,-0.000315004464937374
416.0,-0.00040299593820236623
448.0,-0.0004930003779008985
480.0,-0.0005877113435417414
512.0,-0.0006661268998868763
576.0,-0.0012701550731435418
640.0,-0.001896246219985187
704.0,-0.001976948231458664
768.0,-0.0002687661617528647
832.0,0.0017720803152769804
896.0,0.001629089703783393
960.0,0.0006817582179792225
1024.0,0.0009588889661245048
1152.0,0.0011458303779363632
1280.0,0.0017907595029100776
1408.0,0.00018246214312966913
1536.0,-0.0011637428542599082
1664.0,-3.1064104405231774e-05
1792.0,0.0004579551168717444
1920.0,0.0005382890230976045
2048.0,0.0009624572703614831
2304.0,0.00033553328830748796
2560.0,-0.0013755811378359795
2816.0,0.0006090293172746897
3072.0,0.0016976981423795223
3328.0,-0.0019018445163965225
3584.0,-0.0016316192923113704
3840.0,0.00019177050853613764
4096.0,0.0009801916312426329
4608.0,-0.0013735851971432567
5120.0,0.00018994015408679843
5632.0,-0.0014554965309798717
6144.0,8.544336742488667e-05
6656.0,-0.0014877584762871265
7168.0,-0.00041222351137548685
7680.0,-0.001729471841827035
8192.0,0.0011204186594113708
end
