version,3.0
numOfCh,1
type,point
parent_name,34a6d_0dot2-1dot0
ch_type,1_1
kcount,1
numberNandB,1
brightnessNandB,1
carpet pos,0
pc,0
Time (ms),CH1 Auto-Correlation
1.0,0.020376529544591904
2.0,0.019943656399846077
3.0,0.01953311450779438
4.0,0.019140182062983513
5.0,0.018758568912744522
6.0,0.018401728942990303
7.0,0.018054552376270294
8.0,0.01772681251168251
9.0,0.017406417056918144
10.0,0.01710018701851368
11.0,0.016800014302134514
12.0,0.016518061980605125
13.0,0.01624632626771927
14.0,0.015990272164344788
15.0,0.01574401557445526
16.0,0.015513802878558636
18.0,0.015045669861137867
20.0,0.01459275558590889
22.0,0.014160389080643654
24.0,0.01376213040202856
26.0,0.0133688785135746
28.0,0.013006090186536312
30.0,0.012688489630818367
32.0,0.01237746886909008
36.0,0.011842308565974236
40.0,0.01137638185173273
44.0,0.010936151258647442
48.0,0.01054669450968504
52.0,0.010172243230044842
56.0,0.009745443239808083
60.0,0.009297545067965984
64.0,0.008896050974726677
72.0,0.008105437271296978
80.0,0.007372284308075905
88.0,0.006842599716037512
96.0,0.006390457972884178
104.0,0.005995248910039663
112.0,0.005574967712163925
120.0,0.005095388740301132
128.0,0.004562747664749622
144.0,0.003931868355721235
160.0,0.003474210621789098
176.0,0.0027309099677950144
192.0,0.001702932408079505
208.0,0.0010378961451351643
224.0,0.0007276130490936339
240.0,0.0003547551459632814
256.0,-0.00032185870804823935
288.0,-0.00041067731217481196
320.0,-0.00024783448316156864
352.0,-0.00025853843544609845
384.0,-0.00032021827064454556
416.0,-0.0008150236099027097
448.0,-0.000879367464222014
480.0,-0.0007903104997240007
512.0,1.8077991626341827e-05
576.0,0.000863111752551049
640.0,0.0009382578427903354
704.0,0.001168936607427895
768.0,0.0018449161434546113
832.0,0.001597728580236435
896.0,0.0013858028687536716
960.0,0.0015452367952093482
1024.0,0.001152234966866672
1152.0,0.0003223478270228952
1280.0,-0.001766642672009766
1408.0,-0.0005421378882601857
1536.0,0.0010515933390706778
1664.0,0.00023689989757258445
1792.0,-0.0008860165253281593
1920.0,-0.0018970578676089644
2048.0,-0.0014538459945470095
2304.0,-0.00012790724576916546
2560.0,0.0009389582555741072
2816.0,0.0017699700547382236
3072.0,0.0004468310798984021
3328.0,3.461182859609835e-05
3584.0,-0.00038527327706106007
3840.0,0.00044016711763106287
4096.0,0.0006378813995979726
4608.0,-0.001120831468142569
5120.0,0.0012132833944633603
5632.0,5.375952969188802e-05
6144.0,0.000896568177267909
6656.0,-0.001656364998780191
7168.0,-0.000661120458971709
7680.0,-0.001958707347512245
8192.0,0.0016616384964436293
end
