version,3.0
numOfCh,1
type,point
parent_name,34a6d_0dot2-1dot0
ch_type,1_1
kcount,1
numberNandB,1
brightnessNandB,1
carpet pos,0
pc,0
Time (ms),CH1 Auto-Correlation
1.0,0.022468581795692444
2.0,0.022019386291503906
3.0,0.021596290171146393
4.0,0.02120612934231758
5.0,0.0208232793956995
6.0,0.020460782572627068
7.0,0.0201193168759346
8.0,0.01979844458401203
9.0,0.019477158784866333
10.0,0.01915891468524933
11.0,0.01884686015546322
12.0,0.01854012720286846
13.0,0.018234694376587868
14.0,0.017933323979377747
15.0,0.017658397555351257
16.0,0.017403196543455124
18.0,0.01692993752658367
20.0,0.016446489840745926
22.0,0.015987074002623558
24.0,0.015558409504592419
26.0,0.015147569589316845
28.0,0.014764217659831047
30.0,0.014433765783905983
32.0,0.01413456816226244
36.0,0.013599876314401627
40.0,0.013136196881532669
44.0,0.012750650756061077
48.0,0.012389845214784145
52.0,0.012006228789687157
56.0,0.011589855886995792
60.0,0.011210937052965164
64.0,0.01093472633510828
72.0,0.010339363478124142
80.0,0.009745313785970211
88.0,0.00921075139194727
96.0,0.008772537112236023
104.0,0.008429840207099915
112.0,0.008035966195166111
120.0,0.007553368806838989
128.0,0.007173239719122648
144.0,0.0066660065203905106
160.0,0.006288242060691118
176.0,0.00632914574816823
192.0,0.0062980991788208485
208.0,0.006380783393979073
224.0,0.0064902096055448055
240.0,0.006121817510575056
256.0,0.005630226340144873
288.0,0.005616053473204374
320.0,0.005401112139225006
352.0,0.004717284347862005
384.0,0.004910318646579981
416.0,0.005496458150446415
448.0,0.006162154953926802
480.0,0.006828731391578913
512.0,0.007199123967438936
576.0,0.006307166535407305
640.0,0.005320216063410044
704.0,0.005176176317036152
768.0,0.0049329777248203754
832.0,0.004853535909205675
896.0,0.0034017523285001516
960.0,0.0035199597477912903
1024.0,0.004214446526020765
1152.0,0.0042871818877756596
1280.0,0.005229774862527847
1408.0,0.004146995954215527
1536.0,0.003696280997246504
1664.0,0.0029567342717200518
1792.0,0.004347424954175949
1920.0,0.0007737961132079363
2048.0,0.0005947163444943726
2304.0,2.6107862140634097e-05
2560.0,-0.0005684855859726667
2816.0,-0.0004530591540969908
3072.0,-0.001503364066593349
3328.0,-0.001490689581260085
3584.0,-0.0037455998826771975
3840.0,-0.003647317411378026
4096.0,-0.004723794758319855
4608.0,-0.004468461964279413
5120.0,-0.003833806375041604
5632.0,-0.0028594532050192356
6144.0,-0.0025151516310870647
6656.0,-0.0002763135125860572
7168.0,0.0008060818654485047
7680.0,0.0019848106894642115
8192.0,0.004053669515997171
end
