version,3.0
numOfCh,1
type,point
parent_name,34a6d_0dot2-1dot0
ch_type,1_1
kcount,1
numberNandB,1
brightnessNandB,1
carpet pos,0
pc,0
Time (ms),CH1 Auto-Correlation
1.0,0.02372487634420395
2.0,0.023294387385249138
3.0,0.022891266271471977
4.0,0.02249925024807453
5.0,0.022116148844361305
6.0,0.02174953743815422
7.0,0.021403945982456207
8.0,0.02106378600001335
9.0,0.02072909101843834
10.0,0.02039247378706932
11.0,0.020074501633644104
12.0,0.019769124686717987
13.0,0.019472550600767136
14.0,0.019186828285455704
15.0,0.018916644155979156
16.0,0.018666407093405724
18.0,0.01815195195376873
20.0,0.017673250287771225
22.0,0.017244605347514153
24.0,0.016849037259817123
26.0,0.016457058489322662
28.0,0.016076955944299698
30.0,0.015712400898337364
32.0,0.015368958003818989
36.0,0.014785511419177055
40.0,0.014254084788262844
44.0,0.013784370385110378
48.0,0.013364226557314396
52.0,0.013000588864088058
56.0,0.012679497711360455
60.0,0.01238219253718853
64.0,0.012098926119506359
72.0,0.011582788079977036
80.0,0.011083804070949554
88.0,0.010383626446127892
96.0,0.009721407666802406
104.0,0.00915960967540741
112.0,0.00873064249753952
120.0,0.008411790244281292
128.0,0.007947005331516266
144.0,0.00724412826821208
160.0,0.006667659152299166
176.0,0.006454010959714651
192.0,0.006360271479934454
208.0,0.006078509613871574
224.0,0.005618180148303509
240.0,0.0051819379441440105
256.0,0.005092897918075323
288.0,0.004811473190784454
320.0,0.004559028893709183
352.0,0.004467024467885494
384.0,0.004249013960361481
416.0,0.004194757901132107
448.0,0.003699610708281398
480.0,0.00393636804074049
512.0,0.0034934943541884422
576.0,0.003896973328664899
640.0,0.004053489770740271
704.0,0.003942285198718309
768.0,0.003518248675391078
832.0,0.0019686028826981783
896.0,5.898796007386409e-05
960.0,-0.0010179675882682204
1024.0,-0.0017118211835622787
1152.0,-0.002530148485675454
1280.0,-0.0004581273824442178
1408.0,0.00011209426156710833
1536.0,-0.00036955534596927464
1664.0,-0.0005192418466322124
1792.0,-0.001938554341904819
1920.0,-0.002054946729913354
2048.0,-0.0014448041329160333
2304.0,0.00032818602630868554
2560.0,-0.002425319282338023
2816.0,-0.0007358908769674599
3072.0,0.0005915187066420913
3328.0,0.00045642119948752224
3584.0,0.0035640140995383263
3840.0,0.004396502394229174
4096.0,0.002251002937555313
4608.0,0.00016259108087979257
5120.0,-0.003051235806196928
5632.0,-0.004428280983120203
6144.0,-0.0028912543784826994
6656.0,-0.0027716520708054304
7168.0,-0.004231113009154797
7680.0,-0.0024815343786031008
8192.0,0.000587984686717391
end
