version,3.0
numOfCh,1
type,point
parent_name,34a6d_0dot2-1dot0
ch_type,1_1
kcount,1
numberNandB,1
brightnessNandB,1
carpet pos,0
pc,0
Time (ms),CH1 Auto-Correlation
1.0,0.023118989542126656
2.0,0.022688360884785652
3.0,0.0222740788012743
4.0,0.0218708124011755
5.0,0.02150137722492218
6.0,0.021141253411769867
7.0,0.020781520754098892
8.0,0.02042938582599163
9.0,0.020070955157279968
10.0,0.01972413808107376
11.0,0.019396575167775154
12.0,0.019081905484199524
13.0,0.018775222823023796
14.0,0.018485086038708687
15.0,0.018185773864388466
16.0,0.01789935678243637
18.0,0.01736685074865818
20.0,0.01688580960035324
22.0,0.01641242206096649
24.0,0.015983685851097107
26.0,0.015567231923341751
28.0,0.01515473984181881
30.0,0.014775604009628296
32.0,0.014452631585299969
36.0,0.01382141001522541
40.0,0.013215252198278904
44.0,0.012654700316488743
48.0,0.012154778465628624
52.0,0.011665398254990578
56.0,0.011130415834486485
60.0,0.01058417558670044
64.0,0.010083604604005814
72.0,0.009201306849718094
80.0,0.008481936529278755
88.0,0.007828214205801487
96.0,0.007380304392427206
104.0,0.0070174504071474075
112.0,0.006597395054996014
120.0,0.006219711620360613
128.0,0.0058648549020290375
144.0,0.005211130250245333
160.0,0.0046878778375685215
176.0,0.004143073223531246
192.0,0.0035913267638534307
208.0,0.00325985299423337
224.0,0.003186575137078762
240.0,0.00315976794809103
256.0,0.003096245229244232
288.0,0.002566172741353512
320.0,0.0014239171287044883
352.0,0.0012114312266930938
384.0,0.001036606146954
416.0,0.001161603257060051
448.0,0.0013492032885551453
480.0,0.0018091757083311677
512.0,0.001618680777028203
576.0,0.0005209559458307922
640.0,7.325899787247181e-05
704.0,-9.76565497694537e-05
768.0,0.00036222682683728635
832.0,0.0007479671039618552
896.0,0.0005933440406806767
960.0,0.0014066952280700207
1024.0,0.0021001864224672318
1152.0,0.0005533316289074719
1280.0,-0.0004855166480410844
1408.0,-0.0028829704970121384
1536.0,-0.0022672023624181747
1664.0,-0.0021133776754140854
1792.0,-0.0010079925414174795
1920.0,-0.0009511905955150723
2048.0,0.00048487517051398754
2304.0,-0.000397083000279963
2560.0,2.7910340577363968e-05
2816.0,8.47936280479189e-06
3072.0,0.0013124836841598153
3328.0,0.0012446687323972583
3584.0,0.0010821073083207011
3840.0,0.000885068322531879
4096.0,-0.0003252508176956326
4608.0,-0.0016712589422240853
5120.0,4.4307191274128854e-05
5632.0,-0.001122459420002997
6144.0,0.0007948247948661447
6656.0,-0.0004499302012845874
7168.0,-0.0026708885561674833
7680.0,-0.00335533544421196
8192.0,-0.00212265201844275
end
