version,3.0
numOfCh,1
type,point
parent_name,34a6d_0dot2-1dot0
ch_type,1_1
kcount,1
numberNandB,1
brightnessNandB,1
carpet pos,0
pc,0
Time (ms),CH1 Auto-Correlation
1.0,0.025786856189370155
2.0,0.02534853294491768
3.0,0.024930672720074654
4.0,0.02454047091305256
5.0,0.024182597175240517
6.0,0.023835986852645874
7.0,0.023501815274357796
8.0,0.023174500092864037
9.0,0.022862937301397324
10.0,0.022570958361029625
11.0,0.02228350006043911
12.0,0.02200339175760746
13.0,0.0217368695884943
14.0,0.021477552130818367
15.0,0.021222222596406937
16.0,0.020971601828932762
18.0,0.020477280020713806
20.0,0.02000838704407215
22.0,0.019578516483306885
24.0,0.019148224964737892
26.0,0.01873023435473442
28.0,0.018298188224434853
30.0,0.01785816065967083
32.0,0.017429929226636887
36.0,0.016645831987261772
40.0,0.015907974913716316
44.0,0.015231717377901077
48.0,0.014591574668884277
52.0,0.013982131145894527
56.0,0.013404864817857742
60.0,0.012899097986519337
64.0,0.012450221925973892
72.0,0.011739601381123066
80.0,0.011155755259096622
88.0,0.010610934346914291
96.0,0.010182427242398262
104.0,0.009944085963070393
112.0,0.009855902753770351
120.0,0.009806524030864239
128.0,0.009659353643655777
144.0,0.009229659102857113
160.0,0.008481024764478207
176.0,0.007612483110278845
192.0,0.007189047057181597
208.0,0.0072256699204444885
224.0,0.007211815565824509
240.0,0.007039039395749569
256.0,0.006485769059509039
288.0,0.005531219765543938
320.0,0.005138097796589136
352.0,0.005391281563788652
384.0,0.00506566371768713
416.0,0.004717810545116663
448.0,0.004296676721423864
480.0,0.003600666532292962
512.0,0.003437404753640294
576.0,0.002852056175470352
640.0,0.001540033845230937
704.0,0.0007464238442480564
768.0,0.0010445554507896304
832.0,0.0012098320294171572
896.0,0.0021657070610672235
960.0,0.0025444894563406706
1024.0,0.0024746579583734274
1152.0,0.0006925965426489711
1280.0,0.0025127262342721224
1408.0,0.001934027299284935
1536.0,0.0018954952247440815
1664.0,0.002820186782628298
1792.0,0.003601856529712677
1920.0,0.002769302111119032
2048.0,0.003450854914262891
2304.0,0.003874916583299637
2560.0,0.004429211840033531
2816.0,0.0039951684884727
3072.0,0.0011272965930402279
3328.0,-1.5602772691636346e-05
3584.0,0.0005242527695372701
3840.0,0.0015361751429736614
4096.0,0.0020991801284253597
4608.0,-0.000601572566665709
5120.0,-0.0035992288030683994
5632.0,-0.0022093630395829678
6144.0,-0.003207092173397541
6656.0,-0.0028454374987632036
7168.0,-0.004003368318080902
7680.0,-0.004012386314570904
8192.0,-0.004447893239557743
end
