version,3.0
numOfCh,1
type,point
parent_name,34a6d_0dot2-1dot0
ch_type,1_1
kcount,1
numberNandB,1
brightnessNandB,1
carpet pos,0
pc,0
Time (ms),CH1 Auto-Correlation
1.0,0.021967550739645958
2.0,0.021515682339668274
3.0,0.021097766235470772
4.0,0.020699096843600273
5.0,0.020290179178118706
6.0,0.01990674063563347
7.0,0.019530778750777245
8.0,0.019177282229065895
9.0,0.01884393021464348
10.0,0.018512742593884468
11.0,0.01819179393351078
12.0,0.017881397157907486
13.0,0.01758827455341816
14.0,0.017292466014623642
15.0,0.016999272629618645
16.0,0.016708005219697952
18.0,0.016119398176670074
20.0,0.015555626712739468
22.0,0.015024016611278057
24.0,0.014519182965159416
26.0,0.014002276584506035
28.0,0.013487898744642735
30.0,0.012988830916583538
32.0,0.012506859377026558
36.0,0.011642749421298504
40.0,0.010839436203241348
44.0,0.010091785341501236
48.0,0.0094068618491292
52.0,0.00878390483558178
56.0,0.008292483165860176
60.0,0.00782581977546215
64.0,0.0074145556427538395
72.0,0.006932453252375126
80.0,0.0067568025551736355
88.0,0.006550120189785957
96.0,0.0063349115662276745
104.0,0.006187614053487778
112.0,0.006012712139636278
120.0,0.005915902089327574
128.0,0.00579054793342948
144.0,0.005571669898927212
160.0,0.005172629840672016
176.0,0.004527679178863764
192.0,0.003914255183190107
208.0,0.0035029046703130007
224.0,0.0034055295400321484
240.0,0.003354796441271901
256.0,0.0033581017050892115
288.0,0.0026693332474678755
320.0,0.001672369078733027
352.0,0.0009812131756916642
384.0,0.00100081751588732
416.0,0.0009232155862264335
448.0,-6.765068246750161e-05
480.0,-0.0006540829199366271
512.0,-0.0001640425034565851
576.0,0.0006070341332815588
640.0,0.0010568778961896896
704.0,-0.0003128013922832906
768.0,-0.0006349003524519503
832.0,-9.809350012801588e-05
896.0,0.00025164594990201294
960.0,0.0015227629337459803
1024.0,0.000658540113363415
1152.0,0.0004218233225401491
1280.0,-3.2770813049864955e-06
1408.0,-0.00064242904772982
1536.0,-0.0007952689775265753
1664.0,0.0008094469085335732
1792.0,-0.0001426149974577129
1920.0,-0.0004911351134069264
2048.0,-0.0011780031491070986
2304.0,-0.0013476012973114848
2560.0,0.0009123218478634953
2816.0,0.0018218394834548235
3072.0,8.892478217603639e-05
3328.0,-0.0010410904651507735
3584.0,-8.03995571914129e-05
3840.0,0.0014291747938841581
4096.0,0.0006838892004452646
4608.0,3.333676067995839e-05
5120.0,-0.0008313718135468662
5632.0,-6.827230390626937e-05
6144.0,-0.004064348991960287
6656.0,-0.0006078546866774559
7168.0,-0.001320773852057755
7680.0,-0.00015511468518525362
8192.0,7.019819895504043e-05
end
