version,3.0
numOfCh,1
type,point
parent_name,34a6d_0dot2-1dot0
ch_type,1_1
kcount,1
numberNandB,1
brightnessNandB,1
carpet pos,0
pc,0
Time (ms),CH1 Auto-Correlation
1.0,0.02235463634133339
2.0,0.021950943395495415
3.0,0.021561872214078903
4.0,0.021192550659179688
5.0,0.020838795229792595
6.0,0.020495694130659103
7.0,0.02016334980726242
8.0,0.019845956936478615
9.0,0.01953177899122238
10.0,0.01923294924199581
11.0,0.018943266943097115
12.0,0.01864738017320633
13.0,0.018349701538681984
14.0,0.01807059533894062
15.0,0.017804985865950584
16.0,0.01754976250231266
18.0,0.017070332542061806
20.0,0.016584953293204308
22.0,0.01612793654203415
24.0,0.01568383350968361
26.0,0.0152347506955266
28.0,0.014802957884967327
30.0,0.014407970942556858
32.0,0.01402262318879366
36.0,0.013305144384503365
40.0,0.012690338306128979
44.0,0.012122808955609798
48.0,0.011609352193772793
52.0,0.011151600629091263
56.0,0.01072351448237896
60.0,0.010405879467725754
64.0,0.01010758988559246
72.0,0.009438700042665005
80.0,0.008748723194003105
88.0,0.00812120083719492
96.0,0.007536675315350294
104.0,0.006955990567803383
112.0,0.0063853273168206215
120.0,0.0060650077648460865
128.0,0.005821234546601772
144.0,0.0054352181032299995
160.0,0.004937158897519112
176.0,0.004268924705684185
192.0,0.003930207807570696
208.0,0.0037936668377369642
224.0,0.0038308592047542334
240.0,0.00357220065779984
256.0,0.003099813126027584
288.0,0.002342564519494772
320.0,0.0020514538045972586
352.0,0.0013888792600482702
384.0,0.00026394944870844483
416.0,0.00027497136034071445
448.0,0.0005793056334368885
480.0,0.0008922468405216932
512.0,0.0012073402758687735
576.0,0.0010761929443106055
640.0,0.00048150273505598307
704.0,0.001231790636666119
768.0,0.001967474352568388
832.0,0.0007982841925695539
896.0,-9.03949185158126e-05
960.0,-0.0005903821438550949
1024.0,-0.0013209438184276223
1152.0,-0.00018522710888646543
1280.0,0.0008147936896421015
1408.0,5.3949373977957293e-05
1536.0,0.00031691687763668597
1664.0,0.00033654278377071023
1792.0,0.0005926106823608279
1920.0,0.0010738605633378029
2048.0,2.0334284272394143e-05
2304.0,0.0024291330482810736
2560.0,0.002286822535097599
2816.0,0.0011708621168509126
3072.0,0.0002631618408486247
3328.0,5.462305125547573e-05
3584.0,-0.00011396513582440093
3840.0,-0.0013331989757716656
4096.0,0.0014369369018822908
4608.0,0.0003675481420941651
5120.0,-0.001763480599038303
5632.0,-0.0014709410024806857
6144.0,-0.0007940807263366878
6656.0,-0.0014683494810014963
7168.0,-0.002131483517587185
7680.0,-0.0034622971434146166
8192.0,-0.0029901459347456694
end
