version,3.0
numOfCh,1
type,point
parent_name,34a6d_0dot2-1dot0
ch_type,1_1
kcount,1
numberNandB,1
brightnessNandB,1
carpet pos,0
pc,0
Time (ms),CH1 Auto-Correlation
1.0,0.019498003646731377
2.0,0.019076300784945488
3.0,0.018693123012781143
4.0,0.018319450318813324
5.0,0.01795894466340542
6.0,0.01760389655828476
7.0,0.01727045141160488
8.0,0.016950970515608788
9.0,0.016647931188344955
10.0,0.016353897750377655
11.0,0.016069108620285988
12.0,0.01580028422176838
13.0,0.01553515437990427
14.0,0.01527829747647047
15.0,0.01503156591206789
16.0,0.014791262336075306
18.0,0.014321485534310341
20.0,0.013878867961466312
22.0,0.013465924188494682
24.0,0.013089511543512344
26.0,0.012731888331472874
28.0,0.012394298799335957
30.0,0.012074808590114117
32.0,0.011751147918403149
36.0,0.011116999201476574
40.0,0.010517467744648457
44.0,0.009967409074306488
48.0,0.009468129836022854
52.0,0.00901772640645504
56.0,0.0086602084338665
60.0,0.008343900553882122
64.0,0.00803606677800417
72.0,0.007486047223210335
80.0,0.00705960625782609
88.0,0.006701693404465914
96.0,0.006341481115669012
104.0,0.006123550236225128
112.0,0.005907356273382902
120.0,0.005589358974248171
128.0,0.005181419663131237
144.0,0.004497112240642309
160.0,0.004236522130668163
176.0,0.0043111881241202354
192.0,0.004398875869810581
208.0,0.004304005764424801
224.0,0.0046347081661224365
240.0,0.004987790714949369
256.0,0.005143508780747652
288.0,0.004321508575230837
320.0,0.0034463335759937763
352.0,0.002732390072196722
384.0,0.001966845476999879
416.0,0.001091259066015482
448.0,0.0010735573014244437
480.0,0.001246133935637772
512.0,0.000982133555226028
576.0,-0.000769733393099159
640.0,-0.001615007990039885
704.0,-0.001233550370670855
768.0,-0.0007911872235126793
832.0,-0.0013506958493962884
896.0,-0.0021735012996941805
960.0,-0.0019236886873841286
1024.0,-0.0006412396905943751
1152.0,-0.0009984736097976565
1280.0,-0.00019400489691179246
1408.0,-0.0007601153338328004
1536.0,0.0002640071325004101
1664.0,0.00017420973745174706
1792.0,0.0005532141658477485
1920.0,0.001046141842380166
2048.0,0.0007678656256757677
2304.0,-8.738150063436478e-05
2560.0,0.00027422464336268604
2816.0,0.0006274632178246975
3072.0,-0.00012182632053736597
3328.0,-7.657918467884883e-05
3584.0,-0.0010442266939207911
3840.0,-0.0035065445117652416
4096.0,-0.004587667062878609
4608.0,-0.0009524470660835505
5120.0,0.0018435302190482616
5632.0,-0.00129542569629848
6144.0,0.00016981663065962493
6656.0,0.0003346074081491679
7168.0,-0.0005436750943772495
7680.0,0.00031223465339280665
8192.0,0.00257824151776731
end
