version,3.0
numOfCh,1
type,point
parent_name,34a6d_0dot2-1dot0
ch_type,1_1
kcount,1
numberNandB,1
brightnessNandB,1
carpet pos,0
pc,0
Time (ms),CH1 Auto-Correlation
1.0,0.01762307435274124
2.0,0.017189186066389084
3.0,0.01679927483201027
4.0,0.016429664567112923
5.0,0.0160762220621109
6.0,0.015749428421258926
7.0,0.01544242724776268
8.0,0.0151375662535429
9.0,0.01484049391001463
10.0,0.014550821855664253
11.0,0.014279191382229328
12.0,0.014021620154380798
13.0,0.013763267546892166
14.0,0.01350576151162386
15.0,0.013264435343444347
16.0,0.013028666377067566
18.0,0.012573173269629478
20.0,0.012142274528741837
22.0,0.011749723926186562
24.0,0.0113906878978014
26.0,0.0110855121165514
28.0,0.010819046758115292
30.0,0.01052884291857481
32.0,0.01022864319384098
36.0,0.00966008473187685
40.0,0.009138013236224651
44.0,0.008654864504933357
48.0,0.008243117481470108
52.0,0.007894967682659626
56.0,0.007588529959321022
60.0,0.007332052104175091
64.0,0.007101760245859623
72.0,0.006531613878905773
80.0,0.00596971670165658
88.0,0.005435005761682987
96.0,0.004931238945573568
104.0,0.004486492369323969
112.0,0.004022037610411644
120.0,0.0035592890344560146
128.0,0.0032097562216222286
144.0,0.0027330832090228796
160.0,0.002132251625880599
176.0,0.0017522533889859915
192.0,0.001282592536881566
208.0,0.0007829621899873018
224.0,0.0005745697417296469
240.0,0.0006803161813877523
256.0,0.0009147081291303039
288.0,0.0009851404465734959
320.0,0.0007178307278081775
352.0,0.00030850782059133053
384.0,-0.0001651204511290416
416.0,-0.0002747175458353013
448.0,-0.0004021541972178966
480.0,-0.00016762597078923136
512.0,0.0006837876280769706
576.0,0.00027269640122540295
640.0,0.0009698292124085128
704.0,1.6389900338253938e-05
768.0,-0.00014363855007104576
832.0,0.00034420547308400273
896.0,0.0013461376074701548
960.0,0.0015526664210483432
1024.0,0.0006724110571667552
1152.0,6.813774962211028e-05
1280.0,-0.0009618508629500866
1408.0,-0.0011960886185988784
1536.0,-0.0012880818685516715
1664.0,-0.0009131605620495975
1792.0,-0.0008154800161719322
1920.0,-0.0006928449729457498
2048.0,-0.000281783752143383
2304.0,-0.0006029224023222923
2560.0,-0.0008094240911304951
2816.0,0.0007463289657607675
3072.0,0.0006731475004926324
3328.0,-0.000954465358518064
3584.0,0.0009283179533667862
3840.0,0.0007453543366864324
4096.0,-0.00015275129408109933
4608.0,0.00045111175859346986
5120.0,0.0004900243366137147
5632.0,-0.0003271895693615079
6144.0,9.387815953232348e-05
6656.0,0.0010569400619715452
7168.0,-0.00042906985618174076
7680.0,-0.0009398576803505421
8192.0,-0.001947511569596827
end
