version,3.0
numOfCh,1
type,point
parent_name,34a6d_0dot2-1dot0
ch_type,1_1
kcount,1
numberNandB,1
brightnessNandB,1
carpet pos,0
pc,0
Time (ms),CH1 Auto-Correlation
1.0,0.021943090483546257
2.0,0.021507246419787407
3.0,0.021098097786307335
4.0,0.020714985206723213
5.0,0.020351719111204147
6.0,0.02000623382627964
7.0,0.01967700384557247
8.0,0.019363464787602425
9.0,0.019055325537919998
10.0,0.018759114667773247
11.0,0.018478402867913246
12.0,0.018207231536507607
13.0,0.01794217899441719
14.0,0.017678100615739822
15.0,0.017406335100531578
16.0,0.017150534316897392
18.0,0.01664884388446808
20.0,0.016157018020749092
22.0,0.01567915827035904
24.0,0.015231163240969181
26.0,0.014801735989749432
28.0,0.014402679167687893
30.0,0.01402214914560318
32.0,0.013648820109665394
36.0,0.01298782043159008
40.0,0.01236481498926878
44.0,0.011748303659260273
48.0,0.011129812337458134
52.0,0.010522336699068546
56.0,0.01000980194658041
60.0,0.009537627920508385
64.0,0.009143237955868244
72.0,0.00862777791917324
80.0,0.008177385665476322
88.0,0.007608470506966114
96.0,0.007177491206675768
104.0,0.0066908253356814384
112.0,0.006255231332033873
120.0,0.005900391843169928
128.0,0.005508136935532093
144.0,0.00477616535499692
160.0,0.004205739125609398
176.0,0.0036689103581011295
192.0,0.003131314180791378
208.0,0.002859965432435274
224.0,0.002349164802581072
240.0,0.0020577828399837017
256.0,0.002191920531913638
288.0,0.002258191118016839
320.0,0.00188743497710675
352.0,0.0017291459953412414
384.0,0.0017304166685789824
416.0,0.0014648671494796872
448.0,0.0014658559812232852
480.0,0.0008357382612302899
512.0,-0.00016940510249696672
576.0,-0.0013231572229415178
640.0,-0.0015170684782788157
704.0,-0.0008600391447544098
768.0,-0.0003812818613369018
832.0,-0.0006462167948484421
896.0,-0.0007176061626523733
960.0,-0.0003896736598107964
1024.0,-0.00031639824737794697
1152.0,-7.024680962786078e-05
1280.0,1.5860068742767908e-05
1408.0,0.0002774805179797113
1536.0,-0.0005752896540798247
1664.0,-0.0007671624189242721
1792.0,0.0016163085820153356
1920.0,0.003374165389686823
2048.0,0.00030537720886059105
2304.0,-0.00122837966773659
2560.0,-0.002032994758337736
2816.0,-0.0021354416385293007
3072.0,0.00033900386188179255
3328.0,-0.00042079982813447714
3584.0,-0.0026641832664608955
3840.0,-0.0013836328871548176
4096.0,-0.0032168321777135134
4608.0,0.001034280750900507
5120.0,0.0013836197322234511
5632.0,-0.0027254498563706875
6144.0,-0.002196870744228363
6656.0,0.002176945097744465
7168.0,0.0020692062098532915
7680.0,0.00145544926635921
8192.0,0.0011530513875186443
end
