version,3.0
numOfCh,1
type,point
parent_name,34a6d_0dot2-1dot0
ch_type,1_1
kcount,1
numberNandB,1
brightnessNandB,1
carpet pos,0
pc,0
Time (ms),CH1 Auto-Correlation
1.0,0.020844802260398865
2.0,0.020424630492925644
3.0,0.020032214000821114
4.0,0.019650008529424667
5.0,0.019289609044790268
6.0,0.018930921331048012
7.0,0.01858934573829174
8.0,0.01826198771595955
9.0,0.017938479781150818
10.0,0.017622273415327072
11.0,0.017317673191428185
12.0,0.017025426030158997
13.0,0.01673535630106926
14.0,0.016452882438898087
15.0,0.016169648617506027
16.0,0.015891993418335915
18.0,0.015393206849694252
20.0,0.014919765293598175
22.0,0.014457127079367638
24.0,0.014009920880198479
26.0,0.013620038516819477
28.0,0.013234976679086685
30.0,0.012868998572230339
32.0,0.012503594160079956
36.0,0.011827024631202221
40.0,0.011210315860807896
44.0,0.010624883696436882
48.0,0.01012025959789753
52.0,0.009683236479759216
56.0,0.009283958934247494
60.0,0.008920349180698395
64.0,0.00856776349246502
72.0,0.00783308781683445
80.0,0.007140601985156536
88.0,0.006471152417361736
96.0,0.005954694002866745
104.0,0.005530461203306913
112.0,0.005114964675158262
120.0,0.00461399182677269
128.0,0.004097434692084789
144.0,0.003028328064829111
160.0,0.002380585530772805
176.0,0.0019272560020908713
192.0,0.0019021208863705397
208.0,0.002365909516811371
224.0,0.0030473927035927773
240.0,0.0034936435986310244
256.0,0.003753939876332879
288.0,0.0036327026318758726
320.0,0.004573856946080923
352.0,0.004511421080678701
384.0,0.0047001708298921585
416.0,0.003893402172252536
448.0,0.0032686011400073767
480.0,0.0029289894737303257
512.0,0.002866961993277073
576.0,0.0032706204801797867
640.0,0.0029974314384162426
704.0,0.0026778671890497208
768.0,0.0025539083871990442
832.0,0.0021509143989533186
896.0,0.0015601646155118942
960.0,0.0005306541570462286
1024.0,8.832231287669856e-06
1152.0,-3.1534680601907894e-05
1280.0,0.000833892438095063
1408.0,0.0003662732196971774
1536.0,0.0013583952095359564
1664.0,0.0006951928953640163
1792.0,-0.00047796458238735795
1920.0,0.0007790288655087352
2048.0,0.0016260779229924083
2304.0,0.0012843622826039791
2560.0,-0.00032565215951763093
2816.0,-0.00019367548520676792
3072.0,-0.0008844753610901535
3328.0,-0.0011464301496744156
3584.0,-0.000466084893560037
3840.0,-0.0005919404211454093
4096.0,-0.0014776624739170074
4608.0,-0.0018577673472464085
5120.0,-0.0019345517503097653
5632.0,-0.0002529420598875731
6144.0,0.0006355312652885914
6656.0,0.0012872397201135755
7168.0,0.00012198195327073336
7680.0,0.0012725397245958447
8192.0,0.000467013189336285
end
