version,3.0
numOfCh,1
type,point
parent_name,34a6d_0dot2-1dot0
ch_type,1_1
kcount,1
numberNandB,1
brightnessNandB,1
carpet pos,0
pc,0
Time (ms),CH1 Auto-Correlation
1.0,0.019952282309532166
2.0,0.019433729350566864
3.0,0.019004065543413162
4.0,0.018597830086946487
5.0,0.018191469833254814
6.0,0.01783089153468609
7.0,0.017484143376350403
8.0,0.017137771472334862
9.0,0.016813820227980614
10.0,0.016488971188664436
11.0,0.01616702228784561
12.0,0.015876049175858498
13.0,0.015607473440468311
14.0,0.015334449708461761
15.0,0.015066140331327915
16.0,0.0147952726110816
18.0,0.01427087839692831
20.0,0.013787427917122841
22.0,0.01334609929472208
24.0,0.012907310388982296
26.0,0.012486648745834827
28.0,0.012078280560672283
30.0,0.01168060302734375
32.0,0.011308576911687851
36.0,0.0106691038236022
40.0,0.010114752687513828
44.0,0.00965258851647377
48.0,0.009289134293794632
52.0,0.008967600762844086
56.0,0.008669309318065643
60.0,0.008410712704062462
64.0,0.008188843727111816
72.0,0.0076323202811181545
80.0,0.007002477068454027
88.0,0.006356468889862299
96.0,0.005782625172287226
104.0,0.005322334822267294
112.0,0.0049611469730734825
120.0,0.0046639638021588326
128.0,0.004362843930721283
144.0,0.004279852844774723
160.0,0.004215855151414871
176.0,0.0040037138387560844
192.0,0.0037138930056244135
208.0,0.003240381134673953
224.0,0.0026288118679076433
240.0,0.002035299548879266
256.0,0.0016543599776923656
288.0,0.0015086585190147161
320.0,0.0012074551777914166
352.0,0.0012352262856438756
384.0,0.0012682754313573241
416.0,0.0009028817294165492
448.0,0.0006340076215565205
480.0,0.0007621225086040795
512.0,0.001182595151476562
576.0,0.0013534565223380923
640.0,0.0009689780417829752
704.0,0.0003495588607620448
768.0,-0.00028302555438131094
832.0,-0.000790673540905118
896.0,-0.0009480072767473757
960.0,-1.1977351277892012e-05
1024.0,0.0011405147379264235
1152.0,0.0011097789974883199
1280.0,0.001795095158740878
1408.0,0.0008171995868906379
1536.0,0.0010196473449468613
1664.0,0.00035497487988322973
1792.0,8.612879901193082e-05
1920.0,-0.000621004612185061
2048.0,-0.0032187537290155888
2304.0,-0.0018611843697726727
2560.0,-0.002388268942013383
2816.0,-2.518099790904671e-05
3072.0,-0.0008249792153947055
3328.0,-0.0017628007335588336
3584.0,-0.0019055260345339775
3840.0,0.0009699753718450665
4096.0,0.0009796898812055588
4608.0,0.0007343221222981811
5120.0,0.0009968271479010582
5632.0,0.001750318449921906
6144.0,-0.0017773892031982541
6656.0,-0.00024301231314893812
7168.0,-0.0018367861630395055
7680.0,-0.0031435030978173018
8192.0,0.00024583653430454433
end
