version,3.0
numOfCh,1
type,point
parent_name,34a6d_0dot2-1dot0
ch_type,1_1
kcount,1
numberNandB,1
brightnessNandB,1
carpet pos,0
pc,0
Time (ms),CH1 Auto-Correlation
1.0,0.021361595019698143
2.0,0.020921548828482628
3.0,0.020513953641057014
4.0,0.020133670419454575
5.0,0.019768614321947098
6.0,0.019417425617575645
7.0,0.01907973363995552
8.0,0.018742412328720093
9.0,0.018421592190861702
10.0,0.01809610426425934
11.0,0.017777899280190468
12.0,0.017452454194426537
13.0,0.017127322033047676
14.0,0.016806581988930702
15.0,0.01650301367044449
16.0,0.016199996694922447
18.0,0.01564779318869114
20.0,0.015135995112359524
22.0,0.014632567763328552
24.0,0.014163210988044739
26.0,0.01368099357932806
28.0,0.01321543287485838
30.0,0.012793323025107384
32.0,0.012388892471790314
36.0,0.011606990359723568
40.0,0.01087581180036068
44.0,0.010271650739014149
48.0,0.009711441583931446
52.0,0.009160536341369152
56.0,0.008639654144644737
60.0,0.00816215481609106
64.0,0.0077645257115364075
72.0,0.007142963353544474
80.0,0.0067184120416641235
88.0,0.006347678601741791
96.0,0.005934512242674828
104.0,0.005552320741117001
112.0,0.005105737131088972
120.0,0.004663113038986921
128.0,0.00428734440356493
144.0,0.0038102001417428255
160.0,0.0036036656238138676
176.0,0.0036551684606820345
192.0,0.0037475572898983955
208.0,0.0036954698152840137
224.0,0.003913362044841051
240.0,0.0037068063393235207
256.0,0.003402850590646267
288.0,0.0026749561075121164
320.0,0.002131928224116564
352.0,0.0011481749825179577
384.0,0.0008071302436292171
416.0,0.0008520616684108973
448.0,0.0006313498015515506
480.0,-9.099751332541928e-05
512.0,-0.0007647661259397864
576.0,-0.0008614406688138843
640.0,-0.0010036203311756253
704.0,-0.0016988115385174751
768.0,-0.0008516948437318206
832.0,0.00020715026766993105
896.0,0.0011307031381875277
960.0,0.00013325229519978166
1024.0,-0.0005284073413349688
1152.0,-0.0007608425803482533
1280.0,7.705685857217759e-05
1408.0,0.00013112441229168326
1536.0,4.827025259146467e-05
1664.0,0.0009165375377051532
1792.0,0.0006304726703092456
1920.0,-8.253003034042194e-05
2048.0,-0.0017305535729974508
2304.0,-0.0006763216806575656
2560.0,0.00043995623127557337
2816.0,0.0007042739889584482
3072.0,0.00010071176802739501
3328.0,-0.00225059618242085
3584.0,-0.0030228092800825834
3840.0,-0.0009002573788166046
4096.0,-0.00036382090183906257
4608.0,-0.0006711480673402548
5120.0,0.0010657216189429164
5632.0,0.0016503430670127273
6144.0,-0.0016844570636749268
6656.0,0.0003497497527860105
7168.0,0.00046315169311128557
7680.0,-0.0017283182824030519
8192.0,-0.0007622233242727816
end
