version,3.0
numOfCh,1
type,point
parent_name,34a6d_0dot2-1dot0
ch_type,1_1
kcount,1
numberNandB,1
brightnessNandB,1
carpet pos,0
pc,0
Time (ms),CH1 Auto-Correlation
1.0,0.024183228611946106
2.0,0.023727254942059517
3.0,0.02329760603606701
4.0,0.02290947735309601
5.0,0.02253090776503086
6.0,0.022175602614879608
7.0,0.021840961650013924
8.0,0.021513672545552254
9.0,0.02119443379342556
10.0,0.020877918228507042
11.0,0.020567012950778008
12.0,0.020256852731108665
13.0,0.019951460883021355
14.0,0.01966632343828678
15.0,0.01937270723283291
16.0,0.0191063079982996
18.0,0.018657995387911797
20.0,0.01821710914373398
22.0,0.017802610993385315
24.0,0.017400745302438736
26.0,0.017025120556354523
28.0,0.016659459099173546
30.0,0.016281671822071075
32.0,0.015907125547528267
36.0,0.015169289894402027
40.0,0.014438062906265259
44.0,0.01382604893296957
48.0,0.013265267945826054
52.0,0.01267174817621708
56.0,0.012080407701432705
60.0,0.011519365943968296
64.0,0.011039155535399914
72.0,0.010307446122169495
80.0,0.009598757140338421
88.0,0.008928331546485424
96.0,0.008446447551250458
104.0,0.008008730597794056
112.0,0.007656255271285772
120.0,0.007365390658378601
128.0,0.007055127061903477
144.0,0.006473858840763569
160.0,0.005965067073702812
176.0,0.005559612065553665
192.0,0.005249552428722382
208.0,0.005076637025922537
224.0,0.004687996581196785
240.0,0.004119618330150843
256.0,0.003674326464533806
288.0,0.002895129844546318
320.0,0.0023760031908750534
352.0,0.0020349067635834217
384.0,0.0011515888618305326
416.0,1.7420943549950607e-05
448.0,-6.43839011900127e-05
480.0,0.0002624248154461384
512.0,0.0008475722279399633
576.0,0.0008798614726401865
640.0,0.0009829578921198845
704.0,-1.1230522432015277e-05
768.0,-0.0008818753412924707
832.0,-0.002374734031036496
896.0,-0.002081742277368903
960.0,-0.0018782805418595672
1024.0,-0.0014444519765675068
1152.0,-0.0012625615345314145
1280.0,-0.0011180784786120057
1408.0,-0.0015725840348750353
1536.0,-0.0005133403465151787
1664.0,-3.334876601002179e-05
1792.0,-0.000414093752624467
1920.0,-0.00013131884043104947
2048.0,-0.002040005987510085
2304.0,-0.002304148394614458
2560.0,-0.0019998580683022738
2816.0,-0.002048237482085824
3072.0,-0.0011749982368201017
3328.0,-0.0011487177107483149
3584.0,0.00017130046035163105
3840.0,0.0007973285391926765
4096.0,0.0012156044831499457
4608.0,0.0011777557665482163
5120.0,-0.0005814494215883315
5632.0,-0.0010855152504518628
6144.0,0.0011866545537486672
6656.0,0.0016771609662100673
7168.0,0.0028981417417526245
7680.0,0.0007071819854900241
8192.0,0.0002885547582991421
end
