version,3.0
numOfCh,1
type,point
parent_name,34a6d_0dot2-1dot0
ch_type,1_1
kcount,1
numberNandB,1
brightnessNandB,1
carpet pos,0
pc,0
Time (ms),CH1 Auto-Correlation
1.0,0.02421393431723118
2.0,0.023756878450512886
3.0,0.02332272194325924
4.0,0.022919345647096634
5.0,0.02253231592476368
6.0,0.022151874378323555
7.0,0.021803801879286766
8.0,0.021454904228448868
9.0,0.021125512197613716
10.0,0.020797813311219215
11.0,0.020482638850808144
12.0,0.020173905417323112
13.0,0.01986994408071041
14.0,0.019586630165576935
15.0,0.019323159009218216
16.0,0.01907002180814743
18.0,0.01861054077744484
20.0,0.018199240788817406
22.0,0.01780717819929123
24.0,0.01741850934922695
26.0,0.01703254133462906
28.0,0.016674695536494255
30.0,0.01633695513010025
32.0,0.016007836908102036
36.0,0.015358245931565762
40.0,0.014739717356860638
44.0,0.014180402271449566
48.0,0.013630356639623642
52.0,0.013111009262502193
56.0,0.012638658285140991
60.0,0.012153206393122673
64.0,0.011669262312352657
72.0,0.010817119851708412
80.0,0.010056104511022568
88.0,0.009513081051409245
96.0,0.009007000364363194
104.0,0.008565275929868221
112.0,0.008241972886025906
120.0,0.008024312555789948
128.0,0.007841948419809341
144.0,0.007630723062902689
160.0,0.00754461158066988
176.0,0.007493999786674976
192.0,0.007244682405143976
208.0,0.006901641376316547
224.0,0.006655807141214609
240.0,0.006332567427307367
256.0,0.005964020732790232
288.0,0.005355405155569315
320.0,0.004691531881690025
352.0,0.004211888182908297
384.0,0.004033353179693222
416.0,0.003924497403204441
448.0,0.003998816944658756
480.0,0.003913194872438908
512.0,0.004011709243059158
576.0,0.0029491682071238756
640.0,0.0023982333950698376
704.0,0.0016901097260415554
768.0,0.0020518936216831207
832.0,0.0028355682734400034
896.0,0.002761205192655325
960.0,0.0019410693785175681
1024.0,0.0010694225784391165
1152.0,-0.0004956905031576753
1280.0,-0.0016969487769529223
1408.0,-0.0008773197769187391
1536.0,1.507912929810118e-05
1664.0,0.0009078200673684478
1792.0,0.00028409124934114516
1920.0,-0.00023601115390192717
2048.0,-0.0002906598965637386
2304.0,-0.0019987905398011208
2560.0,-0.0024045377504080534
2816.0,-0.0039862459525465965
3072.0,-0.00439106859266758
3328.0,-0.004815523978322744
3584.0,-0.00416208803653717
3840.0,-0.002131233224645257
4096.0,-0.0031269858591258526
4608.0,-0.0016763623571023345
5120.0,0.000514876504894346
5632.0,0.002663898281753063
6144.0,0.0025877985171973705
6656.0,0.001986549701541662
7168.0,0.0004708562628366053
7680.0,0.001345745986327529
8192.0,0.0012552838306874037
end
