version,3.0
numOfCh,1
type,point
parent_name,34a6d_0dot2-1dot0
ch_type,1_1
kcount,1
numberNandB,1
brightnessNandB,1
carpet pos,0
pc,0
Time (ms),CH1 Auto-Correlation
1.0,0.016037743538618088
2.0,0.015607054345309734
3.0,0.01520139817148447
4.0,0.01482568122446537
5.0,0.014457530342042446
6.0,0.014108621515333652
7.0,0.013767275959253311
8.0,0.013433560729026794
9.0,0.013131467625498772
10.0,0.012829610146582127
11.0,0.012544983066618443
12.0,0.01226106658577919
13.0,0.011982199735939503
14.0,0.011708546429872513
15.0,0.011446588672697544
16.0,0.011188816279172897
18.0,0.010687094181776047
20.0,0.010232803411781788
22.0,0.009809019044041634
24.0,0.009454586543142796
26.0,0.009107585996389389
28.0,0.008771145716309547
30.0,0.008431955240666866
32.0,0.008110258728265762
36.0,0.007496429607272148
40.0,0.0069474414922297
44.0,0.006408084183931351
48.0,0.005915625486522913
52.0,0.005476140417158604
56.0,0.005077173002064228
60.0,0.004685134161263704
64.0,0.004332009237259626
72.0,0.0036633682902902365
80.0,0.0030590929090976715
88.0,0.0027078199200332165
96.0,0.002527758479118347
104.0,0.002393378410488367
112.0,0.0021921470761299133
120.0,0.0018765765707939863
128.0,0.001462381100282073
144.0,0.000965398270636797
160.0,0.0007848248351365328
176.0,0.000645591237116605
192.0,0.000843614514451474
208.0,0.000890829658601433
224.0,0.0009240947547368705
240.0,0.0011072509223595262
256.0,0.0008173037203960121
288.0,0.0007716938271187246
320.0,0.001067591947503388
352.0,0.0010844444623216987
384.0,0.0009235705365426838
416.0,0.0012084568152204156
448.0,0.001033376669511199
480.0,0.0012630639830604196
512.0,0.0013406520010903478
576.0,0.00032210396602749825
640.0,-0.00014823666424490511
704.0,-0.00020755105651915073
768.0,0.0008437702199444175
832.0,0.0010358664439991117
896.0,0.0005190726951695979
960.0,0.0006064465269446373
1024.0,0.0013341878075152636
1152.0,0.000726056401617825
1280.0,0.0001280536234844476
1408.0,-0.001298565766774118
1536.0,-0.0011317614698782563
1664.0,0.000646765052806586
1792.0,0.00044244699529372156
1920.0,-0.0002446976432111114
2048.0,0.0006567978416569531
2304.0,-0.0009281148086301982
2560.0,-0.0001383038907079026
2816.0,-0.00023900839732959867
3072.0,0.00035939921508543193
3328.0,-0.0007948189158923924
3584.0,-0.0013613865012302995
3840.0,-0.0016441530315205455
4096.0,-0.0018629201222211123
4608.0,-0.0011001583188772202
5120.0,-0.0009175735176540911
5632.0,-0.00021257922344375402
6144.0,0.00045893597416579723
6656.0,-0.0004976684576831758
7168.0,-0.0005243106279522181
7680.0,0.0009995893342420459
8192.0,0.0012560354080051184
end
