version,3.0
numOfCh,1
type,point
parent_name,34a6d_0dot2-1dot0
ch_type,1_1
kcount,1
numberNandB,1
brightnessNandB,1
carpet pos,0
pc,0
Time (ms),CH1 Auto-Correlation
1.0,0.02105046808719635
2.0,0.0206432044506073
3.0,0.020265821367502213
4.0,0.01989752985537052
5.0,0.019536633044481277
6.0,0.019177407026290894
7.0,0.018824581056833267
8.0,0.018464509397745132
9.0,0.018122917041182518
10.0,0.017796378582715988
11.0,0.01748589053750038
12.0,0.017188290134072304
13.0,0.01689802296459675
14.0,0.016616808250546455
15.0,0.0163405928760767
16.0,0.016080277040600777
18.0,0.015599032863974571
20.0,0.015136804431676865
22.0,0.01472365204244852
24.0,0.014354724436998367
26.0,0.013995013199746609
28.0,0.013668326660990715
30.0,0.013338339515030384
32.0,0.013004873879253864
36.0,0.012359156273305416
40.0,0.011732552200555801
44.0,0.011205772869288921
48.0,0.01075445581227541
52.0,0.010350419208407402
56.0,0.01002152357250452
60.0,0.009750224649906158
64.0,0.00947202555835247
72.0,0.009046090766787529
80.0,0.008742124773561954
88.0,0.008415807969868183
96.0,0.00805788766592741
104.0,0.007716333959251642
112.0,0.007363455835729837
120.0,0.006955554708838463
128.0,0.0065635195933282375
144.0,0.005791842937469482
160.0,0.00539759173989296
176.0,0.005010572262108326
192.0,0.004690124187618494
208.0,0.004282444249838591
224.0,0.004394704010337591
240.0,0.004564741160720587
256.0,0.0045785484835505486
288.0,0.0036653615534305573
320.0,0.002406763844192028
352.0,0.0020970250479876995
384.0,0.002007315633818507
416.0,0.0019786315970122814
448.0,0.002308027818799019
480.0,0.0023766220547258854
512.0,0.003220755374059081
576.0,0.0022974065504968166
640.0,0.0007646563462913036
704.0,4.219552283757366e-05
768.0,0.0006212300504557788
832.0,0.0013805944472551346
896.0,0.0010963438544422388
960.0,0.0014624246396124363
1024.0,0.0030613176058977842
1152.0,0.0019936575554311275
1280.0,0.002258458873257041
1408.0,0.0025262818671762943
1536.0,0.0024906026665121317
1664.0,0.0015255545731633902
1792.0,0.0020583129953593016
1920.0,0.002058862242847681
2048.0,0.001444322057068348
2304.0,-0.0019003149354830384
2560.0,-0.0006116552976891398
2816.0,0.0004455644520930946
3072.0,0.000745429249946028
3328.0,-0.0009219005005434155
3584.0,0.0002717957831919193
3840.0,1.924017169585568e-06
4096.0,0.0001066020704456605
4608.0,-0.00024045348982326686
5120.0,0.0002231521939393133
5632.0,-1.5067621461639646e-06
6144.0,0.001008611056022346
6656.0,0.0010133517207577825
7168.0,-0.0017021048115566373
7680.0,-0.0003429735079407692
8192.0,0.00022408110089600086
end
