version,3.0
numOfCh,1
type,point
parent_name,34a6d_0dot2-1dot0
ch_type,1_1
kcount,1
numberNandB,1
brightnessNandB,1
carpet pos,0
pc,0
Time (ms),CH1 Auto-Correlation
1.0,0.0254354365170002
2.0,0.024961644783616066
3.0,0.02451125718653202
4.0,0.02409820444881916
5.0,0.02370612323284149
6.0,0.02334754727780819
7.0,0.023016249760985374
8.0,0.022689485922455788
9.0,0.022369662299752235
10.0,0.022059645503759384
11.0,0.021748971194028854
12.0,0.02144043706357479
13.0,0.021151360124349594
14.0,0.02086617983877659
15.0,0.02058652974665165
16.0,0.02030721865594387
18.0,0.019801929593086243
20.0,0.019327078014612198
22.0,0.01889796368777752
24.0,0.01849096082150936
26.0,0.018092017620801926
28.0,0.017703544348478317
30.0,0.017330104485154152
32.0,0.016991395503282547
36.0,0.01635030470788479
40.0,0.01573849655687809
44.0,0.015165493823587894
48.0,0.01459785457700491
52.0,0.013984475284814835
56.0,0.013436034321784973
60.0,0.012867845594882965
64.0,0.01233366597443819
72.0,0.011311804875731468
80.0,0.010293757542967796
88.0,0.009327691979706287
96.0,0.008472292684018612
104.0,0.00769985094666481
112.0,0.007068383973091841
120.0,0.006575860548764467
128.0,0.006262683775275946
144.0,0.005906081758439541
160.0,0.0055852010846138
176.0,0.005221727304160595
192.0,0.005176321137696505
208.0,0.005307858809828758
224.0,0.005501515697687864
240.0,0.005348074249923229
256.0,0.005270200781524181
288.0,0.004117339849472046
320.0,0.002193731488659978
352.0,0.0010985916014760733
384.0,0.0003802455903496593
416.0,0.0002764813834801316
448.0,0.0009894724935293198
480.0,0.0017025984125211835
512.0,0.0020416530314832926
576.0,0.0014465461717918515
640.0,0.0005924837314523757
704.0,0.0006519861635752022
768.0,-0.00015555460413452238
832.0,-0.001308345701545477
896.0,-0.0016023826319724321
960.0,-0.001616150257177651
1024.0,-0.0016100156353786588
1152.0,-0.00023937209334690124
1280.0,-0.00045053745270706713
1408.0,0.0022227209992706776
1536.0,0.0014407836133614182
1664.0,-0.00013565743574872613
1792.0,-0.002304773312062025
1920.0,-0.001330012921243906
2048.0,-0.001374967978335917
2304.0,0.0009830932831391692
2560.0,0.0012902957387268543
2816.0,0.0006269259029068053
3072.0,6.8273140641395e-05
3328.0,-3.402661604923196e-05
3584.0,0.000536430103238672
3840.0,0.001936465036123991
4096.0,0.0013323306338861585
4608.0,0.0006594305159524083
5120.0,-0.0013940458884462714
5632.0,-0.005760394502431154
6144.0,-0.0020072285551577806
6656.0,0.0008981310529634356
7168.0,0.0009775366634130478
7680.0,-0.0007104053511284292
8192.0,-0.002018474042415619
end
