version,3.0
numOfCh,1
type,point
parent_name,34a6d_0dot2-1dot0
ch_type,1_1
kcount,1
numberNandB,1
brightnessNandB,1
carpet pos,0
pc,0
Time (ms),CH1 Auto-Correlation
1.0,0.022285163402557373
2.0,0.021822340786457062
3.0,0.02137094736099243
4.0,0.02095510996878147
5.0,0.020563015714287758
6.0,0.020182667300105095
7.0,0.019809719175100327
8.0,0.01944761350750923
9.0,0.01910216547548771
10.0,0.01876002922654152
11.0,0.0184482391923666
12.0,0.018134353682398796
13.0,0.017809048295021057
14.0,0.01748964935541153
15.0,0.017173204571008682
16.0,0.016867587342858315
18.0,0.016274631023406982
20.0,0.01573428139090538
22.0,0.015212287195026875
24.0,0.014719324186444283
26.0,0.014282571151852608
28.0,0.013899007812142372
30.0,0.013517559505999088
32.0,0.013175698928534985
36.0,0.012508023530244827
40.0,0.01195173803716898
44.0,0.011450217105448246
48.0,0.010928796604275703
52.0,0.01042386144399643
56.0,0.0100100664421916
60.0,0.009729230776429176
64.0,0.009494977071881294
72.0,0.00906695518642664
80.0,0.008707815781235695
88.0,0.008412263356149197
96.0,0.008125875145196915
104.0,0.007897979579865932
112.0,0.007611134555190802
120.0,0.007311881519854069
128.0,0.006963613908737898
144.0,0.006428297143429518
160.0,0.006409153342247009
176.0,0.00624703336507082
192.0,0.00579217029735446
208.0,0.005375048145651817
224.0,0.0048406776040792465
240.0,0.0041337087750434875
256.0,0.0035909463185817003
288.0,0.0029360749758780003
320.0,0.0023982382845133543
352.0,0.0017694637645035982
384.0,0.0018458195263519883
416.0,0.0015146873192861676
448.0,0.00041884835809469223
480.0,-0.0001855291484389454
512.0,-0.00048527587205171585
576.0,-0.0002200174203608185
640.0,0.00016587502614129335
704.0,0.0006158830365166068
768.0,0.0010092654265463352
832.0,0.0017197031993418932
896.0,0.0017365009989589453
960.0,0.0015728622674942017
1024.0,0.0007649167673662305
1152.0,0.00026581063866615295
1280.0,1.0740691323007923e-05
1408.0,-1.0065990863949992e-05
1536.0,0.0004479153431020677
1664.0,-0.0003989830438513309
1792.0,0.00014986205496825278
1920.0,-0.0009935126872733235
2048.0,-0.0009693619213066995
2304.0,-0.0017495122738182545
2560.0,-0.000768974656239152
2816.0,0.0005992875667288899
3072.0,-0.001035907189361751
3328.0,-0.0031302087008953094
3584.0,-0.0022081825882196426
3840.0,-0.0008826021221466362
4096.0,-0.0010157385841012
4608.0,-0.0008149321656674147
5120.0,0.0003342044947203249
5632.0,-0.0002937363169621676
6144.0,-0.0020115296356379986
6656.0,-0.002057774690911174
7168.0,-0.0018055037362501025
7680.0,7.671111961826682e-05
8192.0,-0.0009245378314517438
end
