version,3.0
numOfCh,1
type,point
parent_name,34a6d_0dot2-1dot0
ch_type,1_1
kcount,1
numberNandB,1
brightnessNandB,1
carpet pos,0
pc,0
Time (ms),CH1 Auto-Correlation
1.0,0.018792910501360893
2.0,0.018377527594566345
3.0,0.01797419600188732
4.0,0.017580922693014145
5.0,0.017219455912709236
6.0,0.016882115975022316
7.0,0.016549229621887207
8.0,0.01624404825270176
9.0,0.015941336750984192
10.0,0.01564338617026806
11.0,0.015349870547652245
12.0,0.015052741393446922
13.0,0.014774847775697708
14.0,0.014511387795209885
15.0,0.014253051020205021
16.0,0.014006494544446468
18.0,0.013534290716052055
20.0,0.013096724636852741
22.0,0.012676522135734558
24.0,0.012289837002754211
26.0,0.011934833601117134
28.0,0.01160410512238741
30.0,0.011266132816672325
32.0,0.010948463343083858
36.0,0.010310591198503971
40.0,0.009764287620782852
44.0,0.009301479905843735
48.0,0.008814645931124687
52.0,0.008356242440640926
56.0,0.007927983067929745
60.0,0.007528067100793123
64.0,0.007159654516726732
72.0,0.00634626392275095
80.0,0.005545788444578648
88.0,0.004871646873652935
96.0,0.004529168829321861
104.0,0.0043697599321603775
112.0,0.004222773015499115
120.0,0.003985476680099964
128.0,0.003642426338046789
144.0,0.003305802121758461
160.0,0.0032135075889527798
176.0,0.0033318104688078165
192.0,0.003468771930783987
208.0,0.003595935180783272
224.0,0.00405358150601387
240.0,0.004275612998753786
256.0,0.0038953586481511593
288.0,0.0038158639799803495
320.0,0.003725776681676507
352.0,0.003135658334940672
384.0,0.0023423584643751383
416.0,0.002442676341161132
448.0,0.00235621421597898
480.0,0.002470327541232109
512.0,0.002166380640119314
576.0,0.0031703098211437464
640.0,0.004116378258913755
704.0,0.004105166532099247
768.0,0.0035851618740707636
832.0,0.0036521684378385544
896.0,0.003720490727573633
960.0,0.002855760045349598
1024.0,0.002788534387946129
1152.0,0.00213739019818604
1280.0,0.002053174888715148
1408.0,0.0030059863347560167
1536.0,0.0015905973268672824
1664.0,0.0017636476550251245
1792.0,0.001347514451481402
1920.0,0.0018123956397175789
2048.0,0.0017605747561901808
2304.0,0.0012293638428673148
2560.0,0.0007306162151508033
2816.0,0.0006018708809278905
3072.0,0.0004946553381159902
3328.0,-0.0004442159552127123
3584.0,0.0007931159343570471
3840.0,-0.00024790121824480593
4096.0,-0.0017265784554183483
4608.0,-0.002153064589947462
5120.0,-0.002165425568819046
5632.0,-0.0020310308318585157
6144.0,-0.0016758640995249152
6656.0,-0.0023990613408386707
7168.0,-0.0010654451325535774
7680.0,-0.0006067763897590339
8192.0,-0.0001678485714364797
end
