version,3.0
numOfCh,1
type,point
parent_name,34a6d_0dot2-1dot0
ch_type,1_1
kcount,1
numberNandB,1
brightnessNandB,1
carpet pos,0
pc,0
Time (ms),CH1 Auto-Correlation
1.0,0.021082021296024323
2.0,0.020599136129021645
3.0,0.020167842507362366
4.0,0.019770406186580658
5.0,0.019367322325706482
6.0,0.018981508910655975
7.0,0.018605515360832214
8.0,0.018256817013025284
9.0,0.017926979809999466
10.0,0.01759188063442707
11.0,0.01729402132332325
12.0,0.017004018649458885
13.0,0.01674027368426323
14.0,0.016487162560224533
15.0,0.016243111342191696
16.0,0.016009390354156494
18.0,0.015531381592154503
20.0,0.015081718564033508
22.0,0.014642885886132717
24.0,0.014224911108613014
26.0,0.013830252923071384
28.0,0.013433474116027355
30.0,0.013023020699620247
32.0,0.012613188475370407
36.0,0.011876801028847694
40.0,0.011264446191489697
44.0,0.01073110569268465
48.0,0.01024877093732357
52.0,0.009760057553648949
56.0,0.009335441514849663
60.0,0.008983242325484753
64.0,0.008584719151258469
72.0,0.007884325459599495
80.0,0.007384454365819693
88.0,0.0069711050018668175
96.0,0.00651263864710927
104.0,0.006060171406716108
112.0,0.005582131911069155
120.0,0.005198359955102205
128.0,0.004864838439971209
144.0,0.0046812137588858604
160.0,0.004249845165759325
176.0,0.0038234989624470472
192.0,0.0039039209950715303
208.0,0.0038093621842563152
224.0,0.0035498987417668104
240.0,0.003378963563591242
256.0,0.0028967733960598707
288.0,0.0021508182398974895
320.0,0.001644218573346734
352.0,0.001293142675422132
384.0,0.00029724332853220403
416.0,-0.0010875536827370524
448.0,-0.0014818068593740463
480.0,-0.0014047709992155433
512.0,-0.0018805047729983926
576.0,-0.0033801072277128696
640.0,-0.003968039993196726
704.0,-0.004639823455363512
768.0,-0.004222870338708162
832.0,-0.0033424021676182747
896.0,-0.002375851385295391
960.0,-0.0011521284468472004
1024.0,6.65343613945879e-05
1152.0,0.0005815674085170031
1280.0,-4.1796007280936465e-05
1408.0,7.134095358196646e-05
1536.0,0.0009507141658104956
1664.0,0.0019674550276249647
1792.0,0.0018474779790267348
1920.0,0.0014095709193497896
2048.0,0.00020810498972423375
2304.0,-0.0029872979503124952
2560.0,-0.002673492766916752
2816.0,0.0005277664167806506
3072.0,0.0016534229507669806
3328.0,0.0012046108022332191
3584.0,-0.00013229408068582416
3840.0,-0.0006374054355546832
4096.0,-0.0006053468678146601
4608.0,0.0007455745944753289
5120.0,-8.481973054585978e-05
5632.0,-0.0007469021365977824
6144.0,-0.0009032888920046389
6656.0,0.0033720056526362896
7168.0,-0.002514495048671961
7680.0,-0.0010125567205250263
8192.0,0.0011607938213273883
end
