version,3.0
numOfCh,1
type,point
parent_name,34a6d_0dot2-1dot0
ch_type,1_1
kcount,1
numberNandB,1
brightnessNandB,1
carpet pos,0
pc,0
Time (ms),CH1 Auto-Correlation
1.0,0.021113790571689606
2.0,0.020698146894574165
3.0,0.02031303197145462
4.0,0.019940761849284172
5.0,0.0195865947753191
6.0,0.019242096692323685
7.0,0.018902702257037163
8.0,0.018583759665489197
9.0,0.018249327316880226
10.0,0.01791250891983509
11.0,0.017586572095751762
12.0,0.017277278006076813
13.0,0.016973497346043587
14.0,0.016701029613614082
15.0,0.01644151099026203
16.0,0.016195209696888924
18.0,0.015725020319223404
20.0,0.015289820730686188
22.0,0.014861727133393288
24.0,0.014455521479249
26.0,0.0140648502856493
28.0,0.01371697150170803
30.0,0.013407266698777676
32.0,0.013128310441970825
36.0,0.012640121392905712
40.0,0.01214608084410429
44.0,0.011619730852544308
48.0,0.011102907359600067
52.0,0.010669209994375706
56.0,0.01030151080340147
60.0,0.009972406551241875
64.0,0.009619554504752159
72.0,0.008918539620935917
80.0,0.008325486443936825
88.0,0.0077278329990804195
96.0,0.0071312361396849155
104.0,0.006798241753131151
112.0,0.006566314958035946
120.0,0.006180692929774523
128.0,0.0058028679341077805
144.0,0.005201701540499926
160.0,0.005082963965833187
176.0,0.004850136116147041
192.0,0.0049338024109601974
208.0,0.004620186053216457
224.0,0.0045005702413618565
240.0,0.004107735585421324
256.0,0.004139618948101997
288.0,0.0044682626612484455
320.0,0.004166639409959316
352.0,0.0036420479882508516
384.0,0.0032603652216494083
416.0,0.0031576170586049557
448.0,0.0034693169873207808
480.0,0.003194729797542095
512.0,0.002596576465293765
576.0,0.00230514258146286
640.0,0.0016795442206785083
704.0,0.0004702437436208129
768.0,0.00021432052017189562
832.0,-0.00022779397841077298
896.0,-0.0010321747977286577
960.0,-0.0025353238452225924
1024.0,-0.0013034155126661062
1152.0,-0.0006083299522288144
1280.0,-0.0007085130200721323
1408.0,-0.0013250397751107812
1536.0,-0.0007773690740577877
1664.0,0.0016162151005119085
1792.0,0.0023971162736415863
1920.0,0.002150202402845025
2048.0,0.002544637769460678
2304.0,0.0009838694240897894
2560.0,-9.52017362578772e-05
2816.0,-0.002157071838155389
3072.0,-0.0026390503626316786
3328.0,-0.0024279828649014235
3584.0,-0.0013621830148622394
3840.0,-0.0015368841122835875
4096.0,0.00010363726323703304
4608.0,0.0011470013996586204
5120.0,-0.0008965007145889103
5632.0,-0.0027470963541418314
6144.0,-0.0022478788159787655
6656.0,-0.0008780028438195586
7168.0,-0.0028851586394011974
7680.0,-0.0045007322914898396
8192.0,-0.000548706331755966
end
