version,3.0
numOfCh,1
type,point
parent_name,ff67b_1dot0-1dot0
ch_type,1_1
kcount,1
numberNandB,1
brightnessNandB,1
carpet pos,0
pc,0
Time (ms),CH1 Auto-Correlation
1.0,0.024253899231553078
2.0,0.02200891077518463
3.0,0.020084893330931664
4.0,0.01842300035059452
5.0,0.01686640828847885
6.0,0.015569336712360382
7.0,0.014401332475244999
8.0,0.013348395004868507
9.0,0.012458917684853077
10.0,0.011595569550991058
11.0,0.010781761258840561
12.0,0.010022840462625027
13.0,0.009346259757876396
14.0,0.008789517916738987
15.0,0.008277062326669693
16.0,0.007874966599047184
18.0,0.007125422358512878
20.0,0.006558044347912073
22.0,0.006088197231292725
24.0,0.0056466879323124886
26.0,0.005279537755995989
28.0,0.005010269582271576
30.0,0.004784560762345791
32.0,0.004553454462438822
36.0,0.004198849201202393
40.0,0.003594266250729561
44.0,0.0030018456745892763
48.0,0.002607997041195631
52.0,0.00219722930341959
56.0,0.0017881729872897267
60.0,0.0013796876883134246
64.0,0.0012322046095505357
72.0,0.0016125553520396352
80.0,0.0018020347924903035
88.0,0.0015615771990269423
96.0,0.001067189616151154
104.0,0.0005032740300521255
112.0,0.000259294145507738
120.0,-0.00010570475569693372
128.0,0.0001406884694006294
144.0,-0.0004119782825000584
160.0,-0.00024454700178466737
176.0,-0.00035540296812541783
192.0,-0.00046462719910778105
208.0,-0.00037052022526040673
224.0,-0.0010442567290738225
240.0,-0.0008708004606887698
256.0,-0.001414283411577344
288.0,-0.001323797507211566
320.0,-0.00011716785229509696
352.0,0.0007356369169428945
384.0,-0.00034312301431782544
416.0,-0.0008834328618831933
448.0,-0.00023435430193785578
480.0,0.00015387919847853482
512.0,0.00010988372378051281
576.0,-1.0620939065120183e-05
640.0,-0.0013154767220839858
704.0,-0.0003304461424704641
768.0,-0.00029151621856726706
832.0,0.0006516398279927671
896.0,0.00040101754711940885
960.0,0.0007786481874063611
1024.0,0.0004278736305423081
1152.0,0.00016608832811471075
1280.0,0.0006951740360818803
1408.0,-0.0007208760362118483
1536.0,-0.0009690428269095719
1664.0,-0.00044590854668058455
1792.0,-0.00028420230955816805
1920.0,-0.000314421602524817
2048.0,0.0004876162565778941
2304.0,-0.0003849717613775283
2560.0,-1.1394385182939004e-05
2816.0,0.00012708411668427289
3072.0,0.00024238412152044475
3328.0,0.00038196638342924416
3584.0,-0.0003604607773013413
3840.0,0.0005684118368662894
4096.0,-9.522327309241518e-05
4608.0,-4.3286494474159554e-05
5120.0,4.920980427414179e-05
5632.0,-0.0005738749168813229
6144.0,-1.5215101484500337e-05
6656.0,0.00042723806109279394
7168.0,0.0004292894736863673
7680.0,-0.0004555525374598801
8192.0,0.00017820358334574848
end
