version,3.0
numOfCh,1
type,point
parent_name,ff67b_1dot0-1dot0
ch_type,1_1
kcount,1
numberNandB,1
brightnessNandB,1
carpet pos,0
pc,0
Time (ms),CH1 Auto-Correlation
1.0,0.029649820178747177
2.0,0.02751913294196129
3.0,0.025719959288835526
4.0,0.02415049634873867
5.0,0.02275903709232807
6.0,0.021518953144550323
7.0,0.020388633012771606
8.0,0.01930604688823223
9.0,0.01835056208074093
10.0,0.017495837062597275
11.0,0.016736067831516266
12.0,0.016083547845482826
13.0,0.015483574010431767
14.0,0.014949892647564411
15.0,0.014497141353785992
16.0,0.014087378047406673
18.0,0.013226527720689774
20.0,0.012389518320560455
22.0,0.011703328229486942
24.0,0.011132982559502125
26.0,0.01056618057191372
28.0,0.010008441284298897
30.0,0.009452864527702332
32.0,0.008985861204564571
36.0,0.008417809382081032
40.0,0.007783026900142431
44.0,0.0071271429769694805
48.0,0.0065726786851882935
52.0,0.006092783063650131
56.0,0.0055701760575175285
60.0,0.005225550848990679
64.0,0.005070616491138935
72.0,0.0044796280562877655
80.0,0.003811290254816413
88.0,0.0036381802055984735
96.0,0.0035181986168026924
104.0,0.00341314310207963
112.0,0.002907718066126108
120.0,0.0024486184120178223
128.0,0.0017656509298831224
144.0,0.0017583814915269613
160.0,0.0018781899707391858
176.0,0.0012039613211527467
192.0,0.00020133767975494266
208.0,-4.342262036516331e-05
224.0,0.00020507907902356237
240.0,-0.00031160199432633817
256.0,0.00026833874289877713
288.0,0.00013238094106782228
320.0,0.0006284598493948579
352.0,0.000620173872448504
384.0,-0.000279393105302006
416.0,-0.0001832729030866176
448.0,-0.0003477752616163343
480.0,0.00024565879721194506
512.0,-0.0004264928575139493
576.0,-0.0008584208553656936
640.0,-0.00011736618034774438
704.0,0.0001615842047613114
768.0,-0.000632535491604358
832.0,-0.00041032826993614435
896.0,-0.0006200599018484354
960.0,0.0010308277560397983
1024.0,0.0015568900853395462
1152.0,0.0012107265647500753
1280.0,0.0010376431746408343
1408.0,-0.0006571736885234714
1536.0,-0.002128102583810687
1664.0,-0.002312801079824567
1792.0,-0.00023672105453442782
1920.0,0.0006833733641542494
2048.0,-0.0005977018154226243
2304.0,0.0004647854366339743
2560.0,-0.0003873012319672853
2816.0,-0.0011720629408955574
3072.0,-0.00044940083171240985
3328.0,-0.0003949113597627729
3584.0,-0.00037497805897146463
3840.0,-3.923123949789442e-05
4096.0,-0.00041194623918272555
4608.0,-2.048890382866375e-05
5120.0,-0.0011433176696300507
5632.0,0.0005725250230170786
6144.0,3.8733174733351916e-05
6656.0,0.0002201864990638569
7168.0,0.0006000813446007669
7680.0,-0.0011701884213835
8192.0,-0.0009030596120283008
end
