version,3.0
numOfCh,1
type,point
parent_name,ff67b_1dot0-1dot0
ch_type,1_1
kcount,1
numberNandB,1
brightnessNandB,1
carpet pos,0
pc,0
Time (ms),CH1 Auto-Correlation
1.0,0.026497596874833107
2.0,0.02425447292625904
3.0,0.022412223741412163
4.0,0.020837243646383286
5.0,0.019446909427642822
6.0,0.01824207603931427
7.0,0.017255591228604317
8.0,0.016388867050409317
9.0,0.015565115958452225
10.0,0.014778933487832546
11.0,0.014091722667217255
12.0,0.013387078419327736
13.0,0.012714129872620106
14.0,0.012092999182641506
15.0,0.011477713473141193
16.0,0.010925184935331345
18.0,0.009908292442560196
20.0,0.009008788503706455
22.0,0.008215468376874924
24.0,0.007671780418604612
26.0,0.007265366613864899
28.0,0.006941299885511398
30.0,0.006500032730400562
32.0,0.006199939642101526
36.0,0.005711179226636887
40.0,0.005285711493343115
44.0,0.004692499991506338
48.0,0.004078632220625877
52.0,0.0035546051803976297
56.0,0.0030594433192163706
60.0,0.0028968288097530603
64.0,0.0027102050371468067
72.0,0.0024271535221487284
80.0,0.0017884286353364587
88.0,0.0012397211976349354
96.0,0.0008714949944987893
104.0,0.0007131019956432283
112.0,0.00043976050801575184
120.0,0.00022024767531547695
128.0,0.00022140788496471941
144.0,-4.551318852463737e-05
160.0,-0.0004591445322148502
176.0,-0.0009653167217038572
192.0,-0.0005680067697539926
208.0,-0.0005819658981636167
224.0,-0.0007403847994282842
240.0,0.00011042864935006946
256.0,0.0005291770212352276
288.0,-0.00024317356292158365
320.0,-0.0007631528424099088
352.0,-3.775900768232532e-05
384.0,0.0004026633978355676
416.0,0.00022919113689567894
448.0,-0.0008499131654389203
480.0,-0.0007877539028413594
512.0,-0.0006317815859802067
576.0,-0.0007920446805655956
640.0,0.00014987516624387354
704.0,-5.858828444615938e-05
768.0,-9.93659850792028e-05
832.0,-0.00018285479745827615
896.0,-0.0008154607494361699
960.0,-0.0002886895090341568
1024.0,6.63491664454341e-05
1152.0,-0.00046155834570527077
1280.0,-0.0007349051302298903
1408.0,0.000504391617141664
1536.0,0.0014772037975490093
1664.0,0.00016620257520116866
1792.0,0.00018734433979261667
1920.0,0.0004993440234102309
2048.0,-0.00034620301448740065
2304.0,-0.0004908088594675064
2560.0,-0.0009534023120068014
2816.0,-0.0009197583422064781
3072.0,0.0003303280973341316
3328.0,0.0008042107219807804
3584.0,-0.0005716357263736427
3840.0,-0.0007351983222179115
4096.0,-0.0004112900933250785
4608.0,0.0001583005505381152
5120.0,-0.00019943402730859816
5632.0,-3.715569619089365e-05
6144.0,0.00033091165823861957
6656.0,7.93378785601817e-06
7168.0,-0.00022199374507181346
7680.0,0.000549730786588043
8192.0,0.00034551831777207553
end
