version,3.0
numOfCh,1
type,point
parent_name,ff67b_1dot0-1dot0
ch_type,1_1
kcount,1
numberNandB,1
brightnessNandB,1
carpet pos,0
pc,0
Time (ms),CH1 Auto-Correlation
1.0,0.027827510610222816
2.0,0.025656959041953087
3.0,0.0238336268812418
4.0,0.022262368351221085
5.0,0.02086799405515194
6.0,0.019648630172014236
7.0,0.018581144511699677
8.0,0.017680775374174118
9.0,0.016847223043441772
10.0,0.01609061472117901
11.0,0.01536669209599495
12.0,0.01478483621031046
13.0,0.014231696724891663
14.0,0.01371592003852129
15.0,0.013300169259309769
16.0,0.012842749245464802
18.0,0.012065851129591465
20.0,0.011314531788229942
22.0,0.010642868466675282
24.0,0.01011895202100277
26.0,0.009701961651444435
28.0,0.009366421028971672
30.0,0.008912237361073494
32.0,0.008461839519441128
36.0,0.007899883203208447
40.0,0.007000703830271959
44.0,0.006265404634177685
48.0,0.005779983475804329
52.0,0.005326998885720968
56.0,0.004790836479514837
60.0,0.004325221758335829
64.0,0.0037386107724159956
72.0,0.0026189517229795456
80.0,0.002389624947682023
88.0,0.002674312563613057
96.0,0.0020517061930149794
104.0,0.0012267029378563166
112.0,0.0008336164173670113
120.0,0.0008366492693312466
128.0,0.0012443511513993144
144.0,0.0012965782079845667
160.0,0.0009689300204627216
176.0,0.0005406867130659521
192.0,5.716205487260595e-05
208.0,-0.0010895010782405734
224.0,-0.0005961584975011647
240.0,0.000493127154186368
256.0,0.0008327866671606898
288.0,-0.00013149253209121525
320.0,0.0005190622759982944
352.0,0.0018484632018953562
384.0,0.0026001054793596268
416.0,0.0020555329974740744
448.0,0.0013390970416367054
480.0,0.0008537383982911706
512.0,0.0011459538945928216
576.0,0.0010063413064926863
640.0,0.0007579526863992214
704.0,-0.000424157187808305
768.0,-0.0010435055010020733
832.0,-0.00027949988725595176
896.0,0.0009087412036024034
960.0,0.0016070660203695297
1024.0,0.00203143828548491
1152.0,0.00023926707217469811
1280.0,-0.0004153768240939826
1408.0,0.0006726367864757776
1536.0,-0.0005779496859759092
1664.0,4.8040852561825886e-05
1792.0,-4.95365338792908e-06
1920.0,0.0004802150942850858
2048.0,-4.321198503021151e-05
2304.0,0.0005066653829999268
2560.0,-0.0007656835368834436
2816.0,0.00079431536141783
3072.0,-0.001159259001724422
3328.0,-3.6583759310815367e-07
3584.0,-0.0010167096043005586
3840.0,0.0002976844261866063
4096.0,-0.0010232767090201378
4608.0,-0.00030708874692209065
5120.0,-0.0007709907949902117
5632.0,-0.0003120966721326113
6144.0,-0.0007207192247733474
6656.0,-0.0013288578484207392
7168.0,0.00037503597559407353
7680.0,-3.223847670597024e-05
8192.0,-0.0009871871443465352
end
