version,3.0
numOfCh,1
type,point
parent_name,ff67b_1dot0-1dot0
ch_type,1_1
kcount,1
numberNandB,1
brightnessNandB,1
carpet pos,0
pc,0
Time (ms),CH1 Auto-Correlation
1.0,0.025675896555185318
2.0,0.023514525964856148
3.0,0.021744363009929657
4.0,0.020192207768559456
5.0,0.0188609566539526
6.0,0.01767124980688095
7.0,0.016613973304629326
8.0,0.0156396571546793
9.0,0.014750216156244278
10.0,0.013834761455655098
11.0,0.013037244789302349
12.0,0.012294563464820385
13.0,0.011548120528459549
14.0,0.010938478633761406
15.0,0.010384941473603249
16.0,0.009853530675172806
18.0,0.00905013270676136
20.0,0.008365179412066936
22.0,0.007770653814077377
24.0,0.007219915743917227
26.0,0.0067299348302185535
28.0,0.006202399730682373
30.0,0.005663518328219652
32.0,0.005109004210680723
36.0,0.004402097314596176
40.0,0.003953923471271992
44.0,0.003615476656705141
48.0,0.003248870139941573
52.0,0.003065779572352767
56.0,0.0027874077204614878
60.0,0.0022695939987897873
64.0,0.002069123787805438
72.0,0.001788550172932446
80.0,0.0017865573754534125
88.0,0.0016201200196519494
96.0,0.0018016411922872066
104.0,0.0020654660183936357
112.0,0.0016076179454103112
120.0,0.000942655315157026
128.0,0.000334063486661762
144.0,-0.0005320508498698473
160.0,-0.0005301460041664541
176.0,-0.000578695151489228
192.0,-0.0009750820463523269
208.0,-0.0016540017677471042
224.0,-0.0011707334779202938
240.0,-0.0007737551932223141
256.0,3.819528501480818e-05
288.0,0.00041034683817997575
320.0,0.00026807605172507465
352.0,0.000520560541190207
384.0,0.00019886369409505278
416.0,0.0002054062206298113
448.0,-1.4053111954126507e-05
480.0,-0.0005473587079904974
512.0,-0.000956951524131
576.0,-0.0005480371182784438
640.0,-0.0007276061223819852
704.0,-0.000355366530129686
768.0,0.0003105272480752319
832.0,-1.9726539903786033e-05
896.0,-0.0012402718421071768
960.0,-0.002017681021243334
1024.0,-0.0008249374805018306
1152.0,-6.075356941437349e-05
1280.0,-0.0005629878141917288
1408.0,-0.0010785497725009918
1536.0,-0.000141539319884032
1664.0,0.0005477621452882886
1792.0,-0.0006124179344624281
1920.0,0.0002795008185785264
2048.0,0.0004609529278241098
2304.0,0.00044146200525574386
2560.0,-0.00041558867087587714
2816.0,-0.00030850310577079654
3072.0,0.0001702049921732396
3328.0,0.0006442999001592398
3584.0,2.1099913283251226e-05
3840.0,-0.0005800094222649932
4096.0,-0.00013997917994856834
4608.0,3.8454763853223994e-05
5120.0,7.74065192672424e-05
5632.0,0.00042349897557869554
6144.0,-0.0003833741939160973
6656.0,0.0003806847089435905
7168.0,-0.00042923877481371164
7680.0,-0.0002235926513094455
8192.0,-0.00035163102438673377
end
