version,3.0
numOfCh,1
type,point
parent_name,ff67b_1dot0-1dot0
ch_type,1_1
kcount,1
numberNandB,1
brightnessNandB,1
carpet pos,0
pc,0
Time (ms),CH1 Auto-Correlation
1.0,0.02777637355029583
2.0,0.025576584041118622
3.0,0.02372637949883938
4.0,0.02214070037007332
5.0,0.020805316045880318
6.0,0.019568003714084625
7.0,0.01847383752465248
8.0,0.01743059791624546
9.0,0.0164794921875
10.0,0.015614339150488377
11.0,0.014844948425889015
12.0,0.01410046685487032
13.0,0.013418537564575672
14.0,0.01282099075615406
15.0,0.01227273978292942
16.0,0.011759264394640923
18.0,0.010907787829637527
20.0,0.010038847103714943
22.0,0.009314481168985367
24.0,0.008689445443451405
26.0,0.008180798031389713
28.0,0.00777832418680191
30.0,0.007480517495423555
32.0,0.007234436459839344
36.0,0.0068824090994894505
40.0,0.006571434438228607
44.0,0.0061540971510112286
48.0,0.005749932490289211
52.0,0.005370559636503458
56.0,0.005204015877097845
60.0,0.005101463291794062
64.0,0.005003119818866253
72.0,0.0047808242961764336
80.0,0.004067285917699337
88.0,0.003360617905855179
96.0,0.0028140093199908733
104.0,0.0024392043706029654
112.0,0.002257668413221836
120.0,0.0024118481669574976
128.0,0.0021618488244712353
144.0,0.002067089779302478
160.0,0.0015161657938733697
176.0,0.0011342020006850362
192.0,0.00044781636097468436
208.0,0.0006515132263302803
224.0,0.0003695682971738279
240.0,-5.023441553930752e-05
256.0,5.0065424147760496e-05
288.0,0.0008261559414677322
320.0,0.0007518985075876117
352.0,0.0009328332962468266
384.0,0.00025885889772325754
416.0,-1.3251660675450694e-05
448.0,-0.00036920307320542634
480.0,-0.0005990301142446697
512.0,0.00012583880743477494
576.0,0.00016131866141222417
640.0,0.0009522760519757867
704.0,0.001010432606562972
768.0,0.00127686420455575
832.0,-0.000224445597268641
896.0,-0.0006273140315897763
960.0,-0.0012416471727192402
1024.0,-0.001852255081757903
1152.0,-0.0014148635091260076
1280.0,5.1175524276914075e-05
1408.0,-0.0003961781330872327
1536.0,-4.698869088315405e-05
1664.0,-3.34042233589571e-05
1792.0,-0.00015970756066963077
1920.0,0.001535844523459673
2048.0,0.000367151660611853
2304.0,0.00021117915457580239
2560.0,-0.0002790555008687079
2816.0,-0.0003253155155107379
3072.0,-0.0003066237550228834
3328.0,0.00031912841950543225
3584.0,0.0010447350796312094
3840.0,-0.000236578838666901
4096.0,-0.0003941171453334391
4608.0,-0.0013849306851625443
5120.0,-0.001295040943659842
5632.0,-0.0015995962312445045
6144.0,0.0005704601644538343
6656.0,0.0008258458110503852
7168.0,-0.001160349347628653
7680.0,-0.0015236412873491645
8192.0,0.0009895883267745376
end
