version,3.0
numOfCh,1
type,point
parent_name,ff67b_1dot0-1dot0
ch_type,1_1
kcount,1
numberNandB,1
brightnessNandB,1
carpet pos,0
pc,0
Time (ms),CH1 Auto-Correlation
1.0,0.02705247700214386
2.0,0.024852115660905838
3.0,0.023052943870425224
4.0,0.02147144079208374
5.0,0.020116249099373817
6.0,0.018983248621225357
7.0,0.01795273832976818
8.0,0.017104098573327065
9.0,0.01629149354994297
10.0,0.015594628639519215
11.0,0.014952410943806171
12.0,0.014363791793584824
13.0,0.01379011943936348
14.0,0.013160179369151592
15.0,0.012586495839059353
16.0,0.01204410195350647
18.0,0.011022694408893585
20.0,0.010175232775509357
22.0,0.009563583880662918
24.0,0.009094469249248505
26.0,0.008689279668033123
28.0,0.008249509148299694
30.0,0.0078112781047821045
32.0,0.007425631396472454
36.0,0.006777266506105661
40.0,0.006457164883613586
44.0,0.00619896687567234
48.0,0.005743370391428471
52.0,0.005413916427642107
56.0,0.005154440179467201
60.0,0.004738401155918837
64.0,0.004198942333459854
72.0,0.003422555746510625
80.0,0.0027735393960028887
88.0,0.0023586770985275507
96.0,0.0021190026309341192
104.0,0.0018679165514186025
112.0,0.0016767119523137808
120.0,0.0015906015178188682
128.0,0.0015373143833130598
144.0,0.00044782549957744777
160.0,-0.0003000349970534444
176.0,-5.446295108413324e-05
192.0,-2.651114073159988e-06
208.0,0.00046571079292334616
224.0,0.0007622734410688281
240.0,0.0009190812706947327
256.0,0.0012572368141263723
288.0,0.001385327777825296
320.0,0.0002880255342461169
352.0,5.685481664841063e-05
384.0,-0.00013550181756727397
416.0,-0.001269773580133915
448.0,-0.0014729665126651525
480.0,-0.0020344601944088936
512.0,-0.0013175063068047166
576.0,-0.000863912922795862
640.0,0.00013095613394398242
704.0,-0.0010841765906661749
768.0,-0.0007972184685058892
832.0,0.00032331093098036945
896.0,0.0002511290367692709
960.0,-0.00041056404006667435
1024.0,-0.0003047333739232272
1152.0,-0.0009547318913973868
1280.0,-0.000320623250445351
1408.0,0.0006979593890719116
1536.0,0.0009042997262440622
1664.0,-0.0005049190949648619
1792.0,0.0013257446698844433
1920.0,0.0004936403129249811
2048.0,0.0002482039271853864
2304.0,0.00042849028250202537
2560.0,-3.719854794326238e-05
2816.0,7.1179174483404495e-06
3072.0,0.0004213646752759814
3328.0,-0.0007309853099286556
3584.0,-0.0014236194547265768
3840.0,-0.0003908520156983286
4096.0,0.0004522576055023819
4608.0,0.0001903449447127059
5120.0,9.67357336776331e-05
5632.0,-0.0005183428293094039
6144.0,7.51739353290759e-05
6656.0,5.555199095397256e-06
7168.0,0.00022425885254051536
7680.0,-0.000947538239415735
8192.0,-0.00206007924862206
end
