version,3.0
numOfCh,1
type,point
parent_name,ff67b_1dot0-1dot0
ch_type,1_1
kcount,1
numberNandB,1
brightnessNandB,1
carpet pos,0
pc,0
Time (ms),CH1 Auto-Correlation
1.0,0.028698492795228958
2.0,0.02591126784682274
3.0,0.023813962936401367
4.0,0.02230587787926197
5.0,0.02067584916949272
6.0,0.019071154296398163
7.0,0.017516789957880974
8.0,0.0166391059756279
9.0,0.015836462378501892
10.0,0.015098880045115948
11.0,0.014407922513782978
12.0,0.013791501522064209
13.0,0.01328683365136385
14.0,0.012788008898496628
15.0,0.012323499657213688
16.0,0.011867158114910126
18.0,0.010962314903736115
20.0,0.010166832245886326
22.0,0.009525426663458347
24.0,0.008918862789869308
26.0,0.008320479653775692
28.0,0.00788227841258049
30.0,0.007393176667392254
32.0,0.0069355349987745285
36.0,0.0059510464780032635
40.0,0.005285437218844891
44.0,0.004868310876190662
48.0,0.004454136360436678
52.0,0.004223264288157225
56.0,0.0038065870758146048
60.0,0.003586401930078864
64.0,0.0034285360015928745
72.0,0.0028773359954357147
80.0,0.002534880070015788
88.0,0.001857911003753543
96.0,0.0014048219891265035
104.0,0.001110020442865789
112.0,0.001008310355246067
120.0,0.0011989877093583345
128.0,0.0015230720164254308
144.0,0.001074519706889987
160.0,0.00028897865558974445
176.0,0.0005339835188351572
192.0,0.00027599651366472244
208.0,-0.00021817379456479102
224.0,-0.0003685100527945906
240.0,-0.0007692701765336096
256.0,-0.0011379560455679893
288.0,-0.0009782889392226934
320.0,-9.97688330244273e-05
352.0,0.00011148125486215577
384.0,0.0003391597419977188
416.0,0.0010837516747415066
448.0,0.0019185738638043404
480.0,0.001202444196678698
512.0,-8.776860340731218e-05
576.0,-0.001030360464937985
640.0,-0.0009343543788418174
704.0,-0.0012190440902486444
768.0,-0.0013964446261525154
832.0,-0.0005278113530948758
896.0,-0.001040017232298851
960.0,9.178360051009804e-05
1024.0,-0.0004298592102713883
1152.0,-0.0015683503588661551
1280.0,-0.0013122889213263988
1408.0,0.00018606007506605238
1536.0,0.0005984881427139044
1664.0,-0.0009152339771389961
1792.0,6.0546946770045906e-05
1920.0,-0.00019776665430981666
2048.0,-0.0007030749693512917
2304.0,7.319776341319084e-05
2560.0,0.00018113480473402888
2816.0,-5.5629083362873644e-05
3072.0,1.4439773622143548e-05
3328.0,0.00041045970283448696
3584.0,0.0003397913242224604
3840.0,-0.00016021280316635966
4096.0,-0.0004586318100336939
4608.0,0.00026426900876685977
5120.0,0.0006181977223604918
5632.0,-0.0005138648557476699
6144.0,-0.0001928008859977126
6656.0,-0.0008099194965325296
7168.0,-7.877888856455684e-05
7680.0,0.0010895314626395702
8192.0,0.000692343688569963
end
