version,3.0
numOfCh,1
type,point
parent_name,ff67b_1dot0-1dot0
ch_type,1_1
kcount,1
numberNandB,1
brightnessNandB,1
carpet pos,0
pc,0
Time (ms),CH1 Auto-Correlation
1.0,0.027273662388324738
2.0,0.025127166882157326
3.0,0.02334025502204895
4.0,0.021803278475999832
5.0,0.02046196721494198
6.0,0.019185451790690422
7.0,0.018003860488533974
8.0,0.016937891021370888
9.0,0.016006004065275192
10.0,0.015140417031943798
11.0,0.01439867727458477
12.0,0.013647881336510181
13.0,0.012948836199939251
14.0,0.012282056733965874
15.0,0.0117149343714118
16.0,0.011228742077946663
18.0,0.010238490998744965
20.0,0.00936406571418047
22.0,0.008535550907254219
24.0,0.007868941873311996
26.0,0.007258077617734671
28.0,0.006649833172559738
30.0,0.006127930711954832
32.0,0.005551221780478954
36.0,0.004780184477567673
40.0,0.004204209428280592
44.0,0.0035924080293625593
48.0,0.0029987460002303123
52.0,0.002441626274958253
56.0,0.0018999569583684206
60.0,0.0015566134825348854
64.0,0.0013234018115326762
72.0,0.0011012406321242452
80.0,0.0010722641600295901
88.0,0.0009560873731970787
96.0,0.0008281764457933605
104.0,0.0006189160048961639
112.0,0.00029464130057021976
120.0,0.00010315802501281723
128.0,-9.112220141105354e-05
144.0,-0.0005657210131175816
160.0,-0.0006120441248640418
176.0,-0.0004415944858919829
192.0,-0.00038984231650829315
208.0,-0.0007976414053700864
224.0,-6.23135783826001e-05
240.0,0.00048204947961494327
256.0,0.000654510862659663
288.0,0.00040842039743438363
320.0,-0.0003865092294290662
352.0,-0.00011195819388376549
384.0,-0.0013589038280770183
416.0,-0.0012078938307240605
448.0,-0.0008265667129307985
480.0,-0.0006535809952765703
512.0,-0.0006686842534691095
576.0,-0.0003385093295946717
640.0,0.0006516359280794859
704.0,0.00046614036546088755
768.0,-0.0010741950245574117
832.0,0.00024149166711140424
896.0,-0.0008843181421980262
960.0,0.00039362668758258224
1024.0,6.35964679531753e-05
1152.0,-0.00012432356015779078
1280.0,0.0016644367715343833
1408.0,-0.0009315636707469821
1536.0,0.0005701552145183086
1664.0,-0.0010563317919149995
1792.0,-0.0013439888134598732
1920.0,0.00032975783688016236
2048.0,-0.0011136443354189396
2304.0,0.00010373151599196717
2560.0,0.00038436445174738765
2816.0,-0.0006809703190810978
3072.0,-0.0007979070069268346
3328.0,0.00020039579248987138
3584.0,-4.4007036194670945e-05
3840.0,3.085202843067236e-05
4096.0,-9.396675159223378e-05
4608.0,-2.324780507478863e-05
5120.0,0.0008370827417820692
5632.0,0.0004850421682931483
6144.0,-0.0007888812106102705
6656.0,-0.00025747096515260637
7168.0,-0.0009834201773628592
7680.0,7.935770554468036e-05
8192.0,0.00038731572567485273
end
