version,3.0
numOfCh,1
type,point
parent_name,ff67b_1dot0-1dot0
ch_type,1_1
kcount,1
numberNandB,1
brightnessNandB,1
carpet pos,0
pc,0
Time (ms),CH1 Auto-Correlation
1.0,0.0258018858730793
2.0,0.023645011708140373
3.0,0.021865935996174812
4.0,0.020325763151049614
5.0,0.018996279686689377
6.0,0.017859503626823425
7.0,0.016825398430228233
8.0,0.01586396060883999
9.0,0.01497043389827013
10.0,0.014185747131705284
11.0,0.013438621535897255
12.0,0.012777496129274368
13.0,0.012137248180806637
14.0,0.011623173020780087
15.0,0.011078511364758015
16.0,0.010514841414988041
18.0,0.00939180888235569
20.0,0.008488385006785393
22.0,0.007812662981450558
24.0,0.007249041460454464
26.0,0.006809636950492859
28.0,0.006425289902836084
30.0,0.00614789268001914
32.0,0.005927359685301781
36.0,0.005520435515791178
40.0,0.00509439455345273
44.0,0.004720359109342098
48.0,0.004338040016591549
52.0,0.0041314600966870785
56.0,0.003954628482460976
60.0,0.003822862636297941
64.0,0.003599814372137189
72.0,0.003500977996736765
80.0,0.003503472311422229
88.0,0.0034777026157826185
96.0,0.003298999974504113
104.0,0.0024567279033362865
112.0,0.0019784271717071533
120.0,0.001780325430445373
128.0,0.0015026459004729986
144.0,0.0010941908694803715
160.0,0.0009408537298440933
176.0,0.0013284719316288829
192.0,0.0013771018711850047
208.0,0.0006913462420925498
224.0,-0.0001337062130915001
240.0,-0.0001451799034839496
256.0,-0.00017004301480483264
288.0,0.00015607710520271212
320.0,0.0007196554797701538
352.0,0.0004526081611402333
384.0,0.0009868813212960958
416.0,0.00044550898019224405
448.0,0.0004696725227404386
480.0,0.0008308486430905759
512.0,0.001342881005257368
576.0,3.5402841604081914e-05
640.0,-0.000984805985353887
704.0,9.645785758038983e-05
768.0,-0.0004545169067569077
832.0,-0.0011955649824813008
896.0,-0.00038027705159038305
960.0,-0.00047788670053705573
1024.0,-0.000391067675082013
1152.0,-0.0005233841366134584
1280.0,0.0004906546673737466
1408.0,0.00046708769514225423
1536.0,3.942094917874783e-05
1664.0,-5.339115523383953e-05
1792.0,-4.680562051362358e-05
1920.0,-0.0007815136923454702
2048.0,-0.0009675085893832147
2304.0,-0.0004620726394932717
2560.0,-0.00033024235744960606
2816.0,-0.0012214460875838995
3072.0,-0.00046067454968579113
3328.0,0.0003687111020553857
3584.0,-0.00027426754240877926
3840.0,0.0008103534928523004
4096.0,-0.00023986806627362967
4608.0,5.691012120223604e-05
5120.0,-0.0011391075095161796
5632.0,0.00016087449330370873
6144.0,0.0005514453514479101
6656.0,-0.00035913483588956296
7168.0,-9.025180770549923e-05
7680.0,0.0011227038921788335
8192.0,-0.00010101577936438844
end
