version,3.0
numOfCh,1
type,point
parent_name,ff67b_1dot0-1dot0
ch_type,1_1
kcount,1
numberNandB,1
brightnessNandB,1
carpet pos,0
pc,0
Time (ms),CH1 Auto-Correlation
1.0,0.027672750875353813
2.0,0.025339066982269287
3.0,0.0233024749904871
4.0,0.02167343907058239
5.0,0.020200863480567932
6.0,0.018915224820375443
7.0,0.01775723695755005
8.0,0.016699502244591713
9.0,0.015776079148054123
10.0,0.014860991388559341
11.0,0.014061913825571537
12.0,0.013358482159674168
13.0,0.012766633182764053
14.0,0.01227661781013012
15.0,0.011798064224421978
16.0,0.011309432797133923
18.0,0.010484777390956879
20.0,0.009829052723944187
22.0,0.00921866949647665
24.0,0.008617296814918518
26.0,0.008174087852239609
28.0,0.007828634232282639
30.0,0.0075500779785215855
32.0,0.007153626065701246
36.0,0.006331692449748516
40.0,0.005848831031471491
44.0,0.005656554829329252
48.0,0.005224363878369331
52.0,0.004628627095371485
56.0,0.004266626667231321
60.0,0.0039450740441679955
64.0,0.0037583387456834316
72.0,0.003957720007747412
80.0,0.004024233669042587
88.0,0.003726947819814086
96.0,0.003312321612611413
104.0,0.0029380791820585728
112.0,0.0026220367290079594
120.0,0.002402911428362131
128.0,0.002364321146160364
144.0,0.002145894104614854
160.0,0.0027578233275562525
176.0,0.003042852971702814
192.0,0.002974635921418667
208.0,0.0016030711121857166
224.0,0.001387723837979138
240.0,0.00040441047167405486
256.0,0.00026898158830590546
288.0,0.0015618962934240699
320.0,0.0023396199103444815
352.0,0.0028093047440052032
384.0,0.0012145406799390912
416.0,3.0369885735126445e-06
448.0,0.0002475745277479291
480.0,0.00029163365252316
512.0,0.0006213958840817213
576.0,-0.0007583451224491
640.0,-0.0004223812429700047
704.0,7.780157829984091e-06
768.0,-0.0011236529098823667
832.0,-0.0021615007426589727
896.0,-0.0008582894806750119
960.0,-4.7985275159589946e-05
1024.0,0.000926608219742775
1152.0,-0.00021915209072176367
1280.0,-0.001382022863253951
1408.0,-0.00145975430496037
1536.0,-0.0002741182397585362
1664.0,-0.0009421607246622443
1792.0,-0.0009788229363039136
1920.0,-0.0014334380393847823
2048.0,-0.0010161224054172635
2304.0,-0.0009049386717379093
2560.0,0.00046142039354890585
2816.0,0.0006497009890154004
3072.0,-5.6770066294120625e-05
3328.0,0.0005867135478183627
3584.0,0.000263186200754717
3840.0,0.0018295717891305685
4096.0,0.001190753886476159
4608.0,0.0006442480953410268
5120.0,-0.0007841065526008606
5632.0,-0.0025066956877708435
6144.0,-0.0012803857680410147
6656.0,0.0006078605074435472
7168.0,0.0011752608697861433
7680.0,0.0002201315510319546
8192.0,0.0009636128670535982
end
