version,3.0
numOfCh,1
type,point
parent_name,ff67b_1dot0-1dot0
ch_type,1_1
kcount,1
numberNandB,1
brightnessNandB,1
carpet pos,0
pc,0
Time (ms),CH1 Auto-Correlation
1.0,0.03003796376287937
2.0,0.027866192162036896
3.0,0.026006966829299927
4.0,0.024404233321547508
5.0,0.022956427186727524
6.0,0.021623514592647552
7.0,0.02041737735271454
8.0,0.019341599196195602
9.0,0.01830958016216755
10.0,0.017358679324388504
11.0,0.016498012468218803
12.0,0.015737401321530342
13.0,0.015076464042067528
14.0,0.014546140097081661
15.0,0.014032676815986633
16.0,0.013432959094643593
18.0,0.012522412464022636
20.0,0.011839519254863262
22.0,0.01117605622857809
24.0,0.010538088157773018
26.0,0.009969141334295273
28.0,0.009443439543247223
30.0,0.008962377905845642
32.0,0.008592388592660427
36.0,0.008055206388235092
40.0,0.007447883486747742
44.0,0.0067504411563277245
48.0,0.0063757989555597305
52.0,0.00587679585441947
56.0,0.005533126182854176
60.0,0.005044767167419195
64.0,0.004416510462760925
72.0,0.0035153909120708704
80.0,0.0023038601502776146
88.0,0.0013890762347728014
96.0,0.0015041074948385358
104.0,0.0016578570939600468
112.0,0.002152755856513977
120.0,0.002486112527549267
128.0,0.0026413467712700367
144.0,0.0030419090762734413
160.0,0.002976449439302087
176.0,0.0028864461928606033
192.0,0.0022947401739656925
208.0,0.0014022431569173932
224.0,-0.00018993196135852486
240.0,-0.0013436715817078948
256.0,-0.0015094986883923411
288.0,9.319941455032676e-05
320.0,-0.000188811362022534
352.0,-0.001103484071791172
384.0,-0.0011003530817106366
416.0,-0.0016976670594885945
448.0,-0.0011932714842259884
480.0,-0.00187415920663625
512.0,-0.00228313566185534
576.0,-0.0016972845187410712
640.0,-0.0005256034201011062
704.0,0.00037392720696516335
768.0,0.0016626748256385326
832.0,0.0018811679910868406
896.0,0.0016738658305257559
960.0,-0.000129923879285343
1024.0,-0.00023848317505326122
1152.0,-0.0014873327454552054
1280.0,-0.0018492909148335457
1408.0,-0.00031224885606206954
1536.0,0.0015203409129753709
1664.0,0.0007349163061007857
1792.0,0.0009137577144429088
1920.0,0.0005326247774064541
2048.0,-0.0017281327163800597
2304.0,0.00047297176206484437
2560.0,0.00022646471916232258
2816.0,-0.0010852910345420241
3072.0,-0.0005539302946999669
3328.0,0.0001671087957220152
3584.0,0.00033281094511039555
3840.0,0.0007460301276296377
4096.0,-6.93638576194644e-05
4608.0,-0.0010128931608051062
5120.0,-0.00030946717015467584
5632.0,-0.00023349518596660346
6144.0,6.134451541583985e-05
6656.0,-0.0009076534188352525
7168.0,0.00022806768538430333
7680.0,1.927429184434004e-05
8192.0,-0.0007435739389620721
end
