version,3.0
numOfCh,1
type,point
parent_name,ff67b_1dot0-1dot0
ch_type,1_1
kcount,1
numberNandB,1
brightnessNandB,1
carpet pos,0
pc,0
Time (ms),CH1 Auto-Correlation
1.0,0.02365809865295887
2.0,0.02156480960547924
3.0,0.0197873804718256
4.0,0.01824181154370308
5.0,0.016884515061974525
6.0,0.01564796268939972
7.0,0.01455079298466444
8.0,0.0136404475197196
9.0,0.012920328415930271
10.0,0.012288947589695454
11.0,0.011763918213546276
12.0,0.011283671483397484
13.0,0.010818124748766422
14.0,0.010377932339906693
15.0,0.009997137822210789
16.0,0.009662456810474396
18.0,0.009087021462619305
20.0,0.008532979525625706
22.0,0.008007281459867954
24.0,0.007553114090114832
26.0,0.0071988217532634735
28.0,0.006870551034808159
30.0,0.006570085883140564
32.0,0.006204666569828987
36.0,0.0055807786993682384
40.0,0.004995653871446848
44.0,0.0044978405348956585
48.0,0.004043953027576208
52.0,0.003628901671618223
56.0,0.003357952693477273
60.0,0.003187398426234722
64.0,0.00306639913469553
72.0,0.002533771563321352
80.0,0.0019601620733737946
88.0,0.0021465960890054703
96.0,0.002049150178208947
104.0,0.0017625261098146439
112.0,0.0018210267880931497
120.0,0.0018495552940294147
128.0,0.001983208116143942
144.0,0.0018772248877212405
160.0,0.001814081333577633
176.0,0.0019331013318151236
192.0,0.0012960050953552127
208.0,0.0008932380005717278
224.0,0.0004894225276075304
240.0,-0.00010929325799224898
256.0,-0.0002581348817329854
288.0,0.0008723933715373278
320.0,0.0009329432505182922
352.0,0.00023205610341392457
384.0,4.720400465885177e-05
416.0,0.00045406186836771667
448.0,0.0006571230478584766
480.0,0.001189334667287767
512.0,0.0008808705606497824
576.0,0.0014070291072130203
640.0,0.0011969004990532994
704.0,0.00015813409117981791
768.0,0.0006186851533129811
832.0,0.0011804979294538498
896.0,0.00020790788403246552
960.0,0.0009620331111364067
1024.0,0.0003038457944057882
1152.0,0.0006286789430305362
1280.0,0.0007752134697511792
1408.0,0.0004532120656222105
1536.0,-0.0010603835107758641
1664.0,-7.225544686662033e-05
1792.0,-2.3707174477749504e-05
1920.0,-0.0005729810800403357
2048.0,-0.0013103827368468046
2304.0,-0.0013845503563061357
2560.0,-0.0017620307626202703
2816.0,-0.0017679875018075109
3072.0,-0.0008852819446474314
3328.0,-0.0008239360759034753
3584.0,-0.0007108902791514993
3840.0,-0.0006211661384440958
4096.0,-0.000798670225776732
4608.0,0.00040300548425875604
5120.0,0.00037505614454858005
5632.0,0.0007504949462600052
6144.0,0.000695719092618674
6656.0,-6.630610005231574e-05
7168.0,9.776682418305427e-05
7680.0,-0.0002291872660862282
8192.0,0.0004282826848793775
end
