version,3.0
numOfCh,1
type,point
parent_name,ff67b_1dot0-1dot0
ch_type,1_1
kcount,1
numberNandB,1
brightnessNandB,1
carpet pos,0
pc,0
Time (ms),CH1 Auto-Correlation
1.0,0.028735259547829628
2.0,0.026443811133503914
3.0,0.02451072447001934
4.0,0.02300695702433586
5.0,0.021631022915244102
6.0,0.02040879800915718
7.0,0.019346782937645912
8.0,0.01845303364098072
9.0,0.017557509243488312
10.0,0.016727857291698456
11.0,0.01600664295256138
12.0,0.015265582129359245
13.0,0.014605623669922352
14.0,0.014027788303792477
15.0,0.013519314117729664
16.0,0.012981764040887356
18.0,0.01217892486602068
20.0,0.011507086455821991
22.0,0.01069966796785593
24.0,0.009999722242355347
26.0,0.009439731016755104
28.0,0.009008167311549187
30.0,0.008602973073720932
32.0,0.008114736527204514
36.0,0.007218968588858843
40.0,0.006680567283183336
44.0,0.006400188431143761
48.0,0.006026734597980976
52.0,0.005626662168651819
56.0,0.0052492753602564335
60.0,0.005199540872126818
64.0,0.005084518808871508
72.0,0.004885091912001371
80.0,0.004831765778362751
88.0,0.005056131165474653
96.0,0.005127751734107733
104.0,0.0052362363785505295
112.0,0.005262084770947695
120.0,0.004865857772529125
128.0,0.004218619782477617
144.0,0.003071935148909688
160.0,0.002703760052099824
176.0,0.0017282316694036126
192.0,0.0012303871335461736
208.0,0.0010689825285226107
224.0,0.0010794111294671893
240.0,0.000949156703427434
256.0,0.0012134407879784703
288.0,0.000212877566809766
320.0,-0.000372078618966043
352.0,0.00028113415464758873
384.0,0.001128591364249587
416.0,0.0006204206729307771
448.0,0.00016704188601579517
480.0,-0.00016785573097877204
512.0,0.00032480890513397753
576.0,0.00031930592376738787
640.0,-0.00017834377649705857
704.0,0.00034195647458545864
768.0,-0.0021225097589194775
832.0,-0.0011529232142493129
896.0,-0.0019905015360563993
960.0,-0.0005682468763552606
1024.0,-0.0016925630625337362
1152.0,-0.0003683656395878643
1280.0,-0.0005198860308155417
1408.0,-0.0005450855824165046
1536.0,-0.001820517354644835
1664.0,-0.0010888120159506798
1792.0,-0.0002178264403482899
1920.0,3.225280306651257e-05
2048.0,-0.0013817449798807502
2304.0,5.624067853204906e-05
2560.0,-0.0011203082976862788
2816.0,0.0009001949219964445
3072.0,-0.00026308922679163516
3328.0,0.002792021492496133
3584.0,0.0035373561549931765
3840.0,0.0010212922934442759
4096.0,0.0006276957574300468
4608.0,-0.0005709866527467966
5120.0,-0.001532163587398827
5632.0,-0.0010737554403021932
6144.0,0.0006909062503837049
6656.0,0.0008587285410612822
7168.0,0.0006365618319250643
7680.0,-0.0006230575381778181
8192.0,8.65130132297054e-05
end
