version,3.0
numOfCh,1
type,point
parent_name,ff67b_1dot0-1dot0
ch_type,1_1
kcount,1
numberNandB,1
brightnessNandB,1
carpet pos,0
pc,0
Time (ms),CH1 Auto-Correlation
1.0,0.02758488431572914
2.0,0.02537408098578453
3.0,0.023448839783668518
4.0,0.021799033507704735
5.0,0.02033005654811859
6.0,0.019047148525714874
7.0,0.017934195697307587
8.0,0.016922492533922195
9.0,0.015961360186338425
10.0,0.015182806178927422
11.0,0.014467056840658188
12.0,0.013753741048276424
13.0,0.013130397535860538
14.0,0.012489879503846169
15.0,0.011961175128817558
16.0,0.011381510645151138
18.0,0.010363291949033737
20.0,0.009636186063289642
22.0,0.00891788024455309
24.0,0.008111298084259033
26.0,0.007356211543083191
28.0,0.006870859768241644
30.0,0.006485843565315008
32.0,0.006161006633192301
36.0,0.005441215820610523
40.0,0.004826188553124666
44.0,0.0042443410493433475
48.0,0.0036357531789690256
52.0,0.003449283540248871
56.0,0.003025252837687731
60.0,0.002497011097148061
64.0,0.0023554216604679823
72.0,0.0021609063260257244
80.0,0.0017098808893933892
88.0,0.0016374848783016205
96.0,0.001757608843035996
104.0,0.001964752096682787
112.0,0.0022803484462201595
120.0,0.002037166617810726
128.0,0.0014413304161280394
144.0,0.0017210980877280235
160.0,0.001970389625057578
176.0,0.0017231740057468414
192.0,0.0013120752992108464
208.0,1.4647977877757512e-05
224.0,-0.00020121085981372744
240.0,0.00019798630091827363
256.0,2.637782017700374e-05
288.0,0.0006486062775366008
320.0,0.0005475849029608071
352.0,0.0002421407261863351
384.0,-0.0004750806838274002
416.0,-0.0013148040743544698
448.0,-0.002182532800361514
480.0,-0.001961757428944111
512.0,-0.0017745690420269966
576.0,-0.0009438429842703044
640.0,-0.000831545505207032
704.0,-0.00043545797234401107
768.0,-0.00066801265347749
832.0,-0.0005053280619904399
896.0,-0.0006331730401143432
960.0,-0.0007895899470895529
1024.0,-0.0004704355669673532
1152.0,-2.5703291612444445e-05
1280.0,-0.00027140945894643664
1408.0,0.0005989091005176306
1536.0,7.348535291384906e-05
1664.0,0.000526013202033937
1792.0,0.001186447567306459
1920.0,0.000469894876005128
2048.0,-0.0007050902349874377
2304.0,-0.0008375519537366927
2560.0,-0.0011185432085767388
2816.0,-0.00017832945741247386
3072.0,0.0004386189393699169
3328.0,-0.0011441168608143926
3584.0,0.00012792386405635625
3840.0,0.0009994535939767957
4096.0,0.00014216087583918124
4608.0,-0.0012538076844066381
5120.0,0.00018079364963341504
5632.0,0.0008000539382919669
6144.0,-0.0002855778730008751
6656.0,8.494545909343287e-05
7168.0,1.880979834822938e-05
7680.0,0.0002600113512016833
8192.0,-0.0009188288822770119
end
