version,3.0
numOfCh,1
type,point
parent_name,ff67b_1dot0-1dot0
ch_type,1_1
kcount,1
numberNandB,1
brightnessNandB,1
carpet pos,0
pc,0
Time (ms),CH1 Auto-Correlation
1.0,0.027321191504597664
2.0,0.025244228541851044
3.0,0.023524926975369453
4.0,0.022052690386772156
5.0,0.020690634846687317
6.0,0.019486134871840477
7.0,0.018394222483038902
8.0,0.017402956262230873
9.0,0.01655043661594391
10.0,0.01573246158659458
11.0,0.014974026940762997
12.0,0.014312297105789185
13.0,0.013682538643479347
14.0,0.013174036517739296
15.0,0.012726947665214539
16.0,0.012244435958564281
18.0,0.011332061141729355
20.0,0.01054736040532589
22.0,0.010015660896897316
24.0,0.00957469455897808
26.0,0.009254119358956814
28.0,0.008950779214501381
30.0,0.00851534865796566
32.0,0.008085976354777813
36.0,0.007390892133116722
40.0,0.007057819981127977
44.0,0.006784589029848576
48.0,0.006330444477498531
52.0,0.006077488884329796
56.0,0.005705735180526972
60.0,0.0055253044702112675
64.0,0.00544397346675396
72.0,0.004859362728893757
80.0,0.004192275460809469
88.0,0.004066605120897293
96.0,0.0036140200681984425
104.0,0.0027440304402261972
112.0,0.0023417824413627386
120.0,0.001888236845843494
128.0,0.001309690997004509
144.0,0.0005603940808214247
160.0,0.0002923026622738689
176.0,-0.0006082239560782909
192.0,-0.0006772986962459981
208.0,-0.0002565305621828884
224.0,-0.0004536875640042126
240.0,-0.0003963337221648544
256.0,-0.0005348050035536289
288.0,-0.0005972774233669043
320.0,-0.0013479285407811403
352.0,-0.001370249898172915
384.0,-0.0019691302441060543
416.0,-0.002485978417098522
448.0,-0.002022103639319539
480.0,-0.0008318967302329838
512.0,-0.0008832953171804547
576.0,6.0769434639951214e-05
640.0,2.0118486645515077e-05
704.0,0.001096687512472272
768.0,0.0011896280338987708
832.0,0.0012798530515283346
896.0,0.0016283363802358508
960.0,0.0014133870135992765
1024.0,-0.000566498376429081
1152.0,-0.00016374037659261376
1280.0,-8.733911818126217e-05
1408.0,0.0013427425874397159
1536.0,0.0003965277865063399
1664.0,-0.0005023357225582004
1792.0,-0.00027971543022431433
1920.0,-0.000992588815279305
2048.0,-0.00013407986261881888
2304.0,4.5761303226754535e-06
2560.0,0.0009921456221491098
2816.0,-0.0012087522773072124
3072.0,0.0010266625322401524
3328.0,0.00038759096059948206
3584.0,0.0002573512902017683
3840.0,-0.0008951629279181361
4096.0,0.0011509173782542348
4608.0,-0.00020283227786421776
5120.0,-0.0005160543951205909
5632.0,0.0004948644200339913
6144.0,-0.0002823331451509148
6656.0,-0.0008874611812643707
7168.0,0.00020934002532158047
7680.0,-0.0010620206594467163
8192.0,-0.00016731796495150775
end
