version,3.0
numOfCh,1
type,point
parent_name,ff67b_1dot0-1dot0
ch_type,1_1
kcount,1
numberNandB,1
brightnessNandB,1
carpet pos,0
pc,0
Time (ms),CH1 Auto-Correlation
1.0,0.02927739918231964
2.0,0.027126766741275787
3.0,0.02524670958518982
4.0,0.02359919808804989
5.0,0.02207711711525917
6.0,0.02077486738562584
7.0,0.019582584500312805
8.0,0.018496084958314896
9.0,0.01749250665307045
10.0,0.01667715422809124
11.0,0.015938393771648407
12.0,0.015222178772091866
13.0,0.014571735635399818
14.0,0.013994621112942696
15.0,0.013438351452350616
16.0,0.012950313277542591
18.0,0.012025732547044754
20.0,0.011316400952637196
22.0,0.010671109892427921
24.0,0.010139062069356441
26.0,0.009662112221121788
28.0,0.00914963148534298
30.0,0.00873834453523159
32.0,0.008343014866113663
36.0,0.007542601320892572
40.0,0.006650970317423344
44.0,0.0058972095139324665
48.0,0.005180807784199715
52.0,0.004696189425885677
56.0,0.0042886617593467236
60.0,0.003865625010803342
64.0,0.0036809633020311594
72.0,0.003623798256739974
80.0,0.0033535915426909924
88.0,0.002701663412153721
96.0,0.0020899309311062098
104.0,0.0015317278448492289
112.0,0.0014916799264028668
120.0,0.0013672049390152097
128.0,0.0013456600718200207
144.0,0.0012295679189264774
160.0,0.0016100492794066668
176.0,0.0020204689353704453
192.0,0.002236955100670457
208.0,0.0025833214167505503
224.0,0.0022662945557385683
240.0,0.0017752174753695726
256.0,0.000997338560409844
288.0,0.0004770891391672194
320.0,0.00028196597122587264
352.0,-0.0008041311521083117
384.0,-0.0008876762585714459
416.0,-0.0003860589349642396
448.0,-0.0008079648832790554
480.0,-0.002189008751884103
512.0,-0.0008047152077779174
576.0,0.0009942194446921349
640.0,-0.0001480782957514748
704.0,-0.001769990543834865
768.0,-0.0011696632718667388
832.0,-0.00015428349433932453
896.0,-0.00017213320825248957
960.0,-0.0004296164261177182
1024.0,0.00017970237240660936
1152.0,0.0005627491045743227
1280.0,-0.0003595698217395693
1408.0,0.0008243612246587873
1536.0,0.001118835643865168
1664.0,0.0012537885922938585
1792.0,-0.0006554825813509524
1920.0,-0.0018215032760053873
2048.0,-0.0010145598789677024
2304.0,0.0004274180391803384
2560.0,-9.300457350036595e-06
2816.0,4.136703137191944e-05
3072.0,0.0015525941271334887
3328.0,-0.000941253500059247
3584.0,-0.0003431282821111381
3840.0,0.0016489700647071004
4096.0,0.0005350752617232502
4608.0,0.0003813400398939848
5120.0,-0.0002725140075199306
5632.0,-0.0003755487850867212
6144.0,0.0013467806857079268
6656.0,-0.0006736136274412274
7168.0,-0.0015261757653206587
7680.0,0.0011447962606325746
8192.0,-0.0009487725328654051
end
