version,3.0
numOfCh,1
type,point
parent_name,ff67b_1dot0-1dot0
ch_type,1_1
kcount,1
numberNandB,1
brightnessNandB,1
carpet pos,0
pc,0
Time (ms),CH1 Auto-Correlation
1.0,0.02643030695617199
2.0,0.02424885705113411
3.0,0.022327851504087448
4.0,0.020654164254665375
5.0,0.019228484481573105
6.0,0.017936034128069878
7.0,0.0167239923030138
8.0,0.015719817951321602
9.0,0.014880457893013954
10.0,0.014071822166442871
11.0,0.013338718563318253
12.0,0.012678955681622028
13.0,0.012054643593728542
14.0,0.011493558064103127
15.0,0.01101885735988617
16.0,0.010527481324970722
18.0,0.009677702561020851
20.0,0.008915839716792107
22.0,0.008253834210336208
24.0,0.007682329043745995
26.0,0.007093637716025114
28.0,0.006665006745606661
30.0,0.006268932018429041
32.0,0.005959711968898773
36.0,0.005422047805041075
40.0,0.004968695808202028
44.0,0.004225913900882006
48.0,0.0035553649067878723
52.0,0.003227700712159276
56.0,0.002888989867642522
60.0,0.002575846156105399
64.0,0.0024089657235890627
72.0,0.002152414992451668
80.0,0.0022503144573420286
88.0,0.0018650003476068377
96.0,0.0016574752517044544
104.0,0.001969050383195281
112.0,0.00219056848436594
120.0,0.0022915799636393785
128.0,0.002380838617682457
144.0,0.002290840959176421
160.0,0.0019495607120916247
176.0,0.0022793312091380358
192.0,0.0021384803112596273
208.0,0.0026864311657845974
224.0,0.0017830808646976948
240.0,0.0012415375094860792
256.0,0.0007489877170883119
288.0,2.721295277297031e-05
320.0,0.0004749231447931379
352.0,0.0009270469308830798
384.0,-0.00010467094398336485
416.0,-4.8129255446838215e-05
448.0,0.00036972021916881204
480.0,0.00013713844236917794
512.0,-0.00030557019636034966
576.0,0.00010092190495925024
640.0,0.0002716412127483636
704.0,-0.0004482895601540804
768.0,0.0009777313098311424
832.0,-0.0003459349100012332
896.0,0.0011909911409020424
960.0,0.0007923051598481834
1024.0,-0.0011412710882723331
1152.0,0.00019143203098792583
1280.0,0.0011286177905276418
1408.0,-0.0005441869725473225
1536.0,-0.0005674048443324864
1664.0,-0.0008454654016532004
1792.0,-0.0006104890489950776
1920.0,-0.0010738320415839553
2048.0,-0.0017159049166366458
2304.0,-0.0015402003191411495
2560.0,-0.0017045221757143736
2816.0,-0.000569101539440453
3072.0,5.727383904741146e-05
3328.0,0.00010347802890464664
3584.0,0.0012368742609396577
3840.0,4.6339904656633735e-05
4096.0,0.0008562434813939035
4608.0,0.0012947246432304382
5120.0,0.0008628188516013324
5632.0,-0.0011720738839358091
6144.0,-0.0012000089045614004
6656.0,-0.0014986138558015227
7168.0,-0.0010243169963359833
7680.0,0.00012624840019270778
8192.0,0.0009636353352107108
end
