version,3.0
numOfCh,1
type,point
parent_name,714af_3dot0-0dot1
ch_type,1_1
kcount,1
numberNandB,1
brightnessNandB,1
carpet pos,0
pc,0
Time (ms),CH1 Auto-Correlation
1.0,0.016982141882181168
2.0,0.014029396697878838
3.0,0.012022430077195168
4.0,0.010556471534073353
5.0,0.009397733956575394
6.0,0.008442209102213383
7.0,0.007601733319461346
8.0,0.00696347001940012
9.0,0.006493386812508106
10.0,0.005908980965614319
11.0,0.005294197704643011
12.0,0.004932305309921503
13.0,0.004614724311977625
14.0,0.0043594688177108765
15.0,0.004038403742015362
16.0,0.0037889343220740557
18.0,0.0034588826820254326
20.0,0.0032177227549254894
22.0,0.002933864016085863
24.0,0.0025482289493083954
26.0,0.002223653020337224
28.0,0.0022224572021514177
30.0,0.0020881083328276873
32.0,0.001807125168852508
36.0,0.001667812350206077
40.0,0.001553008216433227
44.0,0.0016926710959523916
48.0,0.0015947824576869607
52.0,0.0013251539785414934
56.0,0.0009066282073035836
60.0,0.0004754239344038069
64.0,0.0004222504503559321
72.0,0.0006327175651676953
80.0,0.00047879511839710176
88.0,0.0008554079686291516
96.0,0.0005096017266623676
104.0,0.00016227761807385832
112.0,-8.709110989002511e-05
120.0,-8.70895164553076e-05
128.0,-0.00022755860118195415
144.0,-7.765197551634628e-06
160.0,-0.00011001397069776431
176.0,7.301517325686291e-05
192.0,0.00022909911058377475
208.0,-0.0003900347510352731
224.0,-0.0006486940546892583
240.0,0.00033029020414687693
256.0,-0.0002666069194674492
288.0,-0.00029144008294679224
320.0,-3.0138082365738228e-05
352.0,-0.0004740442964248359
384.0,6.844555900897831e-05
416.0,0.0005482963752001524
448.0,0.00017532732454128563
480.0,0.00013993756147101521
512.0,-0.00046642738743685186
576.0,-0.0003591395798139274
640.0,-0.00038007518742233515
704.0,-0.000392328598536551
768.0,0.00018300683586858213
832.0,-0.00022176644415594637
896.0,-0.00015150857507251203
960.0,-0.00040979706682264805
1024.0,1.289920328417793e-05
1152.0,0.00012745801359415054
1280.0,-0.00021690480934921652
1408.0,-0.00024409485922660679
1536.0,-0.00029844100936315954
1664.0,0.00024414880317635834
1792.0,-0.0008918835665099323
1920.0,3.160436335747363e-06
2048.0,0.0002869136806111783
2304.0,-1.927809717017226e-05
2560.0,-0.0005602641613222659
2816.0,0.00026007535052485764
3072.0,0.0003369833284523338
3328.0,0.0004272747319191694
3584.0,0.00029413640731945634
3840.0,-0.00024182352353818715
4096.0,-0.0003272528701927513
4608.0,-6.805970042478293e-05
5120.0,8.506365702487528e-05
5632.0,-0.00010928102710749954
6144.0,5.131364378030412e-05
6656.0,9.991346450988203e-05
7168.0,-0.0003191573778167367
7680.0,0.00014253545668907464
8192.0,0.00023711411631666124
end
