version,3.0
numOfCh,1
type,point
parent_name,714af_3dot0-0dot1
ch_type,1_1
kcount,1
numberNandB,1
brightnessNandB,1
carpet pos,0
pc,0
Time (ms),CH1 Auto-Correlation
1.0,0.017303036525845528
2.0,0.01443020161241293
3.0,0.012373490259051323
4.0,0.01079845055937767
5.0,0.009596001356840134
6.0,0.008674150332808495
7.0,0.007913190871477127
8.0,0.007378575392067432
9.0,0.006902810651808977
10.0,0.006499670911580324
11.0,0.0059932684525847435
12.0,0.005693729966878891
13.0,0.005383595358580351
14.0,0.005074833054095507
15.0,0.0048192641697824
16.0,0.004537070170044899
18.0,0.004015131387859583
20.0,0.003857157425954938
22.0,0.003557072253897786
24.0,0.0032551991753280163
26.0,0.0030222840141505003
28.0,0.002682180842384696
30.0,0.00233635981567204
32.0,0.002230436773970723
36.0,0.0020928948651999235
40.0,0.0020476393401622772
44.0,0.00218005757778883
48.0,0.001863450976088643
52.0,0.0015112970722839236
56.0,0.001408731914125383
60.0,0.0013846553629264235
64.0,0.0015125781064853072
72.0,0.0013191677862778306
80.0,0.0012403985019773245
88.0,0.0008650450618006289
96.0,0.0005535740056075156
104.0,0.0005784912500530481
112.0,0.00045117418630979955
120.0,8.083441207418218e-05
128.0,1.4019648915564176e-05
144.0,0.0002228997618658468
160.0,5.883026460651308e-05
176.0,0.00015286549751181155
192.0,6.808483885833994e-05
208.0,-0.00023001545923762023
224.0,0.00016135064652189612
240.0,3.8933332689339295e-05
256.0,0.0003357473760843277
288.0,-2.9937720682937652e-05
320.0,0.00010333712270949036
352.0,-3.114883293164894e-05
384.0,-0.0004618328530341387
416.0,-0.0003628146951086819
448.0,-0.00025027021183632314
480.0,0.0003433049423620105
512.0,9.719605441205204e-05
576.0,-0.0004589298623614013
640.0,-0.001093789003789425
704.0,-0.0010638991370797157
768.0,-6.924955232534558e-05
832.0,0.0005808515707030892
896.0,0.0009983860654756427
960.0,0.00022534281015396118
1024.0,0.0004714659007731825
1152.0,0.00013394498091656715
1280.0,0.0003197956539224833
1408.0,9.071662498172373e-05
1536.0,-4.449011612450704e-05
1664.0,-0.0001825187646318227
1792.0,-0.0004593839112203568
1920.0,-0.00012180911289760843
2048.0,0.0004345193738117814
2304.0,0.0006750984466634691
2560.0,0.0001884617522591725
2816.0,-0.0005875956267118454
3072.0,-0.000412016554037109
3328.0,0.0003850945213343948
3584.0,0.00045139933354221284
3840.0,-0.00040025851922109723
4096.0,-0.0005913683562539518
4608.0,0.0005047246813774109
5120.0,-0.00038288015639409423
5632.0,0.0002595530531834811
6144.0,-0.00015021902800071985
6656.0,4.5455279177986085e-05
7168.0,-0.0001752041425788775
7680.0,-0.0005156800034455955
8192.0,-1.2300848538870923e-05
end
