version,3.0
numOfCh,1
type,point
parent_name,714af_3dot0-0dot1
ch_type,1_1
kcount,1
numberNandB,1
brightnessNandB,1
carpet pos,0
pc,0
Time (ms),CH1 Auto-Correlation
1.0,0.01762743853032589
2.0,0.014849231578409672
3.0,0.012895388528704643
4.0,0.011401918716728687
5.0,0.010121006518602371
6.0,0.009093577042222023
7.0,0.008218159899115562
8.0,0.007490087300539017
9.0,0.006807520054280758
10.0,0.006224011071026325
11.0,0.0057043712586164474
12.0,0.0052223666571080685
13.0,0.0048478636890649796
14.0,0.004510725382715464
15.0,0.004297868348658085
16.0,0.003996676299721003
18.0,0.0033562302123755217
20.0,0.002872823504731059
22.0,0.0022796711418777704
24.0,0.0019526814576238394
26.0,0.0018565034260973334
28.0,0.0015585289802402258
30.0,0.0013448708923533559
32.0,0.0011718394234776497
36.0,0.001134161022491753
40.0,0.000991131761111319
44.0,0.0009579744073562324
48.0,0.00093995057977736
52.0,0.0009026373736560345
56.0,0.0009171748533844948
60.0,0.0009681102819740772
64.0,0.0010208891471847892
72.0,0.0009180870838463306
80.0,0.0005888317828066647
88.0,0.00020905547717120498
96.0,0.00017929825116880238
104.0,0.00021672618458978832
112.0,0.000430017156759277
120.0,0.0006341189728118479
128.0,0.0003228586574550718
144.0,0.000448176491772756
160.0,0.0007163616828620434
176.0,0.0006299079395830631
192.0,0.0005276341107673943
208.0,0.00043439329601824284
224.0,-2.504142867110204e-05
240.0,0.00011436214845161885
256.0,0.00017678887525107712
288.0,-0.00036459387047216296
320.0,0.0005057760863564909
352.0,-2.0374185623950325e-05
384.0,-0.00029103990527801216
416.0,-0.0005319268675521016
448.0,-0.00024333639885298908
480.0,-0.00020303347264416516
512.0,-0.00048081993008963764
576.0,-6.440006836783141e-05
640.0,-0.0004450092383194715
704.0,-0.00027266706456430256
768.0,0.0004756518465001136
832.0,0.00019531695579644293
896.0,0.0006807405734434724
960.0,0.00010383764310972765
1024.0,-6.0106431192252785e-05
1152.0,-0.00035347419907338917
1280.0,0.00013989326544106007
1408.0,-0.00031963372020982206
1536.0,-0.0008683914784342051
1664.0,-0.0004419214092195034
1792.0,0.0001300694711972028
1920.0,4.6741366531932727e-05
2048.0,0.00021190087136346847
2304.0,-0.0003416087420191616
2560.0,0.00030621272162534297
2816.0,-2.243564995296765e-05
3072.0,-8.746936509851366e-05
3328.0,0.0004786937788594514
3584.0,-0.0003835524257738143
3840.0,-0.0001470037386752665
4096.0,-0.00021432884386740625
4608.0,-0.0001356707070954144
5120.0,0.0002842989924829453
5632.0,0.0002631053503137082
6144.0,-0.00022522434301208705
6656.0,-5.250651156529784e-05
7168.0,-0.0002540048735681921
7680.0,0.0002296198217663914
8192.0,-5.2923234761692584e-05
end
