version,3.0
numOfCh,1
type,point
parent_name,714af_3dot0-0dot1
ch_type,1_1
kcount,1
numberNandB,1
brightnessNandB,1
carpet pos,0
pc,0
Time (ms),CH1 Auto-Correlation
1.0,0.015838120132684708
2.0,0.012920265085995197
3.0,0.010831504128873348
4.0,0.009355103597044945
5.0,0.008204471319913864
6.0,0.007398574613034725
7.0,0.006753391586244106
8.0,0.006117349490523338
9.0,0.005543372593820095
10.0,0.00504103722050786
11.0,0.004515448119491339
12.0,0.004171312786638737
13.0,0.003865956561639905
14.0,0.0036973273381590843
15.0,0.00341832940466702
16.0,0.003067373763769865
18.0,0.002653823932632804
20.0,0.002288204152137041
22.0,0.0020913088228553534
24.0,0.002138448879122734
26.0,0.0020175110548734665
28.0,0.0018426822498440742
30.0,0.0018170876428484917
32.0,0.0015737636713311076
36.0,0.0013480886118486524
40.0,0.0012537408620119095
44.0,0.0009994137799367309
48.0,0.0010652764467522502
52.0,0.0012553882552310824
56.0,0.0011927911546081305
60.0,0.0010254083899781108
64.0,0.0009641980286687613
72.0,0.001163878827355802
80.0,0.0007399331661872566
88.0,0.0004112978058401495
96.0,0.00020299991592764854
104.0,4.801268732990138e-05
112.0,-6.670488801319152e-05
120.0,-0.0002685032377485186
128.0,-0.00016044118092395365
144.0,-0.00023951390176080167
160.0,-0.0003451180236879736
176.0,-0.00010301915608579293
192.0,-0.0004544850089587271
208.0,-7.899695629021153e-05
224.0,0.0003637536719907075
240.0,0.00026053519104607403
256.0,-0.00014578067930415273
288.0,-0.000252001074841246
320.0,-0.00040844231261871755
352.0,4.93736588396132e-05
384.0,0.00015274272300302982
416.0,0.00021206328528933227
448.0,0.0003734738565981388
480.0,0.0001701508736005053
512.0,-0.00011370546417310834
576.0,0.00022986125259194523
640.0,-0.0003304511192254722
704.0,-9.830487397266552e-05
768.0,-0.0002517287794034928
832.0,2.554435923229903e-06
896.0,-5.23102207807824e-05
960.0,-8.866885036695749e-05
1024.0,2.6803902073879726e-05
1152.0,-8.705048094270751e-05
1280.0,-0.0004136066127102822
1408.0,-0.00026928255101665854
1536.0,0.0009293504408560693
1664.0,0.0001956744963536039
1792.0,-0.0001766479981597513
1920.0,-0.00012485432671383023
2048.0,0.0004257904947735369
2304.0,-0.00010529300197958946
2560.0,-0.0003559661563485861
2816.0,-0.00025473194546066225
3072.0,-8.760325727052987e-05
3328.0,0.0002038763341261074
3584.0,0.0002358741476200521
3840.0,0.00015846459427848458
4096.0,-0.0002284717484144494
4608.0,-0.0003662116068881005
5120.0,7.739203283563256e-05
5632.0,0.00011541855201357976
6144.0,-0.00022723960864823312
6656.0,-8.928705210564658e-05
7168.0,0.00024122583272401243
7680.0,0.00018618706963025033
8192.0,-0.0003018282004632056
end
