version,3.0
numOfCh,1
type,point
parent_name,714af_3dot0-0dot1
ch_type,1_1
kcount,1
numberNandB,1
brightnessNandB,1
carpet pos,0
pc,0
Time (ms),CH1 Auto-Correlation
1.0,0.0199554692953825
2.0,0.01711266115307808
3.0,0.015068150125443935
4.0,0.013327875174582005
5.0,0.01197989471256733
6.0,0.010953282006084919
7.0,0.009946187026798725
8.0,0.00919562391936779
9.0,0.008577036671340466
10.0,0.008037364110350609
11.0,0.00749973626807332
12.0,0.007161018438637257
13.0,0.006800710689276457
14.0,0.006601443514227867
15.0,0.0062413341365754604
16.0,0.005995424930006266
18.0,0.0054339999333024025
20.0,0.0049497769214212894
22.0,0.004579901695251465
24.0,0.004203747026622295
26.0,0.003782946616411209
28.0,0.003192831529304385
30.0,0.002755384659394622
32.0,0.0025576059706509113
36.0,0.0025314507074654102
40.0,0.00224629626609385
44.0,0.0020200598519295454
48.0,0.002106530126184225
52.0,0.0019651479087769985
56.0,0.001626990269869566
60.0,0.0014481866965070367
64.0,0.0013352269306778908
72.0,0.0007304429309442639
80.0,0.00042720488272607327
88.0,0.00033727733534760773
96.0,0.0002436896611470729
104.0,-3.9610295061720535e-05
112.0,2.8664864657912403e-05
120.0,0.0002882537373807281
128.0,-0.0005243149353191257
144.0,-0.0009800527477636933
160.0,-0.0004909701528958976
176.0,-0.0006071848911233246
192.0,-0.000983744510449469
208.0,-0.00018702109809964895
224.0,0.000753016269300133
240.0,0.0008982872823253274
256.0,0.00010632201883709058
288.0,0.0003743247070815414
320.0,0.0010537075577303767
352.0,0.0008313895668834448
384.0,0.000426216225605458
416.0,-0.00021020547137595713
448.0,-0.000571554817724973
480.0,-0.0007577582728117704
512.0,-0.00016584753757342696
576.0,-0.00048542715376242995
640.0,0.0008055403595790267
704.0,0.00016047610552050173
768.0,-0.0008149188943207264
832.0,-8.02760841907002e-05
896.0,3.807367102126591e-05
960.0,0.00021255234605632722
1024.0,-0.00010596935317153111
1152.0,-0.00035027568810619414
1280.0,0.00014416829799301922
1408.0,-0.00021920075232628733
1536.0,-0.00036991198430769145
1664.0,-5.302375939209014e-05
1792.0,-0.00021379219833761454
1920.0,-0.0001886643294710666
2048.0,-5.587376563198632e-06
2304.0,0.00015118459123186767
2560.0,0.0005298111937008798
2816.0,0.000348749483237043
3072.0,0.0001872850552899763
3328.0,0.0002396018389845267
3584.0,8.039359818212688e-05
3840.0,-0.0002461727417539805
4096.0,-0.00011297887249384075
4608.0,-0.0008392019080929458
5120.0,0.0003441872540861368
5632.0,-0.0003483224718365818
6144.0,0.00047238136176019907
6656.0,-0.0004077626799698919
7168.0,-0.0009702271199785173
7680.0,-1.8412689314573072e-05
8192.0,-0.00045562561717815697
end
