version,3.0
numOfCh,1
type,point
parent_name,714af_3dot0-0dot1
ch_type,1_1
kcount,1
numberNandB,1
brightnessNandB,1
carpet pos,0
pc,0
Time (ms),CH1 Auto-Correlation
1.0,0.016434073448181152
2.0,0.013676098547875881
3.0,0.011552926152944565
4.0,0.010119725950062275
5.0,0.009115176275372505
6.0,0.008249631151556969
7.0,0.0076781585812568665
8.0,0.007045253645628691
9.0,0.006513473577797413
10.0,0.005971755366772413
11.0,0.005549290217459202
12.0,0.005131211131811142
13.0,0.004861592315137386
14.0,0.004587766248732805
15.0,0.004316090140491724
16.0,0.004155982751399279
18.0,0.0038619618862867355
20.0,0.0034833105746656656
22.0,0.003236524062231183
24.0,0.0030971819069236517
26.0,0.002910739742219448
28.0,0.002692960202693939
30.0,0.002467579208314419
32.0,0.002364999847486615
36.0,0.002199564129114151
40.0,0.0020003917161375284
44.0,0.0016975085018202662
48.0,0.0016681868582963943
52.0,0.0019041113555431366
56.0,0.0019280931446701288
60.0,0.0017424505203962326
64.0,0.0014337582979351282
72.0,0.0013234397629275918
80.0,0.0010799283627420664
88.0,0.0009443541639484465
96.0,0.000645219930447638
104.0,0.00048645358765497804
112.0,0.0005002112011425197
120.0,0.00030126995989121497
128.0,0.00038454047171399
144.0,0.00037549002445302904
160.0,0.00015659273776691407
176.0,0.00046940642641857266
192.0,0.00039145920891314745
208.0,-0.00031047596712596714
224.0,5.766510184912477e-06
240.0,2.1995445422362536e-05
256.0,0.00011271531548118219
288.0,0.00011672605614876375
320.0,0.00036932178772985935
352.0,-5.1256844017188996e-05
384.0,-0.00027925189351662993
416.0,-0.00034858810249716043
448.0,0.0003425240865908563
480.0,-0.0002617310092318803
512.0,-0.0002906916197389364
576.0,-0.0008160308934748173
640.0,-0.00035831224522553384
704.0,-0.0003621376818045974
768.0,-1.584722485858947e-05
832.0,-0.00036467454629018903
896.0,-0.0002598534629214555
960.0,3.3676395105430856e-05
1024.0,0.00017310588737018406
1152.0,0.0004062106891069561
1280.0,-0.00036014587385579944
1408.0,-0.00010221361299045384
1536.0,-7.341855962295085e-05
1664.0,9.537171717965975e-05
1792.0,0.00030215189326554537
1920.0,0.0006415935349650681
2048.0,0.00020444196707103401
2304.0,-9.297099313698709e-05
2560.0,-0.00021847370953764766
2816.0,2.9228129278635606e-05
3072.0,0.00021747335267718881
3328.0,0.00018292784807272255
3584.0,4.298380736145191e-05
3840.0,0.00017560205014888197
4096.0,-0.0003327145241200924
4608.0,5.924314245930873e-05
5120.0,0.00016190254245884717
5632.0,0.00021578923042397946
6144.0,-5.511211202247068e-05
6656.0,-9.122631308855489e-05
7168.0,0.0003310923057142645
7680.0,-0.000707474013324827
8192.0,-0.0001475374447181821
end
