version,3.0
numOfCh,1
type,point
parent_name,714af_3dot0-0dot1
ch_type,1_1
kcount,1
numberNandB,1
brightnessNandB,1
carpet pos,0
pc,0
Time (ms),CH1 Auto-Correlation
1.0,0.02082597091794014
2.0,0.017826776951551437
3.0,0.015615354292094707
4.0,0.013836314901709557
5.0,0.01249433308839798
6.0,0.011304949410259724
7.0,0.010348659008741379
8.0,0.009510635398328304
9.0,0.008836527355015278
10.0,0.008294947445392609
11.0,0.00784242432564497
12.0,0.007585430983453989
13.0,0.007226675748825073
14.0,0.006888451986014843
15.0,0.006401693448424339
16.0,0.006156678777188063
18.0,0.005915029905736446
20.0,0.005436105653643608
22.0,0.0049667395651340485
24.0,0.004297003615647554
26.0,0.0039770291186869144
28.0,0.0038048934657126665
30.0,0.0034703013952821493
32.0,0.003145842580124736
36.0,0.0030961947049945593
40.0,0.0023666750639677048
44.0,0.001992779318243265
48.0,0.001862133969552815
52.0,0.0016245743026956916
56.0,0.0015515381237491965
60.0,0.0014096555532887578
64.0,0.0014036863576620817
72.0,0.0015587549423798919
80.0,0.0020292787812650204
88.0,0.0015429694904014468
96.0,0.0012858579866588116
104.0,0.0012313429033383727
112.0,0.0016329974168911576
120.0,0.0017925732536241412
128.0,0.002194841392338276
144.0,0.0008034363854676485
160.0,-6.459954420279246e-06
176.0,0.0005012988694943488
192.0,0.0007085513789206743
208.0,0.0002897396916523576
224.0,0.000832326419185847
240.0,0.0007848258828744292
256.0,0.0008032832993194461
288.0,0.00033426188747398555
320.0,0.0009405823075212538
352.0,0.0012104542693123221
384.0,0.0019167945720255375
416.0,0.0012334297643974423
448.0,0.0018968845251947641
480.0,0.002797454595565796
512.0,0.001964921597391367
576.0,0.0007286854670383036
640.0,0.000798972905613482
704.0,0.000652720860671252
768.0,0.00041713641257956624
832.0,0.0014370608842000365
896.0,0.0004253952647559345
960.0,0.0010775818955153227
1024.0,-0.0002884583664126694
1152.0,0.00015481223817914724
1280.0,0.0003872480592690408
1408.0,0.0005946794990450144
1536.0,3.586261300370097e-05
1664.0,-2.2788370188209228e-05
1792.0,-0.000551931036170572
1920.0,-0.00033563358010724187
2048.0,9.425688040209934e-05
2304.0,-0.00021196888701524585
2560.0,-0.0005823113024234772
2816.0,-0.0006664828979410231
3072.0,-0.0008292911224998534
3328.0,-0.00041236323886550963
3584.0,-0.0004552665923256427
3840.0,-0.0008046638104133308
4096.0,-0.0011407426791265607
4608.0,-0.0005246044020168483
5120.0,-0.00015787355368956923
5632.0,0.0003996396262664348
6144.0,0.0011977903777733445
6656.0,0.0006900359294377267
7168.0,-0.0012439449783414602
end
