version,3.0
numOfCh,1
type,point
parent_name,714af_3dot0-0dot1
ch_type,1_1
kcount,1
numberNandB,1
brightnessNandB,1
carpet pos,0
pc,0
Time (ms),CH1 Auto-Correlation
1.0,0.014563153497874737
2.0,0.011860692873597145
3.0,0.010008677840232849
4.0,0.008563526906073093
5.0,0.0074131423607468605
6.0,0.006579548120498657
7.0,0.005907092709094286
8.0,0.005240720231086016
9.0,0.004735452588647604
10.0,0.004341523628681898
11.0,0.004063362721353769
12.0,0.0036799039226025343
13.0,0.003395048202946782
14.0,0.0031100288033485413
15.0,0.002785115037113428
16.0,0.0024623116478323936
18.0,0.0020765271037817
20.0,0.0018856764072552323
22.0,0.0017781055066734552
24.0,0.0017257692525163293
26.0,0.001682479865849018
28.0,0.0016610636375844479
30.0,0.00140299869235605
32.0,0.001214137184433639
36.0,0.0008428247529082
40.0,0.0005093018990010023
44.0,0.0002929058391600847
48.0,4.023148358101025e-05
52.0,6.130538531579077e-05
56.0,-0.00015385352890007198
60.0,-0.00026495169731788337
64.0,-0.0003416778636164963
72.0,-7.461189670721069e-05
80.0,0.00022946071112528443
88.0,0.0004905810346826911
96.0,0.0003357400419190526
104.0,0.0006243506213650107
112.0,0.0007093527819961309
120.0,0.00018843640282284468
128.0,9.228756971424446e-05
144.0,0.0008568940684199333
160.0,0.00039398003718815744
176.0,-0.00010349549847887829
192.0,-0.0002675019786693156
208.0,-0.00041357841109856963
224.0,-6.17488258285448e-05
240.0,0.00013021750783082098
256.0,0.0002068826142931357
288.0,-0.000200164140551351
320.0,4.2750343709485605e-05
352.0,0.0003257240750826895
384.0,3.510845999699086e-05
416.0,-0.00046450618538074195
448.0,-0.0004672346112783998
480.0,0.0002621429448481649
512.0,-6.467284401878715e-05
576.0,-0.00019599615188781172
640.0,-2.332736949028913e-05
704.0,0.0002695969014894217
768.0,0.0002959132834803313
832.0,-0.00015244059613905847
896.0,0.00028255648794583976
960.0,0.00018054527754429728
1024.0,0.00035085075069218874
1152.0,-8.324943337356672e-05
1280.0,-0.00037256060750223696
1408.0,-0.00035927051794715226
1536.0,-6.495020352303982e-05
1664.0,-0.0001272566441912204
1792.0,0.0002527714823372662
1920.0,-0.0001637972891330719
2048.0,-0.00011469102173577994
2304.0,-1.0266109711665194e-05
2560.0,-2.9058353902655654e-05
2816.0,-6.658044731011614e-05
3072.0,-9.991270781029016e-05
3328.0,-0.00014751430717296898
3584.0,-0.0002380960650043562
3840.0,0.00022388350043911487
4096.0,0.00021025179012212902
4608.0,0.00020093140483368188
5120.0,-2.3368524125544354e-05
5632.0,-1.4112026292423252e-05
6144.0,9.205773676512763e-05
6656.0,-0.00013635135837830603
7168.0,-0.0001623163843760267
7680.0,-9.917668648995459e-05
8192.0,0.000132247107103467
end
