version,3.0
numOfCh,1
type,point
parent_name,714af_3dot0-0dot1
ch_type,1_1
kcount,1
numberNandB,1
brightnessNandB,1
carpet pos,0
pc,0
Time (ms),CH1 Auto-Correlation
1.0,0.015243813395500183
2.0,0.012434561736881733
3.0,0.010481711477041245
4.0,0.008891062811017036
5.0,0.007663345895707607
6.0,0.006686929613351822
7.0,0.005914419423788786
8.0,0.005377390421926975
9.0,0.004909222014248371
10.0,0.0045411186292767525
11.0,0.004357341676950455
12.0,0.004143818747252226
13.0,0.003969654906541109
14.0,0.0036610125098377466
15.0,0.0034715004730969667
16.0,0.003157729050144553
18.0,0.002864039968699217
20.0,0.002660357626155019
22.0,0.0024996278807520866
24.0,0.002322085667401552
26.0,0.0021273167803883553
28.0,0.0019217825029045343
30.0,0.001672564074397087
32.0,0.0015180532354861498
36.0,0.001156252808868885
40.0,0.000996377202682197
44.0,0.0008659787708893418
48.0,0.0007992077153176069
52.0,0.0009408683981746435
56.0,0.0009171254350803792
60.0,0.0004932403680868447
64.0,0.00024934252724051476
72.0,0.0006675802869722247
80.0,0.0003958140150643885
88.0,0.00040023840847425163
96.0,0.0009983103955164552
104.0,0.0011560231214389205
112.0,0.0009030743385665119
120.0,0.0008182014571502805
128.0,0.0006530770915560424
144.0,0.00046811907668597996
160.0,0.00037859531585127115
176.0,0.00047522818204015493
192.0,0.0005798470228910446
208.0,0.0007346876664087176
224.0,0.0005942168063484132
240.0,0.0007626820006407797
256.0,0.0003934747655875981
288.0,-0.00042144162580370903
320.0,-9.707670687930658e-05
352.0,-0.00021475236280821264
384.0,-0.0003935197019018233
416.0,-0.0005811363807879388
448.0,-0.00010815793939400464
480.0,-0.0003789002657867968
512.0,-0.0003622450749389827
576.0,-8.885012357495725e-05
640.0,0.00018157945305574685
704.0,-6.491850945167243e-05
768.0,-1.2212090950924903e-05
832.0,0.0002306395472260192
896.0,0.0002462557458784431
960.0,-0.0001882359792944044
1024.0,-0.00026947041624225676
1152.0,-0.0005299454787746072
1280.0,0.00023315650469157845
1408.0,0.00013142793613951653
1536.0,0.00031350881909020245
1664.0,0.0003227250708732754
1792.0,0.0002483767457306385
1920.0,0.0004764252225868404
2048.0,-4.0568088479631115e-06
2304.0,-6.34305615676567e-05
2560.0,5.0326627388130873e-05
2816.0,-0.00027799917734228075
3072.0,-0.00016093358863145113
3328.0,4.313217141316272e-05
3584.0,-6.095093340263702e-05
3840.0,-0.000197637447854504
4096.0,-4.9097889132099226e-05
4608.0,-0.0002958845579996705
5120.0,1.3255319572635926e-05
5632.0,-0.00014627104974351823
6144.0,8.109360351227224e-05
6656.0,-8.895366045180708e-05
7168.0,-0.0002805107505992055
7680.0,6.11764335189946e-05
8192.0,3.398107583052479e-05
end
