version,3.0
numOfCh,1
type,point
parent_name,714af_3dot0-0dot1
ch_type,1_1
kcount,1
numberNandB,1
brightnessNandB,1
carpet pos,0
pc,0
Time (ms),CH1 Auto-Correlation
1.0,0.0159342922270298
2.0,0.013105381280183792
3.0,0.011078107170760632
4.0,0.00957732368260622
5.0,0.008437090553343296
6.0,0.0075102392584085464
7.0,0.006712650880217552
8.0,0.006079492624849081
9.0,0.005630780011415482
10.0,0.005258743651211262
11.0,0.004992002621293068
12.0,0.004677688702940941
13.0,0.004297511652112007
14.0,0.003992494661360979
15.0,0.0036143939942121506
16.0,0.003328442806378007
18.0,0.003001705277711153
20.0,0.002654565963894129
22.0,0.0023241383023560047
24.0,0.002324103843420744
26.0,0.00240305089391768
28.0,0.002287104958668351
30.0,0.0021555032581090927
32.0,0.002067041350528598
36.0,0.0018932479433715343
40.0,0.0016852609114721417
44.0,0.0017164160963147879
48.0,0.0014557659160345793
52.0,0.001350744511000812
56.0,0.0010619276436045766
60.0,0.0010026171803474426
64.0,0.0009854367235675454
72.0,0.00043857915443368256
80.0,7.522118539782241e-05
88.0,0.00025895560975186527
96.0,0.0005408511497080326
104.0,0.00036579419975169003
112.0,0.00016346860502380878
120.0,0.0003924804332200438
128.0,0.0005431637400761247
144.0,0.0003908243961632252
160.0,-0.0005548154003918171
176.0,-0.0007380452589131892
192.0,-0.0004313807876314968
208.0,-0.00026166861061938107
224.0,-0.0005844761035405099
240.0,-0.00022783962776884437
256.0,7.941958028823137e-05
288.0,0.00010590908641461283
320.0,0.0004301335720811039
352.0,0.00018219435878563672
384.0,-6.346525333356112e-05
416.0,1.4343894690682646e-05
448.0,0.0004731680091936141
480.0,-6.4791775002959184e-06
512.0,-0.00011662930774036795
576.0,0.0005256397416815162
640.0,0.00042670287075452507
704.0,0.000489265366923064
768.0,0.00024229664995800704
832.0,0.00034656800562515855
896.0,0.0001771902752807364
960.0,1.8925198673969135e-05
1024.0,9.752323239808902e-05
1152.0,-0.0002181737800128758
1280.0,3.67567190551199e-05
1408.0,0.0005891589098609984
1536.0,0.00019468941900413483
1664.0,5.959142799838446e-05
1792.0,-0.0006515474524348974
1920.0,-0.0004370194801595062
2048.0,-4.4250198698136955e-05
2304.0,-0.0004014519799966365
2560.0,-0.00015932081441860646
2816.0,-0.00018669682322070003
3072.0,-0.00013167411088943481
3328.0,-0.00010465272498549893
3584.0,-0.00027416428201831877
3840.0,8.336168684763834e-05
4096.0,0.0004027902032248676
4608.0,0.00014995218953117728
5120.0,4.282582813175395e-05
5632.0,-0.00012595966109074652
6144.0,-0.0004059926141053438
6656.0,-0.0003956699219997972
7168.0,-0.0006418489501811564
7680.0,-0.0003158635227009654
8192.0,0.00019394769333302975
end
