version,3.0
numOfCh,1
type,point
parent_name,714af_3dot0-0dot1
ch_type,1_1
kcount,1
numberNandB,1
brightnessNandB,1
carpet pos,0
pc,0
Time (ms),CH1 Auto-Correlation
1.0,0.015467137098312378
2.0,0.012591780163347721
3.0,0.010629142634570599
4.0,0.009255453944206238
5.0,0.008177686482667923
6.0,0.007311278022825718
7.0,0.0066198986023664474
8.0,0.00602218322455883
9.0,0.005493669304996729
10.0,0.0050327228382229805
11.0,0.004621829371899366
12.0,0.004210222512483597
13.0,0.003953909035772085
14.0,0.003606535494327545
15.0,0.0033495917450636625
16.0,0.003192204050719738
18.0,0.002984059741720557
20.0,0.0026163915172219276
22.0,0.0024994693230837584
24.0,0.0024692940060049295
26.0,0.0023107503075152636
28.0,0.002166248159483075
30.0,0.002056522760540247
32.0,0.001895660301670432
36.0,0.0019488711841404438
40.0,0.001985752722248435
44.0,0.001463347114622593
48.0,0.0012550015235319734
52.0,0.0011765314266085625
56.0,0.0012339119566604495
60.0,0.0011398100759834051
64.0,0.0009899246506392956
72.0,0.0008645901689305902
80.0,0.001195582328364253
88.0,0.0014798728516325355
96.0,0.0011623103637248278
104.0,0.0011553599033504725
112.0,0.0007544024265371263
120.0,0.00043777289101853967
128.0,0.0003250902518630028
144.0,6.242208473850042e-05
160.0,-1.0285833923262544e-05
176.0,0.00025735277449712157
192.0,0.0002452197950333357
208.0,0.00033205433283001184
224.0,0.0007486329413950443
240.0,0.00025618038489483297
256.0,0.0002462716365698725
288.0,-0.0005585883627645671
320.0,-0.0005769346025772393
352.0,-0.0006103035411797464
384.0,-0.0008797751506790519
416.0,-0.0009090193780139089
448.0,-0.0004846217925660312
480.0,-0.0002995828981511295
512.0,-0.0001205808948725462
576.0,-5.276366573525593e-05
640.0,0.00010117856436409056
704.0,-0.0004335400299169123
768.0,-0.000753657310269773
832.0,-0.0009367652237415314
896.0,-0.0008704607025720179
960.0,-0.0006739075179211795
1024.0,-0.00010415355791337788
1152.0,0.00010044627561001107
1280.0,0.0004252829821780324
1408.0,0.0004228935285937041
1536.0,0.0006444270256906748
1664.0,0.00044359173625707626
1792.0,0.00046441538142971694
1920.0,-0.0004546568961814046
2048.0,-0.0004739162395708263
2304.0,-0.0007844432257115841
2560.0,-0.0002411670284345746
2816.0,0.0005010662716813385
3072.0,0.0006875254912301898
3328.0,1.2607232747541275e-05
3584.0,-0.0003575154405552894
3840.0,-0.0006941723404452205
4096.0,-0.00024395347281824797
4608.0,0.0006382776191458106
5120.0,-0.0005201178137212992
5632.0,-3.0334966140799224e-05
6144.0,0.0004401765763759613
6656.0,-0.0004279982822481543
7168.0,-4.614387944457121e-05
7680.0,0.0005428225849755108
8192.0,-0.00041217549005523324
end
