version,3.0
numOfCh,1
type,point
parent_name,714af_3dot0-0dot1
ch_type,1_1
kcount,1
numberNandB,1
brightnessNandB,1
carpet pos,0
pc,0
Time (ms),CH1 Auto-Correlation
1.0,0.017140649259090424
2.0,0.014472251757979393
3.0,0.012484469451010227
4.0,0.0111087616533041
5.0,0.010087206959724426
6.0,0.009175112470984459
7.0,0.00838061049580574
8.0,0.007726843468844891
9.0,0.007141080219298601
10.0,0.006610139273107052
11.0,0.006106716580688953
12.0,0.005580244120210409
13.0,0.005177047569304705
14.0,0.004919781349599361
15.0,0.004722157958894968
16.0,0.00446044746786356
18.0,0.0038993426132947206
20.0,0.0035268915817141533
22.0,0.0033009257167577744
24.0,0.003137716557830572
26.0,0.0030962752643972635
28.0,0.0029927596915513277
30.0,0.0029540229588747025
32.0,0.002795247361063957
36.0,0.0023217687848955393
40.0,0.001849873922765255
44.0,0.0018549679080024362
48.0,0.0017692429246380925
52.0,0.0018080455483868718
56.0,0.0015738958027213812
60.0,0.001585302292369306
64.0,0.0016295670066028833
72.0,0.0017965383594855666
80.0,0.0021966842468827963
88.0,0.00195964053273201
96.0,0.0016630941536277533
104.0,0.0013530130963772535
112.0,0.0010934361489489675
120.0,0.0011581595754250884
128.0,0.00079048314364627
144.0,0.0009251012234017253
160.0,0.0009061332093551755
176.0,0.0005318812909536064
192.0,0.0006148915272206068
208.0,1.6504756786162034e-05
224.0,0.0001323272881563753
240.0,0.00047886857646517456
256.0,0.0008877269574441016
288.0,0.000497115426696837
320.0,0.0004827269585803151
352.0,0.001273665577173233
384.0,0.0007210747571662068
416.0,0.0004389403620734811
448.0,2.8296150048845448e-05
480.0,8.310940756928176e-05
512.0,0.0003678130160551518
576.0,0.000628436915576458
640.0,0.0007367481593973935
704.0,0.0010469243861734867
768.0,0.0008508487371727824
832.0,0.0005737459869123995
896.0,0.0006701015518046916
960.0,0.0008013261831365526
1024.0,0.00034765168675221503
1152.0,0.0004198242677375674
1280.0,0.0008865501149557531
1408.0,-8.992746006697416e-05
1536.0,0.00010037020547315478
1664.0,0.00026672505191527307
1792.0,-0.00044513223110698164
1920.0,5.9716101532103494e-05
2048.0,-0.00026820902712643147
2304.0,2.753797161858529e-05
2560.0,0.00022787039051763713
2816.0,-1.5034539501357358e-05
3072.0,-0.0005705411895178258
3328.0,-0.0002960560086648911
3584.0,2.0614079403458163e-05
3840.0,8.562170842196792e-05
4096.0,0.0004190366016700864
4608.0,-0.0006278714863583446
5120.0,0.00018058082787320018
5632.0,-0.0003268751606810838
6144.0,2.7129399313707836e-05
6656.0,5.398279972723685e-05
7168.0,-0.000639956968370825
7680.0,4.2399427911732346e-05
8192.0,-0.0009552317205816507
end
