version,3.0
numOfCh,1
type,point
parent_name,714af_3dot0-0dot1
ch_type,1_1
kcount,1
numberNandB,1
brightnessNandB,1
carpet pos,0
pc,0
Time (ms),CH1 Auto-Correlation
1.0,0.015838108956813812
2.0,0.013046990148723125
3.0,0.010943340137600899
4.0,0.009409810416400433
5.0,0.00821186974644661
6.0,0.007303749211132526
7.0,0.0065645189024508
8.0,0.005949659738689661
9.0,0.005534336436539888
10.0,0.005203609820455313
11.0,0.004842016845941544
12.0,0.004484961275011301
13.0,0.0041549187153577805
14.0,0.003886463586241007
15.0,0.00370459770783782
16.0,0.003520724130794406
18.0,0.0032119187526404858
20.0,0.00296545447781682
22.0,0.0026519903913140297
24.0,0.0024190302938222885
26.0,0.002329889452084899
28.0,0.0022437262814491987
30.0,0.0020414963364601135
32.0,0.0019135631155222654
36.0,0.0018028690246865153
40.0,0.0016075436724349856
44.0,0.0012851081555709243
48.0,0.0011090451152995229
52.0,0.0011035366915166378
56.0,0.0012940444285050035
60.0,0.001507551409304142
64.0,0.0014868794241920114
72.0,0.0011152358492836356
80.0,0.0009094350389204919
88.0,0.0010490084532648325
96.0,0.0008564571035094559
104.0,0.0004540684458333999
112.0,0.0002480031980667263
120.0,0.00039579207077622414
128.0,0.0005772432195954025
144.0,0.0003033326647710055
160.0,0.000485732511151582
176.0,7.398265006486326e-05
192.0,9.622368088457733e-05
208.0,-4.1474049794487655e-05
224.0,-0.00012686957779806107
240.0,0.00022722972789779305
256.0,4.3712661863537505e-06
288.0,-0.00047181587433442473
320.0,-0.00037118239561095834
352.0,-0.0007120776572264731
384.0,-0.0006607691175304353
416.0,-0.0002908725291490555
448.0,-0.00013154599582776427
480.0,0.00027089935611002147
512.0,0.00046581856440752745
576.0,-0.00010037096217274666
640.0,-0.000340495549608022
704.0,-0.0006295668426901102
768.0,-0.000515572028234601
832.0,-0.00012661908112931997
896.0,8.042143599595875e-05
960.0,-0.00018694365280680358
1024.0,3.478716462268494e-05
1152.0,-0.0004523055104073137
1280.0,-0.0005714884609915316
1408.0,1.6260188203887083e-05
1536.0,0.00030016203527338803
1664.0,3.146167000522837e-05
1792.0,-0.00022634223569184542
1920.0,-0.00030028106993995607
2048.0,0.0002868323354050517
2304.0,0.00029093315242789686
2560.0,5.858857184648514e-05
2816.0,-0.00017145417223218828
3072.0,-0.0003435071848798543
3328.0,-0.00023635585966985673
3584.0,0.00010182929690927267
3840.0,0.0006173409637995064
4096.0,-9.631332432036288e-06
4608.0,9.081036864699854e-07
5120.0,-0.00041724208858795464
5632.0,0.00011252714466536418
6144.0,0.0001384901552228257
6656.0,0.00016875786241143942
7168.0,-0.00042323130764998496
7680.0,6.156403105705976e-05
8192.0,0.00030508017516694963
end
