version,3.0
numOfCh,1
type,point
parent_name,714af_3dot0-0dot1
ch_type,1_1
kcount,1
numberNandB,1
brightnessNandB,1
carpet pos,0
pc,0
Time (ms),CH1 Auto-Correlation
1.0,0.0166854877024889
2.0,0.013760746456682682
3.0,0.011766679584980011
4.0,0.010276351124048233
5.0,0.009148801676928997
6.0,0.00814785249531269
7.0,0.007343408651649952
8.0,0.006789636332541704
9.0,0.006257974077016115
10.0,0.005752758122980595
11.0,0.005276248324662447
12.0,0.004887189716100693
13.0,0.004577062092721462
14.0,0.004382592160254717
15.0,0.0041700671426951885
16.0,0.004000282380729914
18.0,0.003667291486635804
20.0,0.00358974258415401
22.0,0.0032621556892991066
24.0,0.002880112500861287
26.0,0.0024949137587100267
28.0,0.0023925115820020437
30.0,0.0023269185330718756
32.0,0.0021289826836436987
36.0,0.0017667185747995973
40.0,0.0015953151741996408
44.0,0.0014235761482268572
48.0,0.0010402932530269027
52.0,0.0006314313504844904
56.0,0.0005664625205099583
60.0,0.0006457518320530653
64.0,0.000612848496530205
72.0,0.0008641692693345249
80.0,0.0006559541216120124
88.0,0.0002953612129203975
96.0,0.00021644575463142246
104.0,0.0005243748310022056
112.0,0.0007045284728519619
120.0,0.0006685302359983325
128.0,0.0006765685393474996
144.0,3.061035749851726e-05
160.0,-6.8719542468898e-05
176.0,-0.00040292853373102844
192.0,-0.00011657910363283008
208.0,-3.195869066985324e-05
224.0,-0.00012725307897198945
240.0,-0.0005697034066542983
256.0,-0.0006007397314533591
288.0,1.1797504157584626e-05
320.0,0.00038622846477665007
352.0,0.0009812860516831279
384.0,0.0005263275816105306
416.0,0.000765827891882509
448.0,0.0006884362082928419
480.0,0.00015927611093502492
512.0,-0.0003777686506509781
576.0,-0.00019570683070924133
640.0,0.0004058469203300774
704.0,7.900573837105185e-05
768.0,-0.00012488412903621793
832.0,0.00014259538147598505
896.0,-0.0002596453414298594
960.0,-0.0002540083369240165
1024.0,-0.00023383313964586705
1152.0,-0.00024412329366896302
1280.0,0.0003845301689580083
1408.0,0.00019803926988970488
1536.0,-0.0001911635627038777
1664.0,-4.648679532692768e-05
1792.0,-3.4073396818712354e-05
1920.0,0.00014557410031557083
2048.0,-2.7538730137166567e-05
2304.0,-0.0001897873153211549
2560.0,-0.0001897570036817342
2816.0,0.0001683512527961284
3072.0,-0.000317211146466434
3328.0,0.0003287439467385411
3584.0,-0.00023748044623062015
3840.0,-0.00024956392007879913
4096.0,1.898055234050844e-05
4608.0,-0.0002717131283134222
5120.0,-0.00035731904790736735
5632.0,-0.0002756312023848295
6144.0,-0.00014007528079673648
6656.0,0.00013424742792267352
7168.0,2.0885376216028817e-05
7680.0,5.981759022688493e-05
8192.0,0.00021976642892695963
end
