version,3.0
numOfCh,1
type,point
parent_name,714af_3dot0-0dot1
ch_type,1_1
kcount,1
numberNandB,1
brightnessNandB,1
carpet pos,0
pc,0
Time (ms),CH1 Auto-Correlation
1.0,0.01435929536819458
2.0,0.011556402780115604
3.0,0.009596295654773712
4.0,0.0080675408244133
5.0,0.006955049466341734
6.0,0.006100580096244812
7.0,0.005427390802651644
8.0,0.0050399284809827805
9.0,0.0046003214083611965
10.0,0.004298617132008076
11.0,0.004037613049149513
12.0,0.003798356279730797
13.0,0.003516820492222905
14.0,0.003185571637004614
15.0,0.002973833354189992
16.0,0.002842570887878537
18.0,0.002435211790725589
20.0,0.0021584718488156796
22.0,0.0020853832829743624
24.0,0.0019514602608978748
26.0,0.0018471985822543502
28.0,0.0016286956379190087
30.0,0.0014612997183576226
32.0,0.0013809384545311332
36.0,0.0012732145842164755
40.0,0.0010285492753610015
44.0,0.0005776227335445583
48.0,0.0001864352816483006
52.0,0.00032533248304389417
56.0,0.0005738193285651505
60.0,0.0007344501791521907
64.0,0.0007006083033047616
72.0,0.0010180920362472534
80.0,0.0008637203136458993
88.0,0.0007225769804790616
96.0,0.0006348678725771606
104.0,0.0005008488078601658
112.0,0.00013102509547024965
120.0,0.00027876446256414056
128.0,0.0002339650527574122
144.0,0.00033287244150415063
160.0,-2.5041601475095376e-05
176.0,-9.750538447406143e-05
192.0,0.00011997805995633826
208.0,0.0004671558563131839
224.0,0.00014436499623116106
240.0,-0.00025551661383360624
256.0,-4.367024666862562e-05
288.0,0.00050200498662889
320.0,0.0002583864261396229
352.0,0.00011971975618507713
384.0,0.000362611172022298
416.0,0.00025760274729691446
448.0,7.715117681073025e-05
480.0,0.00035176504752598703
512.0,0.0001125901035265997
576.0,-0.0003942845796700567
640.0,-0.00036794482730329037
704.0,0.0002841521054506302
768.0,0.00035671895602717996
832.0,0.0005033152992837131
896.0,-0.00012753769988194108
960.0,-5.050878826295957e-06
1024.0,0.00032227588235400617
1152.0,0.000323031737934798
1280.0,0.00017309820395894349
1408.0,0.00012979282473679632
1536.0,0.0003010488289874047
1664.0,9.623188816476613e-05
1792.0,-2.1591449694824405e-05
1920.0,7.84251096774824e-05
2048.0,0.0002267221425427124
2304.0,2.8149994250270538e-05
2560.0,0.00024111299717333168
2816.0,-4.121550955460407e-05
3072.0,-0.00025630908203311265
3328.0,0.00019940741185564548
3584.0,-0.0001789446541806683
3840.0,-0.00020767337991856039
4096.0,-0.00011722539784386754
4608.0,-0.00018817262025550008
5120.0,-0.00034016280551441014
5632.0,-0.00041102024260908365
6144.0,-0.0003063598123844713
6656.0,-2.1439493139041588e-05
7168.0,-0.0002408825675956905
7680.0,-0.00019059643091168255
8192.0,-0.00023586118186358362
end
