version,3.0
numOfCh,1
type,point
parent_name,714af_3dot0-0dot1
ch_type,1_1
kcount,1
numberNandB,1
brightnessNandB,1
carpet pos,0
pc,0
Time (ms),CH1 Auto-Correlation
1.0,0.016835005953907967
2.0,0.014043512754142284
3.0,0.012010759674012661
4.0,0.010511940345168114
5.0,0.009301808662712574
6.0,0.008255264721810818
7.0,0.007426087278872728
8.0,0.006671687122434378
9.0,0.006102416198700666
10.0,0.005623326171189547
11.0,0.00510373106226325
12.0,0.004775907378643751
13.0,0.004428320098668337
14.0,0.004194833803921938
15.0,0.003926439676433802
16.0,0.0037472692783921957
18.0,0.003469910239800811
20.0,0.003086582524701953
22.0,0.0027463941369205713
24.0,0.0025994270108640194
26.0,0.0023692534305155277
28.0,0.002026481321081519
30.0,0.0018298043869435787
32.0,0.0016170681919902563
36.0,0.001291803433559835
40.0,0.0009677515481598675
44.0,0.001022552838549018
48.0,0.0009250568109564483
52.0,0.0006776172085665166
56.0,0.0006802962743677199
60.0,0.0007288819178938866
64.0,0.0008490680484101176
72.0,0.0008357207989320159
80.0,0.0003603507939260453
88.0,0.00020817721087951213
96.0,0.0007795107085257769
104.0,0.0010597255313768983
112.0,0.000671316112857312
120.0,0.0004726997285615653
128.0,0.0005924138822592795
144.0,8.806418918538839e-05
160.0,0.0002929051115643233
176.0,0.00048445395077578723
192.0,0.00020187115296721458
208.0,-0.0001425857626600191
224.0,-0.0003094441199209541
240.0,-8.350565622095019e-05
256.0,0.00013348272477742285
288.0,0.0008699129102751613
320.0,0.001040580333210528
352.0,0.00019983353558927774
384.0,0.0003415909595787525
416.0,4.483560405788012e-05
448.0,-0.0001504814572399482
480.0,-0.00035472476156428456
512.0,-0.0003238218487240374
576.0,-0.00026332371635362506
640.0,-0.00038335134740918875
704.0,-0.0001337744906777516
768.0,-0.0002528973564039916
832.0,-7.191150507424027e-05
896.0,0.0002068699977826327
960.0,0.00011028136214008555
1024.0,-0.0003194150631316006
1152.0,-0.00019451297703199089
1280.0,-0.00030502703157253563
1408.0,-9.682099334895611e-05
1536.0,0.00020616095571313053
1664.0,-0.00033762832754291594
1792.0,5.344942837837152e-05
1920.0,-0.00011026170977856964
2048.0,-0.0003679690998978913
2304.0,-0.0002448044251650572
2560.0,0.00028811144875362515
2816.0,0.0006405259482562542
3072.0,0.0005002472316846251
3328.0,5.458044324768707e-05
3584.0,-0.0001644117437535897
3840.0,4.843102578888647e-05
4096.0,-8.239746239269152e-05
4608.0,0.0001596192887518555
5120.0,-0.0006268404540605843
5632.0,2.605093641250278e-06
6144.0,0.00013964023673906922
6656.0,-0.0001768295478541404
7168.0,0.0004151403554715216
7680.0,-1.894110391731374e-05
8192.0,-0.0007750362856313586
end
