version,3.0
numOfCh,1
type,point
parent_name,714af_3dot0-0dot1
ch_type,1_1
kcount,1
numberNandB,1
brightnessNandB,1
carpet pos,0
pc,0
Time (ms),CH1 Auto-Correlation
1.0,0.017686180770397186
2.0,0.01489912997931242
3.0,0.01299123466014862
4.0,0.011570124886929989
5.0,0.01032069232314825
6.0,0.009378556162118912
7.0,0.008636665530502796
8.0,0.007990175858139992
9.0,0.007513570133596659
10.0,0.007043813820928335
11.0,0.006519121117889881
12.0,0.006138904485851526
13.0,0.005884016398340464
14.0,0.005684053059667349
15.0,0.005595287773758173
16.0,0.005455410107970238
18.0,0.00508891511708498
20.0,0.004682281985878944
22.0,0.0044210804626345634
24.0,0.004144283011555672
26.0,0.0038344936911016703
28.0,0.0036516638938337564
30.0,0.003328245598822832
32.0,0.002999317366629839
36.0,0.002611139789223671
40.0,0.0025601645465940237
44.0,0.0022076538298279047
48.0,0.001860420685261488
52.0,0.0016452857526019216
56.0,0.001569573418237269
60.0,0.0015079803997650743
64.0,0.0014812187291681767
72.0,0.0010196368675678968
80.0,0.0004497854388318956
88.0,0.0003297322546131909
96.0,0.0003189549024682492
104.0,0.00011267876834608614
112.0,0.0001360501191811636
120.0,-7.703941082581878e-05
128.0,8.386601257370785e-05
144.0,-0.00010129289148608223
160.0,-0.00015291408635675907
176.0,9.374271758133546e-05
192.0,-0.00016864085046108812
208.0,-0.0004925248795188963
224.0,-0.0009453455568291247
240.0,-0.0008927964954636991
256.0,-0.0003223878447897732
288.0,-2.8589898647624068e-05
320.0,-0.0002762208168860525
352.0,-0.00015804378199391067
384.0,-0.0001658685359871015
416.0,8.534608059562743e-05
448.0,0.0008307016105391085
480.0,0.0008069163304753602
512.0,9.844185842666775e-05
576.0,-0.0004513438034337014
640.0,-0.0001541361416457221
704.0,0.0004726416082121432
768.0,0.0004341625317465514
832.0,0.000154864537762478
896.0,-0.00012090619566151872
960.0,-0.00045046606101095676
1024.0,-0.00047793006524443626
1152.0,-0.000390018307371065
1280.0,-0.0004539803776424378
1408.0,0.00014053870108909905
1536.0,-0.00025749567430466413
1664.0,-0.0005575573304668069
1792.0,0.00013284108717925847
1920.0,0.0001765260676620528
2048.0,-2.1561079847742803e-05
2304.0,0.0004302613961044699
2560.0,0.00053899094928056
2816.0,0.00010356365237385035
3072.0,0.0004492862499319017
3328.0,5.651214814861305e-05
3584.0,-0.0005738715408369899
3840.0,-0.0003467025817371905
4096.0,-0.00019299532868899405
4608.0,-0.00010003750503528863
5120.0,1.8076258129440248e-05
5632.0,0.0001258229312952608
6144.0,-1.6349928046111017e-05
6656.0,-2.9582864954136312e-05
7168.0,-0.00016432625125162303
7680.0,0.00013879587640985847
8192.0,0.0002349149581277743
end
