version,3.0
numOfCh,1
type,point
parent_name,714af_3dot0-0dot1
ch_type,1_1
kcount,1
numberNandB,1
brightnessNandB,1
carpet pos,0
pc,0
Time (ms),CH1 Auto-Correlation
1.0,0.016431348398327827
2.0,0.01365989726036787
3.0,0.011652256362140179
4.0,0.010206258855760098
5.0,0.008898270316421986
6.0,0.00789001863449812
7.0,0.007001983467489481
8.0,0.006371519062668085
9.0,0.0058065070770680904
10.0,0.005428331438452005
11.0,0.0051773954182863235
12.0,0.004894282203167677
13.0,0.004585606511682272
14.0,0.004301684442907572
15.0,0.0040353103540837765
16.0,0.0037956340238451958
18.0,0.0032070381566882133
20.0,0.0029020437505096197
22.0,0.0025910413824021816
24.0,0.002493193605914712
26.0,0.0024534761905670166
28.0,0.0024064495228230953
30.0,0.0022377343848347664
32.0,0.0022483235225081444
36.0,0.0020305467769503593
40.0,0.001794134732335806
44.0,0.0016179801896214485
48.0,0.0013305427273735404
52.0,0.0010652388446033
56.0,0.0008715280564501882
60.0,0.0006192090804688632
64.0,0.0003806656168308109
72.0,0.0002489665348548442
80.0,-0.00019474513828754425
88.0,-0.0005698008462786674
96.0,-0.00023453307221643627
104.0,-0.0001262835576198995
112.0,-0.0003746792208403349
120.0,-6.642392690991983e-06
128.0,-0.0006367798778228462
144.0,-0.000516062427777797
160.0,-0.00038729922380298376
176.0,-0.00055699358927086
192.0,-0.00028941393247805536
208.0,0.00016890509868972003
224.0,0.00036542382440529764
240.0,-0.0004178937815595418
256.0,-0.0003949035017285496
288.0,0.00014258902228903025
320.0,-0.00010110257426276803
352.0,0.0001884778612293303
384.0,0.00014017503417562693
416.0,0.0008537260582670569
448.0,0.0004173103370703757
480.0,-1.5268619790731464e-06
512.0,-0.00013420368486549705
576.0,0.0002947727916762233
640.0,0.0004959199577569962
704.0,-0.0003281693207100034
768.0,0.00043397568515501916
832.0,0.0005687129450961947
896.0,-0.00036631865077652037
960.0,0.0005712108104489744
1024.0,0.0004898643819615245
1152.0,-0.00019515659369062632
1280.0,-0.00012133295967942104
1408.0,-0.00029014976462349296
1536.0,9.911778033711016e-05
1664.0,8.33164231153205e-05
1792.0,7.219205144792795e-05
1920.0,-0.0007932320004329085
2048.0,-0.00014400662621483207
2304.0,-0.000575142097659409
2560.0,-0.00011930376058444381
2816.0,-0.00014373633894138038
3072.0,-0.0002610959636513144
3328.0,8.80429070093669e-05
3584.0,-0.00025582395028322935
3840.0,0.0004548342840280384
4096.0,-0.00015504271141253412
4608.0,0.00017281579494010657
5120.0,0.00016610813327133656
5632.0,0.0004405178187880665
6144.0,-0.00019213980704080313
6656.0,-0.0002584412577562034
7168.0,-0.0004427829699125141
7680.0,-8.004048140719533e-05
8192.0,-0.00048136289115063846
end
