version,3.0
numOfCh,1
type,point
parent_name,714af_3dot0-0dot1
ch_type,1_1
kcount,1
numberNandB,1
brightnessNandB,1
carpet pos,0
pc,0
Time (ms),CH1 Auto-Correlation
1.0,0.01822543516755104
2.0,0.01541656069457531
3.0,0.01326239574700594
4.0,0.011782612651586533
5.0,0.01054673083126545
6.0,0.009580794721841812
7.0,0.008698553778231144
8.0,0.00796689372509718
9.0,0.007340715266764164
10.0,0.006826246622949839
11.0,0.006409785710275173
12.0,0.0060900370590388775
13.0,0.0057472107000648975
14.0,0.005433934275060892
15.0,0.005081944167613983
16.0,0.004871048033237457
18.0,0.0043720039539039135
20.0,0.003951944876462221
22.0,0.003712304634973407
24.0,0.0033372368197888136
26.0,0.003004124155268073
28.0,0.0029220995493233204
30.0,0.002753526670858264
32.0,0.0027264554519206285
36.0,0.0024126835633069277
40.0,0.002138890326023102
44.0,0.0018515752162784338
48.0,0.0015587398083880544
52.0,0.0014656977728009224
56.0,0.0013239997206255794
60.0,0.0012015983229503036
64.0,0.0011959472903981805
72.0,0.00042428006418049335
80.0,0.0003223824023734778
88.0,0.001167929032817483
96.0,0.0015850983327254653
104.0,0.0015307300491258502
112.0,0.0012202390935271978
120.0,0.0010739517165347934
128.0,0.0009418519330210984
144.0,0.0011455791536718607
160.0,0.0008163250749930739
176.0,0.0007289860513992608
192.0,0.00025719316909089684
208.0,-0.00018032822117675096
224.0,-0.00016580290684942156
240.0,0.00044833478750661016
256.0,8.320282358909026e-05
288.0,8.596827683504671e-05
320.0,0.00025694785290397704
352.0,0.0002918741956818849
384.0,-0.00016405951464548707
416.0,-8.16152460174635e-05
448.0,-0.0003925416385754943
480.0,-5.734365913667716e-06
512.0,-0.0005678071174770594
576.0,-0.0008733611321076751
640.0,-0.0004891683347523212
704.0,-0.0006027685012668371
768.0,-9.442222653888166e-05
832.0,0.000709627871401608
896.0,1.6270183550659567e-05
960.0,0.0005721864872612059
1024.0,0.0006431718356907368
1152.0,0.00037592725129798055
1280.0,-8.088276808848605e-05
1408.0,-0.00017461842799093574
1536.0,0.00019005194189958274
1664.0,1.3844325621903408e-05
1792.0,1.2359690117591526e-05
1920.0,0.0004051409778185189
2048.0,-0.00013560954539570957
2304.0,0.0002087427710648626
2560.0,2.3474349291063845e-05
2816.0,-0.0005927775055170059
3072.0,-1.208996673085494e-05
3328.0,0.0002864576817955822
3584.0,7.795120473019779e-05
3840.0,2.0218683857819997e-05
4096.0,-0.00011791088036261499
4608.0,0.00010578788351267576
5120.0,-0.0003081555769313127
5632.0,0.00021661887876689434
6144.0,-0.00020888022845610976
6656.0,-4.275675746612251e-05
7168.0,-0.00027478515403345227
7680.0,-0.0004594202619045973
8192.0,0.00022655418433714658
end
