version,3.0
numOfCh,1
type,point
parent_name,ff67b_3dot0-0dot01
ch_type,1_1
kcount,1
numberNandB,1
brightnessNandB,1
carpet pos,0
pc,0
Time (ms),CH1 Auto-Correlation
1.0,0.025981895625591278
2.0,0.02114778757095337
3.0,0.01762993633747101
4.0,0.015202365815639496
5.0,0.013353805989027023
6.0,0.011801534332334995
7.0,0.010788069106638432
8.0,0.009964954107999802
9.0,0.009225492365658283
10.0,0.008558711037039757
11.0,0.008157282136380672
12.0,0.007672194391489029
13.0,0.007181145716458559
14.0,0.006772319320589304
15.0,0.006335109937936068
16.0,0.006112676113843918
18.0,0.005533518735319376
20.0,0.004882196895778179
22.0,0.004598101135343313
24.0,0.004308819770812988
26.0,0.003952132537961006
28.0,0.0036784152034670115
30.0,0.003389406017959118
32.0,0.003219839185476303
36.0,0.002506325487047434
40.0,0.0019704520236700773
44.0,0.002100838115438819
48.0,0.0018556746654212475
52.0,0.0016938603948801756
56.0,0.001654159976169467
60.0,0.0014568621991202235
64.0,0.0013267988106235862
72.0,0.0006111194379627705
80.0,0.0005532042123377323
88.0,0.0007433171267621219
96.0,0.0009059769217856228
104.0,0.000771976774558425
112.0,0.0012391770724207163
120.0,0.0012881855946034193
128.0,0.0015118729788810015
144.0,0.0012205307139083743
160.0,0.0007152272737585008
176.0,0.00019566512492019683
192.0,-0.0002276754385093227
208.0,-0.00043173611629754305
224.0,0.00032002481748349965
240.0,0.0005505819572135806
256.0,0.00012582681665662676
288.0,0.00023912944016046822
320.0,-0.0004108163120690733
352.0,-0.0005240270984359086
384.0,0.0005009341984987259
416.0,-5.932948988629505e-05
448.0,0.0005999644636176527
480.0,0.0011590162757784128
512.0,0.0004113393079023808
576.0,-0.00026048184372484684
640.0,0.0003128389944322407
704.0,-0.0005649123922921717
768.0,-0.0010795521084219217
832.0,-0.0009062538738362491
896.0,-0.0007076130714267492
960.0,-0.0003962127957493067
1024.0,-0.000619275844655931
1152.0,-0.0009739391389302909
1280.0,-5.156234692549333e-06
1408.0,0.0004051935102324933
1536.0,0.0003358311369083822
1664.0,0.0010188421001657844
1792.0,0.0005528887268155813
1920.0,0.0005789930582977831
2048.0,-0.00015712884487584233
2304.0,-0.00015327920846175402
2560.0,-0.00047199707478284836
2816.0,-0.0005738905747421086
3072.0,0.00016162633255589753
3328.0,0.00028752919752150774
3584.0,-0.00018792822083923966
3840.0,0.0002109289198415354
4096.0,-0.0005064408178441226
4608.0,-0.0002567813207861036
5120.0,0.0006241920636966825
5632.0,0.0002916347293648869
6144.0,-0.0008090150076895952
6656.0,-0.0002966616302728653
7168.0,0.00014007110439706594
7680.0,-0.0004059368511661887
8192.0,-0.0004364970955066383
end
