version,3.0
numOfCh,1
type,point
parent_name,ff67b_3dot0-0dot01
ch_type,1_1
kcount,1
numberNandB,1
brightnessNandB,1
carpet pos,0
pc,0
Time (ms),CH1 Auto-Correlation
1.0,0.02863312140107155
2.0,0.02406187728047371
3.0,0.02062973566353321
4.0,0.018224123865365982
5.0,0.01633232645690441
6.0,0.014979492872953415
7.0,0.013863679021596909
8.0,0.013189341872930527
9.0,0.012266025878489017
10.0,0.011409470811486244
11.0,0.010463721118867397
12.0,0.009761366061866283
13.0,0.008990510366857052
14.0,0.008348333649337292
15.0,0.007903986610472202
16.0,0.0076242717914283276
18.0,0.007420175708830357
20.0,0.006978504825383425
22.0,0.006659419741481543
24.0,0.006263736169785261
26.0,0.005718925502151251
28.0,0.00538285169750452
30.0,0.005230689886957407
32.0,0.005106747150421143
36.0,0.0045654792338609695
40.0,0.004235301166772842
44.0,0.0035114784259349108
48.0,0.003071774262934923
52.0,0.0028199360240250826
56.0,0.0030293005984276533
60.0,0.00297185149975121
64.0,0.0031522316858172417
72.0,0.003907008562237024
80.0,0.004399155732244253
88.0,0.0043234508484601974
96.0,0.0027266715187579393
104.0,0.002866568509489298
112.0,0.002229625592008233
120.0,0.0016843384364619851
128.0,0.0005814416217617691
144.0,0.000672780501190573
160.0,0.0011252089170739055
176.0,0.0007646552985534072
192.0,0.0003389859921298921
208.0,-0.001036591362208128
224.0,-0.002021769294515252
240.0,-0.0014272270491346717
256.0,-0.0010039155604317784
288.0,0.0007514497265219688
320.0,0.0002749664708971977
352.0,0.0003378278051968664
384.0,0.0010810456005856395
416.0,0.0010155156487599015
448.0,0.0007356751011684537
480.0,0.0004727830528281629
512.0,0.0006010487559251487
576.0,0.0011415296467021108
640.0,0.00044632385834120214
704.0,0.0004953090683557093
768.0,0.0003529255627654493
832.0,0.00018264894606545568
896.0,0.0002797498891595751
960.0,0.00012463958410080522
1024.0,-0.0002481048577465117
1152.0,-0.00010012178245233372
1280.0,-0.0004289353673812002
1408.0,0.0007081529474817216
1536.0,-0.00047550792805850506
1664.0,-0.0012750463793054223
1792.0,0.0007471487042494118
1920.0,-0.0002745047677308321
2048.0,0.0001078391433111392
2304.0,0.0006140311597846448
2560.0,-0.0007869095425121486
2816.0,0.00022690067999064922
3072.0,-0.0005999147542752326
3328.0,0.0007830433896742761
3584.0,0.0008448976441286504
3840.0,-0.0006593897705897689
4096.0,0.0022142210509628057
4608.0,0.0005472355405800045
5120.0,-0.00047062523663043976
5632.0,-0.0010053642326965928
6144.0,-0.0006049164803698659
6656.0,9.785067959455773e-05
7168.0,-0.0005199911538511515
7680.0,0.00032877078047022223
8192.0,0.0008564757881686091
end
