version,3.0
numOfCh,1
type,point
parent_name,ff67b_3dot0-0dot01
ch_type,1_1
kcount,1
numberNandB,1
brightnessNandB,1
carpet pos,0
pc,0
Time (ms),CH1 Auto-Correlation
1.0,0.027894318103790283
2.0,0.023617373779416084
3.0,0.020664498209953308
4.0,0.018643977120518684
5.0,0.017188135534524918
6.0,0.015858689323067665
7.0,0.015083014033734798
8.0,0.014323331415653229
9.0,0.013433363288640976
10.0,0.012505126185715199
11.0,0.011612722650170326
12.0,0.010984762571752071
13.0,0.010553843341767788
14.0,0.010127207264304161
15.0,0.009858541190624237
16.0,0.009771342389285564
18.0,0.009546590968966484
20.0,0.009124364703893661
22.0,0.008607586845755577
24.0,0.007956703193485737
26.0,0.007452729623764753
28.0,0.007363579701632261
30.0,0.00714863883331418
32.0,0.006895747967064381
36.0,0.006334756501019001
40.0,0.0058464668691158295
44.0,0.005265370476990938
48.0,0.004979773890227079
52.0,0.005039154551923275
56.0,0.004944117274135351
60.0,0.004697714000940323
64.0,0.004836619831621647
72.0,0.004090698901563883
80.0,0.0039618415758013725
88.0,0.004193272907286882
96.0,0.0042312536388635635
104.0,0.004218394868075848
112.0,0.004424420651048422
120.0,0.004403330385684967
128.0,0.004875065293163061
144.0,0.004575713537633419
160.0,0.004074915312230587
176.0,0.003778963815420866
192.0,0.0030359516385942698
208.0,0.0021998800802975893
224.0,0.0018113622209057212
240.0,0.0022604530677199364
256.0,0.0023945251014083624
288.0,0.002290039323270321
320.0,0.0022671103943139315
352.0,0.0013639813987538218
384.0,0.0008607449126429856
416.0,0.0023970799520611763
448.0,0.002544353250414133
480.0,0.002504023490473628
512.0,0.001561954035423696
576.0,0.0006573352147825062
640.0,0.001097059459425509
704.0,0.0002049244212685153
768.0,0.00040789684862829745
832.0,0.0009292677277699113
896.0,0.0007717748521827161
960.0,0.00014567136531695724
1024.0,-0.0003367549797985703
1152.0,-0.0011558665428310633
1280.0,-0.0016614814521744847
1408.0,-0.0008055354119278491
1536.0,-0.001022647600620985
1664.0,-0.0013710865750908852
1792.0,-0.0009495719568803906
1920.0,-0.000928536697756499
2048.0,-0.002367982640862465
2304.0,-0.002868094714358449
2560.0,-0.003181680804118514
2816.0,-0.002111581154167652
3072.0,-0.0006251340382732451
3328.0,-2.8907395972055383e-05
3584.0,-0.0005369620630517602
3840.0,0.0009673275053501129
4096.0,0.00020116455561947078
4608.0,0.0007148548611439764
5120.0,0.0015038037672638893
5632.0,0.0009249806171283126
6144.0,0.0008685371722094715
6656.0,0.0013730146456509829
7168.0,0.0006573764840140939
end
