version,3.0
numOfCh,1
type,point
parent_name,ff67b_3dot0-0dot01
ch_type,1_1
kcount,1
numberNandB,1
brightnessNandB,1
carpet pos,0
pc,0
Time (ms),CH1 Auto-Correlation
1.0,0.026136934757232666
2.0,0.021818479523062706
3.0,0.018975384533405304
4.0,0.016726231202483177
5.0,0.015650341287255287
6.0,0.014386892318725586
7.0,0.013093963265419006
8.0,0.01231961790472269
9.0,0.01147849578410387
10.0,0.010870084166526794
11.0,0.010323457419872284
12.0,0.0096801882609725
13.0,0.009253311902284622
14.0,0.00874418206512928
15.0,0.008232569321990013
16.0,0.008040359243750572
18.0,0.0076008387841284275
20.0,0.007099263835698366
22.0,0.00663520023226738
24.0,0.006100772880017757
26.0,0.0059219892136752605
28.0,0.005807496141642332
30.0,0.005527162458747625
32.0,0.005153770558536053
36.0,0.004454926587641239
40.0,0.004105980042368174
44.0,0.004203967284411192
48.0,0.0037458923179656267
52.0,0.0032030981965363026
56.0,0.0029281831812113523
60.0,0.0025777630507946014
64.0,0.0027969239745289087
72.0,0.002834444399923086
80.0,0.002623084932565689
88.0,0.0019745046738535166
96.0,0.0027239443734288216
104.0,0.0037206620909273624
112.0,0.003518979297950864
120.0,0.003096862928941846
128.0,0.0030553708784282207
144.0,0.0036586555652320385
160.0,0.0030643530189990997
176.0,0.0025482249911874533
192.0,0.0023085486609488726
208.0,0.002906309673562646
224.0,0.0028799567371606827
240.0,0.002613087883219123
256.0,0.0025375483091920614
288.0,0.001199966063722968
320.0,0.0009097784059122205
352.0,0.0021638106554746628
384.0,0.0019437262089923024
416.0,0.0013505411334335804
448.0,0.0004028076073154807
480.0,0.0017803569789975882
512.0,0.002393096685409546
576.0,0.002283313311636448
640.0,0.0016672415658831596
704.0,0.00040200212970376015
768.0,0.0005607142229564488
832.0,0.0006557258893735707
896.0,-0.00012495974078774452
960.0,-0.00035049155121669173
1024.0,2.6378433176432736e-05
1152.0,0.0007118239300325513
1280.0,0.0005646772915497422
1408.0,0.00021091052622068673
1536.0,-0.0005602017627097666
1664.0,-0.00012250858708284795
1792.0,0.0012021473376080394
1920.0,0.0006940496386960149
2048.0,-0.00043545672087930143
2304.0,-0.0006102969055064023
2560.0,-0.001218584948219359
2816.0,-0.001394570805132389
3072.0,-0.0008393493480980396
3328.0,-0.00042337848572060466
3584.0,0.0007676171371713281
3840.0,-0.00022151248413138092
4096.0,-0.000770153128542006
end
