version,3.0
numOfCh,1
type,point
parent_name,ff67b_3dot0-0dot01
ch_type,1_1
kcount,1
numberNandB,1
brightnessNandB,1
carpet pos,0
pc,0
Time (ms),CH1 Auto-Correlation
1.0,0.027581730857491493
2.0,0.023091403767466545
3.0,0.01992865651845932
4.0,0.017727000638842583
5.0,0.015951398760080338
6.0,0.014438463374972343
7.0,0.01315621379762888
8.0,0.01217709295451641
9.0,0.011273504234850407
10.0,0.01040178257972002
11.0,0.009591583162546158
12.0,0.009122274816036224
13.0,0.00878499448299408
14.0,0.008306201547384262
15.0,0.007965413853526115
16.0,0.007547728717327118
18.0,0.006553248967975378
20.0,0.005995358340442181
22.0,0.005620391108095646
24.0,0.005379038397222757
26.0,0.00512604508548975
28.0,0.004985196515917778
30.0,0.004665220621973276
32.0,0.004083862993866205
36.0,0.0035562398843467236
40.0,0.0027084427420049906
44.0,0.002544662682339549
48.0,0.002468317514285445
52.0,0.0018371016485616565
56.0,0.0014545251615345478
60.0,0.0012795565417036414
64.0,0.0010995423654094338
72.0,0.0008072920609265566
80.0,0.0005560723366215825
88.0,0.0003063016920350492
96.0,-0.00034915810101665556
104.0,-0.0013119507348164916
112.0,-0.0018717432394623756
120.0,-0.0016476353630423546
128.0,-0.0015974988928064704
144.0,-0.0006639283965341747
160.0,-7.265370368259028e-05
176.0,0.0009719817899167538
192.0,0.0012872887309640646
208.0,0.0009745281422510743
224.0,0.001215796684846282
240.0,0.0008088768227025867
256.0,0.0007086088880896568
288.0,-0.00028560651117004454
320.0,-0.0003216859477106482
352.0,2.4364237106055953e-05
384.0,-0.000421269767684862
416.0,-0.00016163874533958733
448.0,-0.0018115384737029672
480.0,-0.0005970292841084301
512.0,-0.00027054260135628283
576.0,0.00022144864487927407
640.0,0.000586439564358443
704.0,-0.00029734172858297825
768.0,0.0005570286302827299
832.0,0.0005707626696676016
896.0,-0.0002384176041232422
960.0,-0.00045408139703795314
1024.0,0.00037310944753699005
1152.0,-0.0016116900369524956
1280.0,-0.00032843626104295254
1408.0,-0.0009507940849289298
1536.0,5.722098649130203e-05
1664.0,-0.00038182633579708636
1792.0,-2.4051456421148032e-05
1920.0,0.00019434861314948648
2048.0,0.0011778156040236354
2304.0,0.00047695368994027376
2560.0,0.00015559066378045827
2816.0,7.337846182053909e-05
3072.0,-0.0003219225036446005
3328.0,-0.0004130186280235648
3584.0,-0.0002266343217343092
3840.0,0.0003230476868338883
4096.0,0.0005617738352157176
4608.0,0.0001813587441574782
5120.0,-0.0003133331483695656
5632.0,-0.00034151904401369393
6144.0,-0.000613679934758693
6656.0,-0.00010848369856830686
7168.0,-0.00028240284882485867
7680.0,0.0004211942432448268
8192.0,0.000262649729847908
end
