version,3.0
numOfCh,1
type,point
parent_name,ff67b_3dot0-0dot01
ch_type,1_1
kcount,1
numberNandB,1
brightnessNandB,1
carpet pos,0
pc,0
Time (ms),CH1 Auto-Correlation
1.0,0.037364181131124496
2.0,0.03340643271803856
3.0,0.030568942427635193
4.0,0.028392594307661057
5.0,0.02684028446674347
6.0,0.025419725105166435
7.0,0.02420833893120289
8.0,0.023245666176080704
9.0,0.02238406613469124
10.0,0.02184363082051277
11.0,0.021440839394927025
12.0,0.021098636090755463
13.0,0.02099788188934326
14.0,0.020646600052714348
15.0,0.02022532746195793
16.0,0.020215673372149467
18.0,0.020024340599775314
20.0,0.01920841634273529
22.0,0.018779650330543518
24.0,0.018410997465252876
26.0,0.018010323867201805
28.0,0.017719613388180733
30.0,0.017409514635801315
32.0,0.016850793734192848
36.0,0.016100237146019936
40.0,0.015709705650806427
44.0,0.015225940383970737
48.0,0.01491645909845829
52.0,0.014307132922112942
56.0,0.013849369250237942
60.0,0.014081895351409912
64.0,0.014204110018908978
72.0,0.01415976881980896
80.0,0.014427505433559418
88.0,0.014280091039836407
96.0,0.014128473587334156
104.0,0.013337069191038609
112.0,0.01276683621108532
120.0,0.012126821093261242
128.0,0.0112900510430336
144.0,0.01091099251061678
160.0,0.010699858888983727
176.0,0.011215943843126297
192.0,0.011942192912101746
208.0,0.011710540391504765
224.0,0.010452273301780224
240.0,0.009790084324777126
256.0,0.009961351752281189
288.0,0.009428136050701141
320.0,0.007460443302989006
352.0,0.006506611127406359
384.0,0.006087452173233032
416.0,0.005662666168063879
448.0,0.004799139220267534
480.0,0.004028137307614088
512.0,0.002634404692798853
576.0,0.0029992193449288607
640.0,0.0023775799199938774
704.0,0.0009614898590371013
768.0,0.0014587807236239314
832.0,0.0006137803429737687
896.0,0.00030389672610908747
960.0,0.001053601154126227
1024.0,0.0014927953016012907
1152.0,0.0010307695483788848
1280.0,0.0032223735470324755
1408.0,0.0032812803983688354
1536.0,0.0011532249627634883
1664.0,1.1787467883550562e-05
1792.0,-0.00017624121392145753
1920.0,0.0004951169830746949
2048.0,0.0003176999744027853
2304.0,-5.713246719096787e-05
2560.0,-0.0006203215452842414
2816.0,-0.00034929433604702353
3072.0,-0.0011787055991590023
3328.0,-0.0019645977299660444
3584.0,-0.0020212612580507994
3840.0,-0.002398870186880231
4096.0,-0.0012754803756251931
end
