version,3.0
numOfCh,1
type,point
parent_name,ff67b_3dot0-0dot01
ch_type,1_1
kcount,1
numberNandB,1
brightnessNandB,1
carpet pos,0
pc,0
Time (ms),CH1 Auto-Correlation
1.0,0.032000377774238586
2.0,0.02786659635603428
3.0,0.02504020743072033
4.0,0.02304440550506115
5.0,0.021570665761828423
6.0,0.020068364217877388
7.0,0.018944043666124344
8.0,0.0180538110435009
9.0,0.0171402208507061
10.0,0.016418425366282463
11.0,0.01565806195139885
12.0,0.015123836696147919
13.0,0.01487115491181612
14.0,0.014791429974138737
15.0,0.014560030773282051
16.0,0.013923129998147488
18.0,0.013235229067504406
20.0,0.012866836041212082
22.0,0.01215227972716093
24.0,0.011705202050507069
26.0,0.010976716876029968
28.0,0.010560820810496807
30.0,0.01002819649875164
32.0,0.009653636254370213
36.0,0.008869901299476624
40.0,0.008433453738689423
44.0,0.008439291268587112
48.0,0.007860404439270496
52.0,0.007334810681641102
56.0,0.007223319727927446
60.0,0.006908420007675886
64.0,0.006337347906082869
72.0,0.006062367465347052
80.0,0.005759484134614468
88.0,0.005845202598720789
96.0,0.005116566084325314
104.0,0.005104527343064547
112.0,0.003642144612967968
120.0,0.004199988208711147
128.0,0.005390204954892397
144.0,0.0061205471865832806
160.0,0.0042785475961863995
176.0,0.004790659062564373
192.0,0.005226589739322662
208.0,0.004584732465445995
224.0,0.0038453121669590473
240.0,0.0017251311801373959
256.0,0.0011241442989557981
288.0,0.002072294242680073
320.0,7.61022893129848e-05
352.0,0.000877946731634438
384.0,-0.0002331573487026617
416.0,0.00021464965539053082
448.0,0.00015415740199387074
480.0,0.002569630043581128
512.0,0.0016548119019716978
576.0,-0.00045665333163924515
640.0,-0.0024959563743323088
704.0,-0.0033493894152343273
768.0,-0.004619266372174025
832.0,-0.005648292135447264
896.0,-0.005864610895514488
960.0,-0.0030020566191524267
1024.0,-0.0032289852388203144
1152.0,-0.0031768418848514557
1280.0,-0.0020084248390048742
1408.0,-0.0005794484168291092
1536.0,0.003344514174386859
1664.0,0.001973657635971904
1792.0,0.0032230152282863855
1920.0,0.0005769293638877571
2048.0,4.83468065795023e-05
2304.0,-0.005184024106711149
2560.0,-0.0033015389926731586
2816.0,-0.003703569294884801
3072.0,0.0072494251653552055
3328.0,0.0053157079964876175
3584.0,0.007148711476475
3840.0,0.0021502014715224504
4096.0,-0.004972915630787611
end
