version,3.0
numOfCh,1
type,point
parent_name,ff67b_3dot0-0dot01
ch_type,1_1
kcount,1
numberNandB,1
brightnessNandB,1
carpet pos,0
pc,0
Time (ms),CH1 Auto-Correlation
1.0,0.02808479778468609
2.0,0.023725859820842743
3.0,0.020532315596938133
4.0,0.01819588616490364
5.0,0.016334977000951767
6.0,0.01474708691239357
7.0,0.013528894633054733
8.0,0.012699943035840988
9.0,0.011914669536054134
10.0,0.011183124966919422
11.0,0.010597418993711472
12.0,0.010036900639533997
13.0,0.009557746350765228
14.0,0.009153123013675213
15.0,0.008649853058159351
16.0,0.008176840841770172
18.0,0.007482212968170643
20.0,0.0070331827737390995
22.0,0.006355857010930777
24.0,0.005611836910247803
26.0,0.004808328580111265
28.0,0.004384842701256275
30.0,0.004059236496686935
32.0,0.004067384637892246
36.0,0.004031924065202475
40.0,0.004150738473981619
44.0,0.004178924020379782
48.0,0.00421255175024271
52.0,0.004560481756925583
56.0,0.005075700581073761
60.0,0.0049219015054404736
64.0,0.00463454844430089
72.0,0.00413342984393239
80.0,0.0034265914000570774
88.0,0.0030150259844958782
96.0,0.003055066103115678
104.0,0.0028918113093823195
112.0,0.0022939397022128105
120.0,0.0020463261753320694
128.0,0.002358120633289218
144.0,0.0024579677265137434
160.0,0.0020673531107604504
176.0,0.0008216270944103599
192.0,0.001201982144266367
208.0,0.0013824553461745381
224.0,0.0023576593957841396
240.0,0.0019568318966776133
256.0,0.001023861113935709
288.0,0.001676263753324747
320.0,0.002751509193331003
352.0,0.0027970480732619762
384.0,0.003033268731087446
416.0,0.002984524006024003
448.0,0.0041839140467345715
480.0,0.0037944363430142403
512.0,0.003249954665079713
576.0,0.002090792404487729
640.0,0.001307849888689816
704.0,0.001055856584571302
768.0,0.0020459815859794617
832.0,0.0017311349511146545
896.0,0.0014305653749033809
960.0,0.001595851848833263
1024.0,0.0010889878030866385
1152.0,0.0009766279254108667
1280.0,0.0008288589306175709
1408.0,0.0007514214375987649
1536.0,0.00028777934494428337
1664.0,-0.0007384870550595224
1792.0,-0.00038628518814221025
1920.0,-0.0005455253412947059
2048.0,-0.0015451406361535192
2304.0,-0.00046570078120566905
2560.0,-0.001079397276043892
2816.0,-0.000249181583058089
3072.0,-0.00012053295358782634
3328.0,-0.0005540868733078241
3584.0,-7.466277747880667e-05
3840.0,0.00011420375813031569
4096.0,0.00045312411384657025
4608.0,0.0002612868556752801
5120.0,-4.313281806389568e-06
5632.0,2.5734958398970775e-05
6144.0,-0.0006171254208311439
6656.0,-0.0012547923251986504
7168.0,-0.0015910284128040075
7680.0,-0.0023688196670264006
8192.0,-0.0021150216925889254
end
