version,3.0
numOfCh,1
type,point
parent_name,ff67b_3dot0-0dot01
ch_type,1_1
kcount,1
numberNandB,1
brightnessNandB,1
carpet pos,0
pc,0
Time (ms),CH1 Auto-Correlation
1.0,0.031586650758981705
2.0,0.027687380090355873
3.0,0.024758826941251755
4.0,0.022740434855222702
5.0,0.021160736680030823
6.0,0.01992369070649147
7.0,0.018808966502547264
8.0,0.01787269301712513
9.0,0.017145903781056404
10.0,0.01650773175060749
11.0,0.015877079218626022
12.0,0.015262611210346222
13.0,0.014783994294703007
14.0,0.014257218688726425
15.0,0.01374882459640503
16.0,0.013348323293030262
18.0,0.012559968046844006
20.0,0.012214281596243382
22.0,0.011942273005843163
24.0,0.011743762530386448
26.0,0.011289789341390133
28.0,0.010728557594120502
30.0,0.01022155862301588
32.0,0.009764273650944233
36.0,0.009045543149113655
40.0,0.008358818478882313
44.0,0.007851018570363522
48.0,0.007483418565243483
52.0,0.007412725128233433
56.0,0.006889892276376486
60.0,0.007179467007517815
64.0,0.006959787104278803
72.0,0.006457583513110876
80.0,0.006409176625311375
88.0,0.0068532368168234825
96.0,0.00756192347034812
104.0,0.007295976858586073
112.0,0.007400310132652521
120.0,0.007369689177721739
128.0,0.006891575176268816
144.0,0.005892337765544653
160.0,0.0053640445694327354
176.0,0.004774847533553839
192.0,0.004323823377490044
208.0,0.004967584740370512
224.0,0.005066695623099804
240.0,0.004883216693997383
256.0,0.0045337919145822525
288.0,0.004292482975870371
320.0,0.0035874813329428434
352.0,0.00433729961514473
384.0,0.00436305021867156
416.0,0.0044395290315151215
448.0,0.005428851582109928
480.0,0.004602352157235146
512.0,0.004133120644837618
576.0,0.0025166089180856943
640.0,0.0013518065679818392
704.0,0.0004086866101715714
768.0,0.0010042916983366013
832.0,0.0010093656601384282
896.0,0.0002870818425435573
960.0,0.0004827332159038633
1024.0,-0.0013709267368540168
1152.0,-0.0006870375364087522
1280.0,-0.0006917104474268854
1408.0,0.0008536686073057353
1536.0,0.0002732910215854645
1664.0,-0.00030872353818267584
1792.0,0.0004814775020349771
1920.0,0.0015619094483554363
2048.0,-0.0010023341747000813
2304.0,-0.0008796722977422178
2560.0,-0.0016037306049838662
2816.0,-0.0010747232008725405
3072.0,-0.0031495224684476852
3328.0,-0.0017297012964263558
3584.0,-0.000673223752528429
3840.0,0.00047337845899164677
4096.0,0.003144248854368925
4608.0,0.0016516095492988825
5120.0,-0.0003139411273878068
5632.0,-0.0005501165287569165
6144.0,-0.0007036106544546783
6656.0,-0.002283751266077161
7168.0,-0.006503772921860218
7680.0,-0.00986580178141594
8192.0,-0.009152042679488659
end
