version,3.0
numOfCh,1
type,point
parent_name,ff67b_3dot0-0dot01
ch_type,1_1
kcount,1
numberNandB,1
brightnessNandB,1
carpet pos,0
pc,0
Time (ms),CH1 Auto-Correlation
1.0,0.03703651204705238
2.0,0.032395265996456146
3.0,0.02899765595793724
4.0,0.02657691016793251
5.0,0.024717234075069427
6.0,0.02326529659330845
7.0,0.02208588272333145
8.0,0.0210953988134861
9.0,0.02012753114104271
10.0,0.019096000120043755
11.0,0.018101125955581665
12.0,0.017399726435542107
13.0,0.01682606339454651
14.0,0.016302596777677536
15.0,0.01599200628697872
16.0,0.01593497022986412
18.0,0.015084845013916492
20.0,0.014107288792729378
22.0,0.013239300809800625
24.0,0.012711494229733944
26.0,0.01236850768327713
28.0,0.011834436096251011
30.0,0.011410349048674107
32.0,0.010948861949145794
36.0,0.010208046063780785
40.0,0.010339027270674706
44.0,0.009998750872910023
48.0,0.00961265992373228
52.0,0.009332521818578243
56.0,0.008763059042394161
60.0,0.008185775950551033
64.0,0.007729775737971067
72.0,0.008249616250395775
80.0,0.007926198653876781
88.0,0.0073926132172346115
96.0,0.007409179583191872
104.0,0.0061024753376841545
112.0,0.00566756771877408
120.0,0.005866797640919685
128.0,0.005229532718658447
144.0,0.004182110540568829
160.0,0.0033089998178184032
176.0,0.003423860063776374
192.0,0.0019467074889689684
208.0,0.0003269202134106308
224.0,-0.00025736974203027785
240.0,-0.000926996290218085
256.0,0.00021621679479721934
288.0,-0.0008478312520310283
320.0,-0.0006657865596935153
352.0,-0.0003733826451934874
384.0,-0.000656917633023113
416.0,0.00015247504052240402
448.0,0.0002001117536565289
480.0,0.001032869447953999
512.0,0.0007573355105705559
576.0,0.0007592652691528201
640.0,0.0008562980801798403
704.0,0.00037154005258344114
768.0,0.000252635742072016
832.0,0.0005284154904074967
896.0,0.00010930495773209259
960.0,0.0008251254912465811
1024.0,0.0003917428548447788
1152.0,-5.4224143241299316e-05
1280.0,-0.0015523837646469474
1408.0,-0.0016136617632582784
1536.0,-0.0018791070906445384
1664.0,-0.0004965293919667602
1792.0,0.0007443514768965542
1920.0,-0.0006219252245500684
2048.0,-0.0006537289591506124
2304.0,0.0001242386206286028
2560.0,-9.26702850847505e-05
2816.0,0.0007006139494478703
3072.0,-0.00010985465632984415
3328.0,0.0002679118188098073
3584.0,-0.00037055640132166445
3840.0,0.00021382934937719256
4096.0,-0.00013409153325483203
4608.0,0.0002082066348521039
5120.0,0.00014300714246928692
5632.0,0.0005419021472334862
6144.0,-0.00013572948228102177
6656.0,0.0006501558236777782
7168.0,0.0004515201726462692
7680.0,0.0010970751754939556
8192.0,0.0005426629795692861
end
