version,3.0
numOfCh,1
type,point
parent_name,ff67b_3dot0-0dot01
ch_type,1_1
kcount,1
numberNandB,1
brightnessNandB,1
carpet pos,0
pc,0
Time (ms),CH1 Auto-Correlation
1.0,0.02610144205391407
2.0,0.021664902567863464
3.0,0.01876235567033291
4.0,0.016576554626226425
5.0,0.015078142285346985
6.0,0.013793941587209702
7.0,0.012561706826090813
8.0,0.01156860776245594
9.0,0.010778645984828472
10.0,0.01008574292063713
11.0,0.009647089056670666
12.0,0.009196686558425426
13.0,0.008800912648439407
14.0,0.008621151559054852
15.0,0.00828901119530201
16.0,0.007824434898793697
18.0,0.007415316998958588
20.0,0.007202656473964453
22.0,0.00726228067651391
24.0,0.006652595475316048
26.0,0.005836021155118942
28.0,0.005140040069818497
30.0,0.005115618463605642
32.0,0.005511138122528791
36.0,0.0055412654764950275
40.0,0.005075063556432724
44.0,0.004535814747214317
48.0,0.003218780504539609
52.0,0.002825171919539571
56.0,0.0033545836340636015
60.0,0.0033365576528012753
64.0,0.003326872829347849
72.0,0.0034801664296537638
80.0,0.0031670136377215385
88.0,0.0028182314708828926
96.0,0.002251355443149805
104.0,0.00257275253534317
112.0,0.0026929224841296673
120.0,0.002644770545884967
128.0,0.0026371872518211603
144.0,0.0027698047924786806
160.0,0.002154418732970953
176.0,0.0013834863202646375
192.0,0.002112472662702203
208.0,0.0026433186139911413
224.0,0.002036262070760131
240.0,0.0021235800813883543
256.0,0.0019512978615239263
288.0,0.0009593591676093638
320.0,0.0014743834035471082
352.0,0.0005905504222027957
384.0,0.00024771568132564425
416.0,0.0004627809103112668
448.0,0.0008757372852414846
480.0,0.0004240251437295228
512.0,0.0006224956014193594
576.0,-0.00044768399675376713
640.0,-6.440404104068875e-05
704.0,-0.00048114362289197743
768.0,-0.0014640867011621594
832.0,-0.0007005158695392311
896.0,-0.0007434593280777335
960.0,0.0002685512008611113
1024.0,-0.0008598555577918887
1152.0,6.783334538340569e-05
1280.0,0.00024568935623392463
1408.0,0.0001390022225677967
1536.0,0.0005586850456893444
1664.0,0.0009861394064500928
1792.0,0.0023735722061246634
1920.0,0.0025967757683247328
2048.0,0.0008694546413607895
2304.0,0.00024878187105059624
2560.0,-0.0014333227882161736
2816.0,-0.0009115409920923412
3072.0,-0.0005003170226700604
3328.0,-0.0001724178873701021
3584.0,0.0007057469338178635
3840.0,0.0011315662413835526
4096.0,-0.0003834870003629476
4608.0,-0.0005356722977012396
5120.0,-0.001140058971941471
5632.0,7.660808478249237e-05
6144.0,-0.0027117012068629265
6656.0,-0.0019208521116524935
7168.0,-0.0006369444890879095
7680.0,0.0015612913994118571
8192.0,-0.0011244628112763166
end
