version,3.0
numOfCh,1
type,point
parent_name,ff67b_3dot0-0dot01
ch_type,1_1
kcount,1
numberNandB,1
brightnessNandB,1
carpet pos,0
pc,0
Time (ms),CH1 Auto-Correlation
1.0,0.02780952677130699
2.0,0.023274265229701996
3.0,0.020160581916570663
4.0,0.017926685512065887
5.0,0.016149554401636124
6.0,0.014811712317168713
7.0,0.013779575936496258
8.0,0.012774701230227947
9.0,0.011755679734051228
10.0,0.01081796269863844
11.0,0.010072433389723301
12.0,0.009336871095001698
13.0,0.009045339189469814
14.0,0.00870527047663927
15.0,0.008196557871997356
16.0,0.007908876053988934
18.0,0.007822718471288681
20.0,0.007746908813714981
22.0,0.007431237958371639
24.0,0.0070326668210327625
26.0,0.006773504428565502
28.0,0.006081848405301571
30.0,0.005636453628540039
32.0,0.005187078844755888
36.0,0.004590930417180061
40.0,0.004048964008688927
44.0,0.003880053758621216
48.0,0.0038792158011347055
52.0,0.003896574955433607
56.0,0.003670640289783478
60.0,0.0033633243292570114
64.0,0.0032851453870534897
72.0,0.003493039170280099
80.0,0.003186009358614683
88.0,0.0035771550610661507
96.0,0.0031400953885167837
104.0,0.0032792757265269756
112.0,0.0036073834635317326
120.0,0.003470362862572074
128.0,0.0034462378825992346
144.0,0.003672853345051408
160.0,0.0034719216637313366
176.0,0.00215042638592422
192.0,0.002748340368270874
208.0,0.0025656463112682104
224.0,0.002576116705313325
240.0,0.0023743584752082825
256.0,0.0011953853536397219
288.0,0.0017140358686447144
320.0,0.0019171279855072498
352.0,0.0025650030001997948
384.0,0.0011953504290431738
416.0,0.0010331005323678255
448.0,0.0013921757927164435
480.0,0.0014075167709961534
512.0,0.000363046710845083
576.0,-0.000463930336991325
640.0,-0.0009156183805316687
704.0,0.00012971337127964944
768.0,-0.0017286267830058932
832.0,-0.0011835119221359491
896.0,-0.0009448284981772304
960.0,-0.0010789948282763362
1024.0,-7.559799996670336e-05
1152.0,-0.00010648253373801708
1280.0,-0.00018053069652523845
1408.0,0.000497846573125571
1536.0,0.0007654467481188476
1664.0,0.00045290711568668485
1792.0,-4.06428735004738e-05
1920.0,0.0002541902649682015
2048.0,0.0007247565663419664
2304.0,-0.00030646088998764753
2560.0,9.791272896109149e-05
2816.0,-0.00020744683570228517
3072.0,0.0001285663602175191
3328.0,-0.0008772960864007473
3584.0,-0.0004090201109647751
3840.0,-0.00010756304254755378
4096.0,0.0017672389512881637
4608.0,-0.0006472943350672722
5120.0,-0.0017029171576723456
5632.0,0.0006564147188328207
6144.0,1.688628617557697e-05
6656.0,-0.0029382281936705112
7168.0,-0.0022854905109852552
7680.0,-0.0007091729785315692
8192.0,0.00033849370083771646
end
