version,3.0
numOfCh,1
type,point
parent_name,ff67b_3dot0-0dot01
ch_type,1_1
kcount,1
numberNandB,1
brightnessNandB,1
carpet pos,0
pc,0
Time (ms),CH1 Auto-Correlation
1.0,0.02829410694539547
2.0,0.02341095171868801
3.0,0.019923344254493713
4.0,0.017505086958408356
5.0,0.015769565477967262
6.0,0.014188779518008232
7.0,0.012779038399457932
8.0,0.011502068489789963
9.0,0.010293392464518547
10.0,0.009219637140631676
11.0,0.008387841284275055
12.0,0.007933168672025204
13.0,0.0076619889587163925
14.0,0.007434993516653776
15.0,0.00733333732932806
16.0,0.006980687379837036
18.0,0.006461651064455509
20.0,0.0056691658683121204
22.0,0.005293893627822399
24.0,0.0050145359709858894
26.0,0.004978435579687357
28.0,0.004764903336763382
30.0,0.0043557328172028065
32.0,0.00414834963157773
36.0,0.0033381558023393154
40.0,0.002847586525604129
44.0,0.002874071476981044
48.0,0.003140554064884782
52.0,0.003146018600091338
56.0,0.0029029613360762596
60.0,0.0029799193143844604
64.0,0.003072668332606554
72.0,0.0018426085589453578
80.0,0.00046977109741419554
88.0,5.1497692766133696e-05
96.0,0.000611071998719126
104.0,0.0009736932115629315
112.0,0.0010779465083032846
120.0,0.0014512414345517755
128.0,0.0015318614896386862
144.0,0.0006830368656665087
160.0,0.000939974735956639
176.0,0.0008214520639739931
192.0,0.0012130195973441005
208.0,0.000486816163174808
224.0,0.0002709499094635248
240.0,7.883260695962235e-05
256.0,0.00039243168430402875
288.0,-0.0004667718312703073
320.0,-4.858433749177493e-05
352.0,0.0007376584690064192
384.0,0.0009660592186264694
416.0,0.001154908211901784
448.0,0.001286427373997867
480.0,0.0006219513597898185
512.0,0.0009307332220487297
576.0,0.0018274405738338828
640.0,0.001243102946318686
704.0,0.0007104540127329528
768.0,0.0006198355695232749
832.0,0.0008378310594707727
896.0,0.000661297352053225
960.0,0.00029878393979743123
1024.0,0.0013726332690566778
1152.0,0.0001820903707994148
1280.0,-0.00025163672398775816
1408.0,0.0002977183321490884
1536.0,0.00031350436620414257
1664.0,0.00019281274580862373
1792.0,-0.0006045418558642268
1920.0,0.0001559664378874004
2048.0,0.0003382935537956655
2304.0,-0.00026240223087370396
2560.0,0.000514780345838517
2816.0,-0.0006536970031447709
3072.0,-9.20353559195064e-05
3328.0,6.726384890498593e-05
3584.0,-0.0008618030115030706
3840.0,-0.0003377743414603174
4096.0,8.153542876243591e-05
4608.0,8.495187103108037e-06
5120.0,0.0002159379655495286
5632.0,0.0004909825511276722
6144.0,9.346143770017079e-07
6656.0,-2.76119499176275e-05
7168.0,-0.0003756691003218293
7680.0,-0.00026459689252078533
8192.0,-0.0006756777875125408
end
