version,3.0
numOfCh,1
type,point
parent_name,ff67b_3dot0-0dot01
ch_type,1_1
kcount,1
numberNandB,1
brightnessNandB,1
carpet pos,0
pc,0
Time (ms),CH1 Auto-Correlation
1.0,0.026319541037082672
2.0,0.021581627428531647
3.0,0.018259096890687943
4.0,0.01580803282558918
5.0,0.01409217156469822
6.0,0.012655713595449924
7.0,0.011572588235139847
8.0,0.010559875518083572
9.0,0.009902448393404484
10.0,0.009289012290537357
11.0,0.008740927092730999
12.0,0.008181779645383358
13.0,0.007617909926921129
14.0,0.007151061203330755
15.0,0.006789428181946278
16.0,0.006405383348464966
18.0,0.0054221791215240955
20.0,0.004765903111547232
22.0,0.004177527502179146
24.0,0.0038817317690700293
26.0,0.0034340640995651484
28.0,0.002996605122461915
30.0,0.002859372878447175
32.0,0.002707104664295912
36.0,0.0025522634387016296
40.0,0.0024769881274551153
44.0,0.002545019378885627
48.0,0.002119900193065405
52.0,0.001681643072515726
56.0,0.0013952695298939943
60.0,0.00121515232603997
64.0,0.0010935954051092267
72.0,0.0014182660961523652
80.0,0.0022143039386719465
88.0,0.002063500229269266
96.0,0.0014747546520084143
104.0,0.0005798673373647034
112.0,0.0006074088159948587
120.0,0.0005500856204889715
128.0,0.0011607232736423612
144.0,0.0002735704474616796
160.0,-0.0005370003054849803
176.0,-0.0008936405065469444
192.0,-0.0010507680708542466
208.0,-0.001321538002230227
224.0,-0.0005594827234745026
240.0,-0.00048635961138643324
256.0,-0.0006069426890462637
288.0,-0.0005625008489005268
320.0,-0.0005087939207442105
352.0,0.00013930851127952337
384.0,-0.0006209684070199728
416.0,-0.000516666506882757
448.0,-0.0013277166290208697
480.0,-3.575344180717366e-06
512.0,-0.00046898514847271144
576.0,-0.0007517189951613545
640.0,-0.00046271804603748024
704.0,0.00015814288053661585
768.0,-0.00020479850354604423
832.0,0.00021696831390727311
896.0,0.0006118725286796689
960.0,0.0007209794130176306
1024.0,0.0003200903593096882
1152.0,0.0003570926783140749
1280.0,-0.00045374975888989866
1408.0,-0.0005189398070797324
1536.0,-0.0006990010151639581
1664.0,0.0005323647055774927
1792.0,0.0002934011572506279
1920.0,-0.00025557412300258875
2048.0,0.0001472391450079158
2304.0,3.751362601178698e-05
2560.0,0.0002787044213619083
2816.0,-0.00017110772023443133
3072.0,-0.0009737989748828113
3328.0,0.0008732039132155478
3584.0,5.1003062253585085e-06
3840.0,-0.0008437614305876195
4096.0,-0.00013242957356851548
4608.0,3.871781154884957e-05
5120.0,-0.00011777439794968814
5632.0,6.99877564329654e-05
6144.0,-0.00045747682452201843
6656.0,0.00014414600445888937
7168.0,-0.0004830075486097485
7680.0,0.0004676816170103848
8192.0,-0.0003737543011084199
end
