version,3.0
numOfCh,1
type,point
parent_name,ff67b_3dot0-0dot01
ch_type,1_1
kcount,1
numberNandB,1
brightnessNandB,1
carpet pos,0
pc,0
Time (ms),CH1 Auto-Correlation
1.0,0.026891332119703293
2.0,0.021871084347367287
3.0,0.018304603174328804
4.0,0.015608689747750759
5.0,0.013579079881310463
6.0,0.011955407448112965
7.0,0.010717246681451797
8.0,0.009657686576247215
9.0,0.008792810142040253
10.0,0.008053961209952831
11.0,0.007402379531413317
12.0,0.006863792426884174
13.0,0.006240608170628548
14.0,0.005751250311732292
15.0,0.00541988480836153
16.0,0.005132847465574741
18.0,0.004894798155874014
20.0,0.004743895959109068
22.0,0.004638516344130039
24.0,0.004615271929651499
26.0,0.0044600749388337135
28.0,0.0044376542791724205
30.0,0.00405458826571703
32.0,0.003516665194183588
36.0,0.002515197265893221
40.0,0.0018314194167032838
44.0,0.001733515877276659
48.0,0.0014564855955541134
52.0,0.0016483308281749487
56.0,0.0016299959970638156
60.0,0.0013890753034502268
64.0,0.0009111176477745175
72.0,0.001087687094695866
80.0,0.0010823766933754086
88.0,0.0008518573013134301
96.0,0.0004521886876318604
104.0,0.00021935823315288872
112.0,0.0009664226090535522
120.0,0.0005130573990754783
128.0,-0.00023204884200822562
144.0,-0.00042696052696555853
160.0,-1.7865684640128165e-05
176.0,-0.0009935172274708748
192.0,-0.0007253069779835641
208.0,-0.000441421550931409
224.0,-0.0004069191054441035
240.0,-0.0008451913017779589
256.0,-0.0010806388454511762
288.0,-0.0005236404831521213
320.0,-0.0008145226747728884
352.0,-3.631890649558045e-05
384.0,0.00026245368644595146
416.0,-0.000262400513747707
448.0,-0.0008324123336933553
480.0,-0.00033605616772547364
512.0,0.0005185590707696974
576.0,-7.418700261041522e-05
640.0,-0.0005013627815060318
704.0,0.0003595080925151706
768.0,0.0011996382381767035
832.0,0.0008889748132787645
896.0,-0.000468886224552989
960.0,-0.00029768256354145706
1024.0,-0.0007424798677675426
1152.0,-0.0008423974504694343
1280.0,-0.00025807629572227597
1408.0,0.00048722547944635153
1536.0,0.0005399131332524121
1664.0,-7.561109669040889e-05
1792.0,-0.00018973523401655257
1920.0,-0.00047774857375770807
2048.0,-0.00014619730063714087
2304.0,0.0004478551272768527
2560.0,-0.0005262524355202913
2816.0,-0.00035903402022086084
3072.0,0.00018799002282321453
3328.0,-0.0004284560272935778
3584.0,2.3431559384334832e-05
3840.0,-1.728431561787147e-05
4096.0,-8.769219675741624e-06
4608.0,0.0003112264967057854
5120.0,0.00011057485244236887
5632.0,0.000120004806376528
6144.0,0.0002046163281193003
6656.0,-2.837837928382214e-05
7168.0,-0.0002577334817033261
7680.0,-0.00026114002685062587
8192.0,6.49716384941712e-05
end
