version,3.0
numOfCh,1
type,point
parent_name,ff67b_3dot0-0dot01
ch_type,1_1
kcount,1
numberNandB,1
brightnessNandB,1
carpet pos,0
pc,0
Time (ms),CH1 Auto-Correlation
1.0,0.025390950962901115
2.0,0.020552195608615875
3.0,0.01724853739142418
4.0,0.014703483320772648
5.0,0.012781722471117973
6.0,0.011387261562049389
7.0,0.010414962656795979
8.0,0.009686817415058613
9.0,0.008781435899436474
10.0,0.007919063791632652
11.0,0.007153471000492573
12.0,0.006587355397641659
13.0,0.006024850066751242
14.0,0.0056124962866306305
15.0,0.005060326308012009
16.0,0.004699637647718191
18.0,0.00405911635607481
20.0,0.0037232975009828806
22.0,0.00364316557534039
24.0,0.0037475673016160727
26.0,0.0033941094297915697
28.0,0.00284636695869267
30.0,0.0025073483120650053
32.0,0.002222389215603471
36.0,0.0016827897634357214
40.0,0.0011603939346969128
44.0,0.0013180318055674434
48.0,0.0010981701780110598
52.0,0.0008400093647651374
56.0,0.0007963411626406014
60.0,0.0002867492148652673
64.0,-0.00045127503108233213
72.0,0.00034761865390464664
80.0,0.0004034151788800955
88.0,-1.3884156942367554e-05
96.0,-0.00028235651552677155
104.0,-0.0005639257142320275
112.0,-0.0006965902866795659
120.0,-0.00011929756874451414
128.0,0.0002597564016468823
144.0,0.0003485625493340194
160.0,-0.0003117981250397861
176.0,-0.0005627360660582781
192.0,-0.000774745421949774
208.0,-0.0007445755181834102
224.0,-0.000509926991071552
240.0,-2.0228404537192546e-05
256.0,0.0005457925726659596
288.0,0.0008282707422040403
320.0,0.0008916335646063089
352.0,0.0011025018757209182
384.0,0.0003103609778918326
416.0,-0.0003796016098931432
448.0,-0.0002631334646139294
480.0,-0.0006868711207062006
512.0,-0.00043001407175324857
576.0,0.00013768546341452748
640.0,0.00024202829808928072
704.0,-0.0004607548180501908
768.0,-2.0375175608933205e-06
832.0,-0.0004810632672160864
896.0,1.155855534307193e-05
960.0,0.0003061038441956043
1024.0,1.3046797903371044e-05
1152.0,-0.00035728159127756953
1280.0,0.00014345181989483535
1408.0,-0.0003302569966763258
1536.0,-0.00014680660387966782
1664.0,-9.170142584480345e-05
1792.0,-0.00038126809522509575
1920.0,-0.0005332053988240659
2048.0,0.00010235029185423627
2304.0,5.14594887590647e-07
2560.0,0.0001938112691277638
2816.0,3.938212830689736e-05
3072.0,8.764254744164646e-05
3328.0,0.00015557008737232536
3584.0,-0.00010950063733616844
3840.0,2.8676849979092367e-05
4096.0,9.153140854323283e-05
4608.0,-0.00011378569615771994
5120.0,-0.00016566942213103175
5632.0,-9.69727843767032e-05
6144.0,-0.00010688491602195427
6656.0,0.00023999922268558294
7168.0,-0.00024732653400860727
7680.0,-6.79452350595966e-05
8192.0,5.053865606896579e-05
end
