version,3.0
numOfCh,1
type,point
parent_name,ff67b_3dot0-0dot01
ch_type,1_1
kcount,1
numberNandB,1
brightnessNandB,1
carpet pos,0
pc,0
Time (ms),CH1 Auto-Correlation
1.0,0.026103422045707703
2.0,0.020992150530219078
3.0,0.01737523265182972
4.0,0.014728497713804245
5.0,0.01272372342646122
6.0,0.011078319512307644
7.0,0.009813585318624973
8.0,0.008804438635706902
9.0,0.008149668574333191
10.0,0.007501582615077496
11.0,0.007146836258471012
12.0,0.006754126399755478
13.0,0.006470064166933298
14.0,0.0061838049441576
15.0,0.00588827021420002
16.0,0.005501850508153439
18.0,0.0049999551847577095
20.0,0.004388066008687019
22.0,0.0036801707465201616
24.0,0.003046730300411582
26.0,0.002715399721637368
28.0,0.0024746328126639128
30.0,0.0024285127874463797
32.0,0.002270619384944439
36.0,0.0022422384936362505
40.0,0.002003281842917204
44.0,0.0018578240415081382
48.0,0.0024068537168204784
52.0,0.0025968472473323345
56.0,0.0021157728042453527
60.0,0.0018904617754742503
64.0,0.0018937417771667242
72.0,0.001575017930008471
80.0,0.0015639252960681915
88.0,0.001450838753953576
96.0,0.0015676883049309254
104.0,0.0013868339592590928
112.0,0.0006710599409416318
120.0,0.0008972674258984625
128.0,0.0010166832944378257
144.0,0.0003600312920752913
160.0,0.00035108605516143143
176.0,0.00047797724255360663
192.0,-0.0002711849519982934
208.0,-0.0002658340963535011
224.0,0.0008090277551673353
240.0,0.0010171581525355577
256.0,0.0016661880072206259
288.0,0.0002999052812810987
320.0,0.0008771528373472393
352.0,3.5369266697671264e-05
384.0,0.0005128165939822793
416.0,0.00032562040723860264
448.0,-0.0003622653894126415
480.0,0.0003293346962891519
512.0,-0.000618036778178066
576.0,-0.00012672929733525962
640.0,0.0006234267493709922
704.0,-2.7995076379738748e-05
768.0,0.000351307651726529
832.0,0.0007448197575286031
896.0,0.0009567819070070982
960.0,0.0008090378833003342
1024.0,0.00039257275057025254
1152.0,0.00043756896047852933
1280.0,0.0003966900985687971
1408.0,0.000297728693112731
1536.0,-3.859033313347027e-05
1664.0,-0.00046237112837843597
1792.0,0.00022202981926966459
1920.0,-0.0005688887322321534
2048.0,0.00013413577107712626
2304.0,0.0009751524194143713
2560.0,-3.0813385819783434e-05
2816.0,-0.0006843580049462616
3072.0,-0.00019787505152635276
3328.0,0.0005432316102087498
3584.0,0.0003494526317808777
3840.0,0.00012817616516258568
4096.0,6.167708488646895e-05
4608.0,0.00010949566058116034
5120.0,3.234669065932394e-06
5632.0,-0.0001967463904293254
6144.0,-0.0005201555322855711
6656.0,-0.00047071382869035006
7168.0,-0.00014040958194527775
7680.0,-0.0009440414723940194
8192.0,3.389256744412705e-05
end
