version,3.0
numOfCh,1
type,point
parent_name,ff67b_3dot0-0dot01
ch_type,1_1
kcount,1
numberNandB,1
brightnessNandB,1
carpet pos,0
pc,0
Time (ms),CH1 Auto-Correlation
1.0,0.025526994839310646
2.0,0.02092505246400833
3.0,0.01771346479654312
4.0,0.0151747427880764
5.0,0.013275403529405594
6.0,0.011819706298410892
7.0,0.010667792521417141
8.0,0.009569354355335236
9.0,0.008706660941243172
10.0,0.00791939441114664
11.0,0.007239808794111013
12.0,0.006715090479701757
13.0,0.006178811192512512
14.0,0.005747600458562374
15.0,0.005513312295079231
16.0,0.005351116880774498
18.0,0.0050285388715565205
20.0,0.004605851601809263
22.0,0.004479873459786177
24.0,0.004101159051060677
26.0,0.003607878228649497
28.0,0.003275984665378928
30.0,0.002772514009848237
32.0,0.002268497832119465
36.0,0.0018549469532445073
40.0,0.0014315363951027393
44.0,0.001150969648733735
48.0,0.001089957426302135
52.0,0.000814148981589824
56.0,0.000832729390822351
60.0,0.0006286122370511293
64.0,0.0006933227414265275
72.0,0.0010202925186604261
80.0,0.0005900112446397543
88.0,0.0003363699361216277
96.0,-0.00011129432823508978
104.0,0.00021906726760789752
112.0,-0.0006375779048539698
120.0,-0.0006408668123185635
128.0,-0.0004441627243068069
144.0,-4.1862817852234e-06
160.0,0.0002831471210811287
176.0,0.0012593597639352083
192.0,0.0015215764287859201
208.0,0.0010792042594403028
224.0,0.001507901237346232
240.0,0.0012912345118820667
256.0,0.000825669034384191
288.0,9.692950698081404e-05
320.0,0.0008599065477028489
352.0,0.0009414181695319712
384.0,-0.00011497439845697954
416.0,0.00010472227586433291
448.0,-5.738072286476381e-05
480.0,-0.0001730801595840603
512.0,-0.00015591277042403817
576.0,0.00023087703448254615
640.0,0.0004443908983375877
704.0,0.0003196059260517359
768.0,-0.0003090467944275588
832.0,-0.00011675515997922048
896.0,0.0004683601437136531
960.0,0.00021282571833580732
1024.0,0.0005643675103783607
1152.0,-0.00025955421733669937
1280.0,0.00016703552682884037
1408.0,0.00031217746436595917
1536.0,-0.00011950337648158893
1664.0,0.0008316540042869747
1792.0,-0.000323471991578117
1920.0,0.00011361288488842547
2048.0,-0.00018287287093698978
2304.0,-8.34138918435201e-05
2560.0,-0.00020268697699066252
2816.0,5.833405157318339e-05
3072.0,-0.0004116848576813936
3328.0,-0.00044063382665626705
3584.0,2.6054740374092944e-05
3840.0,2.5540422939229757e-05
4096.0,-0.00031916488660499454
4608.0,-7.453137368429452e-05
5120.0,0.0003878733841702342
5632.0,0.00038911745650693774
6144.0,-0.00022097161854617298
6656.0,8.847856952343136e-05
7168.0,0.00020908834994770586
7680.0,-0.0003844908787868917
8192.0,-0.0002807277487590909
end
