version,3.0
numOfCh,1
type,point
parent_name,ff67b_3dot0-0dot01
ch_type,1_1
kcount,1
numberNandB,1
brightnessNandB,1
carpet pos,0
pc,0
Time (ms),CH1 Auto-Correlation
1.0,0.027607766911387444
2.0,0.0227824654430151
3.0,0.019369127228856087
4.0,0.016686605289578438
5.0,0.014694968238472939
6.0,0.013112355023622513
7.0,0.011827589012682438
8.0,0.010785480029881
9.0,0.00981384702026844
10.0,0.009074565023183823
11.0,0.008533759042620659
12.0,0.007954824715852737
13.0,0.007357790134847164
14.0,0.0069466582499444485
15.0,0.006630245130509138
16.0,0.00620215805247426
18.0,0.005462023429572582
20.0,0.004567598924040794
22.0,0.003761389059945941
24.0,0.0035623349249362946
26.0,0.003522064071148634
28.0,0.0032914914190769196
30.0,0.003256001276895404
32.0,0.003196832025423646
36.0,0.0028868038207292557
40.0,0.002683966187760234
44.0,0.002344846725463867
48.0,0.0019791799131780863
52.0,0.0016871518455445766
56.0,0.0016010092804208398
60.0,0.0014923035632818937
64.0,0.001365514937788248
72.0,0.0009626853279769421
80.0,0.0010548511054366827
88.0,0.0006717295618727803
96.0,0.0011094287037849426
104.0,0.0012144680367782712
112.0,0.0010855909204110503
120.0,0.0007792733958922327
128.0,0.0003778388781938702
144.0,-0.00011536133388290182
160.0,0.000318699749186635
176.0,-0.0009175974992103875
192.0,-0.0011639643926173449
208.0,-0.00045540157589130104
224.0,-0.0004959447542205453
240.0,-0.0009504565969109535
256.0,-7.631543121533468e-05
288.0,-9.454291102883872e-06
320.0,-0.0004930339055135846
352.0,-0.0004204925207886845
384.0,-0.00011951620399486274
416.0,-0.00023634285025764257
448.0,-0.0006172139546833932
480.0,-0.0007842571940273046
512.0,-0.00032719908631406724
576.0,0.00015008488844614476
640.0,0.0006976582808420062
704.0,0.0004609395982697606
768.0,-5.700841575162485e-05
832.0,-0.0002616379933897406
896.0,-0.00026191544020548463
960.0,-0.0007238176767714322
1024.0,-0.0004801512695848942
1152.0,-0.00016181326645892113
1280.0,0.0005360624054446816
1408.0,-0.00013811036478728056
1536.0,1.869810512289405e-05
1664.0,0.00023045844864100218
1792.0,-0.0002508697216399014
1920.0,-0.0003040779265575111
2048.0,-0.0003196806355845183
2304.0,-0.00013094399764668196
2560.0,2.9778055250062607e-05
2816.0,0.00047289402573369443
3072.0,0.00022875003924127668
3328.0,5.192620665184222e-05
3584.0,-0.0007303268648684025
3840.0,-0.00043869513319805264
4096.0,5.996846084599383e-05
4608.0,-0.00021845004812348634
5120.0,0.00015337268996518105
5632.0,-6.918107101228088e-05
6144.0,0.00010155396739719436
6656.0,-6.787476013414562e-05
7168.0,0.00047619588440284133
7680.0,-0.0007680994458496571
8192.0,0.0004996596835553646
end
