version,3.0
numOfCh,1
type,point
parent_name,ff67b_3dot0-0dot01
ch_type,1_1
kcount,1
numberNandB,1
brightnessNandB,1
carpet pos,0
pc,0
Time (ms),CH1 Auto-Correlation
1.0,0.026339638978242874
2.0,0.02148573473095894
3.0,0.01815596967935562
4.0,0.015721512958407402
5.0,0.01378249004483223
6.0,0.012419704347848892
7.0,0.01135766226798296
8.0,0.01033096294850111
9.0,0.009534435346722603
10.0,0.008590025827288628
11.0,0.007888741791248322
12.0,0.007437038701027632
13.0,0.007072619628161192
14.0,0.0067011225037276745
15.0,0.006367754656821489
16.0,0.006131742149591446
18.0,0.005649772472679615
20.0,0.005327014718204737
22.0,0.005168246105313301
24.0,0.004922378808259964
26.0,0.004614741075783968
28.0,0.004163529723882675
30.0,0.0039549595676362514
32.0,0.0034873452968895435
36.0,0.0027599202003329992
40.0,0.0028486535884439945
44.0,0.0026161742862313986
48.0,0.00217158580198884
52.0,0.0021074749529361725
56.0,0.002581013133749366
60.0,0.002699407981708646
64.0,0.0022848553489893675
72.0,0.002224999712780118
80.0,0.0020757841411978006
88.0,0.0015850012423470616
96.0,0.0012368438765406609
104.0,0.0015378744574263692
112.0,0.0014149833004921675
120.0,0.001171644777059555
128.0,0.0013170662568882108
144.0,0.0014450786402449012
160.0,0.0004905316163785756
176.0,0.0008998353150673211
192.0,0.0008243335760198534
208.0,1.6433155906270258e-05
224.0,0.00020942537230439484
240.0,0.0010559207294136286
256.0,0.0007627681479789317
288.0,0.0007322691380977631
320.0,0.000912339542992413
352.0,0.0007528949645347893
384.0,0.0011323061771690845
416.0,0.0013736143009737134
448.0,0.0008848229772411287
480.0,0.0007544546388089657
512.0,0.0003418028063606471
576.0,0.0015437391120940447
640.0,0.000662857317365706
704.0,2.1140869648661464e-05
768.0,-0.0003720197710208595
832.0,-0.0002840983506757766
896.0,0.0005992547376081347
960.0,0.0011632208479568362
1024.0,-0.0004537109343800694
1152.0,-0.00010750146611826494
1280.0,-0.00010620478860801086
1408.0,-0.0004662223218474537
1536.0,-0.0005713545833714306
1664.0,-0.000986570375971496
1792.0,-1.2803789104509633e-05
1920.0,-0.0007355398847721517
2048.0,-0.0005724261282011867
2304.0,-0.0009431464713998139
2560.0,-0.0002962632570415735
2816.0,0.0002490593178663403
3072.0,0.0005386611446738243
3328.0,0.0005619560834020376
3584.0,0.0004324543697293848
3840.0,0.00022256479132920504
4096.0,0.00042065285379067063
4608.0,-0.00016994139878079295
5120.0,-0.0008626902708783746
5632.0,-0.0002863990084733814
6144.0,3.91605390177574e-05
6656.0,0.00016432224947493523
7168.0,0.0011553883086889982
7680.0,0.00042601852328516543
8192.0,-0.000721626915037632
end
