version,3.0
numOfCh,1
type,point
parent_name,ff67b_3dot0-0dot01
ch_type,1_1
kcount,1
numberNandB,1
brightnessNandB,1
carpet pos,0
pc,0
Time (ms),CH1 Auto-Correlation
1.0,0.039983250200748444
2.0,0.03562106564640999
3.0,0.032718226313591
4.0,0.030462654307484627
5.0,0.0285473745316267
6.0,0.02718665823340416
7.0,0.026196666061878204
8.0,0.025262415409088135
9.0,0.024333424866199493
10.0,0.02345949411392212
11.0,0.022595509886741638
12.0,0.021729731932282448
13.0,0.020895719528198242
14.0,0.020353754982352257
15.0,0.019817344844341278
16.0,0.019298966974020004
18.0,0.018413566052913666
20.0,0.017158914357423782
22.0,0.015872513875365257
24.0,0.015181146562099457
26.0,0.01475417148321867
28.0,0.014435886405408382
30.0,0.01409075502306223
32.0,0.013889968395233154
36.0,0.01362871564924717
40.0,0.013179196044802666
44.0,0.01223594881594181
48.0,0.01207201462239027
52.0,0.012052899226546288
56.0,0.011419568210840225
60.0,0.010882408358156681
64.0,0.010307435877621174
72.0,0.009413840249180794
80.0,0.00844590738415718
88.0,0.007779968902468681
96.0,0.0070482287555933
104.0,0.006439513061195612
112.0,0.005578335374593735
120.0,0.005271635949611664
128.0,0.005959128029644489
144.0,0.006545837968587875
160.0,0.00643855519592762
176.0,0.0057664914056658745
192.0,0.0068864114582538605
208.0,0.009061169810593128
224.0,0.008988137356936932
240.0,0.009182729758322239
256.0,0.009945079684257507
288.0,0.007681600749492645
320.0,0.0067953672260046005
352.0,0.006422409787774086
384.0,0.005741001106798649
416.0,0.004433480091392994
448.0,0.0034856784623116255
480.0,0.004732839297503233
512.0,0.00450533302500844
576.0,0.004383713938295841
640.0,0.002924997126683593
704.0,0.0011854463955387473
768.0,-0.000352048606146127
832.0,0.00016245567530859262
896.0,0.0017327787354588509
960.0,0.0020272452384233475
1024.0,-0.00034088946995325387
1152.0,6.483351171482354e-05
1280.0,0.001426363829523325
1408.0,0.0009392417850904167
1536.0,0.0015735792694613338
1664.0,0.0010378415463492274
1792.0,0.0039038246031850576
1920.0,0.0030906531028449535
2048.0,0.003392870305106044
2304.0,0.0015818557003512979
2560.0,-0.0004904993693344295
2816.0,-0.002563164569437504
3072.0,-0.0038086327258497477
3328.0,-0.004449150059372187
3584.0,-0.004349106922745705
3840.0,-0.0032987655140459538
4096.0,-0.0010946146212518215
4608.0,-0.0030821156688034534
5120.0,-0.0035038236528635025
5632.0,-0.0032017685007303953
6144.0,-0.003062413539737463
6656.0,-0.0021579682361334562
7168.0,-0.002400945872068405
7680.0,-0.002383254934102297
8192.0,0.002334234770387411
end
