version,3.0
numOfCh,1
type,point
parent_name,ff67b_3dot0-0dot01
ch_type,1_1
kcount,1
numberNandB,1
brightnessNandB,1
carpet pos,0
pc,0
Time (ms),CH1 Auto-Correlation
1.0,0.03207123279571533
2.0,0.027621157467365265
3.0,0.02449890226125717
4.0,0.022047562524676323
5.0,0.02013767696917057
6.0,0.018636612221598625
7.0,0.017454437911510468
8.0,0.01650173030793667
9.0,0.01572653464972973
10.0,0.015196286141872406
11.0,0.014657633379101753
12.0,0.013930472545325756
13.0,0.013400277122855186
14.0,0.013093204237520695
15.0,0.013042384758591652
16.0,0.012990694493055344
18.0,0.012420197017490864
20.0,0.01221198495477438
22.0,0.011724130250513554
24.0,0.011314485222101212
26.0,0.01116255298256874
28.0,0.010951980017125607
30.0,0.010677956975996494
32.0,0.010490582324564457
36.0,0.009639632888138294
40.0,0.008965483866631985
44.0,0.008480366319417953
48.0,0.00828742329031229
52.0,0.008009810000658035
56.0,0.007742997724562883
60.0,0.0070911552757024765
64.0,0.0066819642670452595
72.0,0.00604963256046176
80.0,0.006308477837592363
88.0,0.005796260200440884
96.0,0.005508848465979099
104.0,0.0045313602313399315
112.0,0.003971399739384651
120.0,0.003997890278697014
128.0,0.0038630401249974966
144.0,0.0038260016590356827
160.0,0.003310761647298932
176.0,0.0030465894378721714
192.0,0.0024597495794296265
208.0,0.0014151555951684713
224.0,0.0010061310604214668
240.0,0.0020215713884681463
256.0,0.0033617480657994747
288.0,0.004208902828395367
320.0,0.003187332069501281
352.0,0.00278257904574275
384.0,0.0030418564565479755
416.0,0.0024567507207393646
448.0,0.0025815388653427362
480.0,0.001632388331927359
512.0,0.0017094147624447942
576.0,0.0017894014017656446
640.0,0.0004347126523498446
704.0,0.0006801359122619033
768.0,0.0010140340309590101
832.0,-2.6430874640936963e-05
896.0,-0.00012168834655312821
960.0,0.0008857223438099027
1024.0,0.0005570084904320538
1152.0,-0.0026188637129962444
1280.0,-0.0017202695598825812
1408.0,-0.0016977026825770736
1536.0,-0.002089228481054306
1664.0,-0.0029648004565387964
1792.0,3.614069282775745e-05
1920.0,-0.0012148243840783834
2048.0,-0.0007176087237894535
2304.0,-0.00042757944902405143
2560.0,-0.0014130746712908149
2816.0,-0.0027551427483558655
3072.0,-0.0034895569551736116
3328.0,-0.003544186009094119
3584.0,-0.003980760462582111
3840.0,-0.002585392678156495
4096.0,0.0010358671424910426
end
