version,3.0
numOfCh,1
type,point
parent_name,ff67b_3dot0-0dot01
ch_type,1_1
kcount,1
numberNandB,1
brightnessNandB,1
carpet pos,0
pc,0
Time (ms),CH1 Auto-Correlation
1.0,0.025545598939061165
2.0,0.021451158449053764
3.0,0.018590323626995087
4.0,0.016483571380376816
5.0,0.014962033368647099
6.0,0.01365670282393694
7.0,0.01250364352017641
8.0,0.01160600408911705
9.0,0.01078102644532919
10.0,0.010160485282540321
11.0,0.009618380106985569
12.0,0.009226717054843903
13.0,0.009096869267523289
14.0,0.008776228874921799
15.0,0.008224676363170147
16.0,0.007868725806474686
18.0,0.007590288762003183
20.0,0.007378681562840939
22.0,0.007219976745545864
24.0,0.006939471699297428
26.0,0.006401127204298973
28.0,0.0061378516256809235
30.0,0.005708532407879829
32.0,0.005225555971264839
36.0,0.004210915416479111
40.0,0.003684579860419035
44.0,0.0035620552953332663
48.0,0.002494287211447954
52.0,0.001952765858732164
56.0,0.0022506718523800373
60.0,0.002572036115452647
64.0,0.002625249093398452
72.0,0.0030932952649891376
80.0,0.0036139844451099634
88.0,0.0037593769375234842
96.0,0.0037379616405814886
104.0,0.00355786201544106
112.0,0.0028465238865464926
120.0,0.0026999630499631166
128.0,0.002729120198637247
144.0,0.0024370464961975813
160.0,0.000520654022693634
176.0,0.00020438770297914743
192.0,0.0012497688876464963
208.0,0.0004869606054853648
224.0,0.0007776885759085417
240.0,-0.0012194598093628883
256.0,-0.0015243469970300794
288.0,-0.0014212924288585782
320.0,-8.39538643049309e-06
352.0,7.218255632324144e-05
384.0,-0.0014408181887120008
416.0,-0.000770343467593193
448.0,-0.0011812523007392883
480.0,-0.0007457960746251047
512.0,-0.0006852799560874701
576.0,-0.0008240944007411599
640.0,-0.0008983762818388641
704.0,-0.0007986932178027928
768.0,-0.0005934084765613079
832.0,-0.0013401028700172901
896.0,-0.001483276253566146
960.0,-0.0015403246507048607
1024.0,-0.002101318910717964
1152.0,-0.0011955025838688016
1280.0,0.0009810896590352058
1408.0,0.000901681138202548
1536.0,-0.0003480110317468643
1664.0,0.0002431781467748806
1792.0,-0.0009251768351532519
1920.0,6.0734571889042854e-05
2048.0,0.002701507182791829
2304.0,0.00023088048328645527
2560.0,-0.00021121410827618092
2816.0,-0.00022208721202332526
3072.0,-0.0015536806313320994
3328.0,0.000668969179969281
3584.0,0.0012618660693988204
3840.0,-0.00020059205417055637
4096.0,6.657185440417379e-05
end
