version,3.0
numOfCh,1
type,point
parent_name,ff67b_3dot0-0dot01
ch_type,1_1
kcount,1
numberNandB,1
brightnessNandB,1
carpet pos,0
pc,0
Time (ms),CH1 Auto-Correlation
1.0,0.02751815691590309
2.0,0.022587841376662254
3.0,0.019174981862306595
4.0,0.016503218561410904
5.0,0.0146213099360466
6.0,0.013047022745013237
7.0,0.011769168078899384
8.0,0.01076362282037735
9.0,0.010037136264145374
10.0,0.009142780676484108
11.0,0.008470417931675911
12.0,0.007936482317745686
13.0,0.007512407843023539
14.0,0.0072219823487102985
15.0,0.006830634083598852
16.0,0.006532599218189716
18.0,0.006065463647246361
20.0,0.005269399378448725
22.0,0.0045128329657018185
24.0,0.0042092036455869675
26.0,0.0037550078704953194
28.0,0.0034021157771348953
30.0,0.003122840542346239
32.0,0.0028812834061682224
36.0,0.002774561755359173
40.0,0.002145567210391164
44.0,0.0014989642659202218
48.0,0.0014609675854444504
52.0,0.0016372320242226124
56.0,0.0016470574773848057
60.0,0.0014378405176103115
64.0,0.0015786325093358755
72.0,0.0012695047771558166
80.0,0.0010570961749181151
88.0,0.0011384830577298999
96.0,0.0005657088477164507
104.0,0.0006036775885149837
112.0,0.0006082088220864534
120.0,0.0005333276349119842
128.0,0.0007781211752444506
144.0,0.0010986179113388062
160.0,0.0009134536376222968
176.0,0.0008089354960247874
192.0,0.0012375360820442438
208.0,0.0014372552977874875
224.0,0.0012965055648237467
240.0,0.0010027523385360837
256.0,0.00055690883891657
288.0,0.0009012052323669195
320.0,0.00036722500226460397
352.0,-0.00019680986588355154
384.0,4.400679608806968e-05
416.0,-0.0003617689944803715
448.0,-0.00019140075892210007
480.0,-9.794626384973526e-05
512.0,-0.0013446398079395294
576.0,-0.001321549410931766
640.0,0.0003305764985270798
704.0,-0.000501970702316612
768.0,-0.00014701166946906596
832.0,0.00027141274767927825
896.0,0.0003948074590880424
960.0,0.0003716672654263675
1024.0,-0.000499777845107019
1152.0,-0.0003184995730407536
1280.0,-0.0011737762251868844
1408.0,-0.0007529363501816988
1536.0,-0.00012827567115891725
1664.0,-0.0006590096745640039
1792.0,0.00012795257498510182
1920.0,-0.00026428475393913686
2048.0,-0.00012735402560792863
2304.0,-0.000551801233086735
2560.0,0.00046530654071830213
2816.0,0.0004621950211003423
3072.0,5.3424231737153605e-05
3328.0,4.3020052544306964e-05
3584.0,0.000278998602880165
3840.0,-0.0004551342863123864
4096.0,-0.0003258211072534323
4608.0,-2.571757067926228e-05
5120.0,0.00029173167422413826
5632.0,-1.1746911695809104e-05
6144.0,-0.00016808031068649143
6656.0,-0.0001482386578572914
7168.0,-0.0004054816672578454
7680.0,9.063770266948268e-05
8192.0,0.0005629376973956823
end
