version,3.0
numOfCh,1
type,point
parent_name,ff67b_3dot0-0dot01
ch_type,1_1
kcount,1
numberNandB,1
brightnessNandB,1
carpet pos,0
pc,0
Time (ms),CH1 Auto-Correlation
1.0,0.03036482445895672
2.0,0.02565644308924675
3.0,0.022233089432120323
4.0,0.019591188058257103
5.0,0.017540058121085167
6.0,0.015743792057037354
7.0,0.014408230781555176
8.0,0.013394113630056381
9.0,0.012577313929796219
10.0,0.01190687995404005
11.0,0.0114008579403162
12.0,0.010808850638568401
13.0,0.0103639867156744
14.0,0.00978888850659132
15.0,0.009412087500095367
16.0,0.009120321832597256
18.0,0.008491069078445435
20.0,0.007897548377513885
22.0,0.0074032507836818695
24.0,0.006957556586712599
26.0,0.006535295397043228
28.0,0.006070815958082676
30.0,0.005965785123407841
32.0,0.005909238941967487
36.0,0.0058797551319003105
40.0,0.005269467830657959
44.0,0.004735149443149567
48.0,0.004463628400117159
52.0,0.004580190405249596
56.0,0.004356159828603268
60.0,0.004471572581678629
64.0,0.004121924750506878
72.0,0.00425691157579422
80.0,0.004349714145064354
88.0,0.004195937886834145
96.0,0.004555069841444492
104.0,0.003577980911359191
112.0,0.0028328371699899435
120.0,0.0027723475359380245
128.0,0.0028365112375468016
144.0,0.0030793535988777876
160.0,0.0024331603199243546
176.0,0.0020013300236314535
192.0,0.001353612751699984
208.0,0.001285871840082109
224.0,0.0021119299344718456
240.0,0.0021268855780363083
256.0,0.001775286509655416
288.0,0.0020381417125463486
320.0,0.0019094583112746477
352.0,0.0020112202037125826
384.0,0.0020110367331653833
416.0,0.0014679916203022003
448.0,0.0015917018754407763
480.0,0.001022647018544376
512.0,0.0010964395478367805
576.0,0.0013436756562441587
640.0,0.0015448135090991855
704.0,0.0017029272858053446
768.0,0.001542191836051643
832.0,0.0006920921732671559
896.0,0.0008858377696014941
960.0,0.001532633905299008
1024.0,0.00037492302362807095
1152.0,0.0005506981979124248
1280.0,0.0005896752700209618
1408.0,0.0005803701933473349
1536.0,0.0017626212211325765
1664.0,0.001916402019560337
1792.0,0.00040503934724256396
1920.0,0.0005791677976958454
2048.0,0.00020868353021796793
2304.0,0.0006938616861589253
2560.0,-0.00019147111743222922
2816.0,-0.0006774382200092077
3072.0,-0.00038617837708443403
3328.0,-0.0011213659308850765
3584.0,-0.0012799374526366591
3840.0,0.00026925321435555816
4096.0,-0.0003075023414567113
4608.0,-7.038504554657266e-05
5120.0,-0.001316626905463636
5632.0,-0.0012313765473663807
6144.0,-0.0006394544616341591
6656.0,-0.0012732096947729588
7168.0,-0.0015736023196950555
7680.0,-0.0010315136751160026
8192.0,-0.0004656596574932337
end
