version,3.0
numOfCh,1
type,point
parent_name,ff67b_3dot0-0dot01
ch_type,1_1
kcount,1
numberNandB,1
brightnessNandB,1
carpet pos,0
pc,0
Time (ms),CH1 Auto-Correlation
1.0,0.02748909965157509
2.0,0.02294212020933628
3.0,0.019638225436210632
4.0,0.017229417338967323
5.0,0.015103726647794247
6.0,0.013594471849501133
7.0,0.012468109838664532
8.0,0.011452566832304
9.0,0.010880150832235813
10.0,0.01029122807085514
11.0,0.009774681180715561
12.0,0.009239953942596912
13.0,0.008714355528354645
14.0,0.008281983435153961
15.0,0.007914683781564236
16.0,0.007537239231169224
18.0,0.007064639125019312
20.0,0.006861819885671139
22.0,0.006609066389501095
24.0,0.006593734957277775
26.0,0.0066286115907132626
28.0,0.006520811002701521
30.0,0.005933213047683239
32.0,0.00561036542057991
36.0,0.004691657144576311
40.0,0.0038150218315422535
44.0,0.0033431306947022676
48.0,0.0035217944532632828
52.0,0.003576786955818534
56.0,0.0031808409839868546
60.0,0.0026314803399145603
64.0,0.002632705494761467
72.0,0.002846429357305169
80.0,0.0024999056477099657
88.0,0.0023886128328740597
96.0,0.0028437466826289892
104.0,0.0033118841238319874
112.0,0.0035503364633768797
120.0,0.003570745699107647
128.0,0.0034053893759846687
144.0,0.0025182419922202826
160.0,0.002450243104249239
176.0,0.0018071006052196026
192.0,0.0014154326636344194
208.0,0.0018956834683194757
224.0,0.002559858839958906
240.0,0.0026847210247069597
256.0,0.002871072618290782
288.0,0.0023421437945216894
320.0,0.0024768859148025513
352.0,0.003018708201125264
384.0,0.0037863734178245068
416.0,0.0035947265569120646
448.0,0.003252483671531081
480.0,0.002601427026093006
512.0,0.002874251687899232
576.0,0.00203888863325119
640.0,0.0021283358801156282
704.0,0.0024219758342951536
768.0,0.0028061496559530497
832.0,0.001417304389178753
896.0,0.002488052938133478
960.0,0.0020829318091273308
1024.0,0.0023833734448999166
1152.0,0.0024010511115193367
1280.0,0.0013797602150589228
1408.0,0.0014719394966959953
1536.0,0.0014873143518343568
1664.0,0.0009666142868809402
1792.0,0.0008425487903878093
1920.0,0.0016804267652332783
2048.0,0.000830870820209384
2304.0,0.0009843604639172554
2560.0,0.0005257527809590101
2816.0,8.894097845768556e-05
3072.0,0.0002422601100988686
3328.0,-0.000670376350171864
3584.0,-0.00015422748401761055
3840.0,-0.001088843448087573
4096.0,-0.0004350121889729053
4608.0,-0.0011841151863336563
5120.0,-0.0015710258157923818
5632.0,-0.002102356869727373
6144.0,-0.0033163519110530615
6656.0,-0.0027833289932459593
7168.0,-0.0025741655845195055
7680.0,-0.0021211544517427683
8192.0,-0.0018756049685180187
end
