version,3.0
numOfCh,1
type,point
parent_name,714af_0dot4-1dot0
ch_type,1_1
kcount,1
numberNandB,1
brightnessNandB,1
carpet pos,0
pc,0
Time (ms),CH1 Auto-Correlation
1.0,0.1039465069770813
2.0,0.09941083192825317
3.0,0.09548491984605789
4.0,0.09191256016492844
5.0,0.08858172595500946
6.0,0.08541577309370041
7.0,0.08235879242420197
8.0,0.07938513159751892
9.0,0.07666822522878647
10.0,0.07424470782279968
11.0,0.0720834881067276
12.0,0.0700916200876236
13.0,0.06811269372701645
14.0,0.06616734713315964
15.0,0.06449706107378006
16.0,0.06265319138765335
18.0,0.05901475250720978
20.0,0.05572153255343437
22.0,0.052659131586551666
24.0,0.05003911629319191
26.0,0.04773315414786339
28.0,0.04597257077693939
30.0,0.04411753639578819
32.0,0.042325347661972046
36.0,0.03908631578087807
40.0,0.03609561547636986
44.0,0.033764127641916275
48.0,0.03145313262939453
52.0,0.02929048240184784
56.0,0.027307767421007156
60.0,0.025462714955210686
64.0,0.02322380244731903
72.0,0.020954685285687447
80.0,0.019218310713768005
88.0,0.01863858848810196
96.0,0.01742401532828808
104.0,0.015733208507299423
112.0,0.013962958008050919
120.0,0.012759549543261528
128.0,0.011736100539565086
144.0,0.010443569160997868
160.0,0.009985857643187046
176.0,0.010943337343633175
192.0,0.010759174823760986
208.0,0.007551470771431923
224.0,0.006218134891241789
240.0,0.00641203997656703
256.0,0.005862829275429249
288.0,0.001868822262622416
320.0,8.144861203618348e-05
352.0,-0.0010834279237315059
384.0,0.0010978600475937128
416.0,0.000789516547229141
448.0,-0.0008592840167693794
480.0,-0.0008500838303007185
512.0,-0.0001127303039538674
576.0,-0.004079646896570921
640.0,-0.008504712022840977
704.0,-0.004524821415543556
768.0,-0.005324946250766516
832.0,-7.162746624089777e-05
896.0,-0.0030048449989408255
960.0,0.003630137536674738
1024.0,0.0003922392497770488
1152.0,-0.001088398857973516
1280.0,-0.0035913032479584217
1408.0,-0.004474188666790724
1536.0,-0.0019701793789863586
1664.0,-0.0033448529429733753
1792.0,0.0026216639671474695
1920.0,0.0009279835503548384
2048.0,0.00032255161204375327
2304.0,-0.006856665015220642
2560.0,-0.000572974793612957
2816.0,0.0002895836078096181
3072.0,0.004270715173333883
3328.0,-0.006441215053200722
3584.0,-0.0012242101365700364
3840.0,0.011558287777006626
4096.0,0.006002733949571848
4608.0,-0.0028658860828727484
5120.0,-0.001078586676158011
5632.0,0.001160420710220933
6144.0,-0.004448482301086187
6656.0,-0.005496181081980467
7168.0,0.0034729212056845427
7680.0,0.002401217818260193
8192.0,0.005188072565943003
end
