version,3.0
numOfCh,1
type,point
parent_name,714af_0dot4-1dot0
ch_type,1_1
kcount,1
numberNandB,1
brightnessNandB,1
carpet pos,0
pc,0
Time (ms),CH1 Auto-Correlation
1.0,0.09176936000585556
2.0,0.08801363408565521
3.0,0.0845966711640358
4.0,0.08145616203546524
5.0,0.07848156988620758
6.0,0.0757337212562561
7.0,0.07308343052864075
8.0,0.07059117406606674
9.0,0.06836425513029099
10.0,0.06616780906915665
11.0,0.06409819424152374
12.0,0.06214660778641701
13.0,0.0603775717318058
14.0,0.058783769607543945
15.0,0.057266559451818466
16.0,0.055767182260751724
18.0,0.05297026038169861
20.0,0.05033288151025772
22.0,0.04778056591749191
24.0,0.04522348567843437
26.0,0.043093156069517136
28.0,0.04107542335987091
30.0,0.0392293818295002
32.0,0.03773973882198334
36.0,0.03542220965027809
40.0,0.033234115689992905
44.0,0.03178960084915161
48.0,0.030388904735445976
52.0,0.029162215068936348
56.0,0.02778559923171997
60.0,0.026168033480644226
64.0,0.024390874430537224
72.0,0.02178157866001129
80.0,0.020161112770438194
88.0,0.017656924203038216
96.0,0.015495804138481617
104.0,0.013496060855686665
112.0,0.012660871259868145
120.0,0.011548981070518494
128.0,0.010967711918056011
144.0,0.010360928252339363
160.0,0.011166342534124851
176.0,0.013166537508368492
192.0,0.014136716723442078
208.0,0.012083819136023521
224.0,0.008631843142211437
240.0,0.006258978974074125
256.0,0.00573435053229332
288.0,0.004330595955252647
320.0,0.005402316339313984
352.0,0.005556217394769192
384.0,0.008745498955249786
416.0,0.011260408908128738
448.0,0.013891087844967842
480.0,0.011699086055159569
512.0,0.005210067145526409
576.0,0.0010728168999776244
640.0,0.001358587178401649
704.0,9.347245941171423e-05
768.0,0.0013015909353271127
832.0,-0.000529943616129458
896.0,-0.004614918027073145
960.0,-0.002203711774200201
1024.0,7.718939741607755e-05
1152.0,-0.0034795377869158983
1280.0,0.00037046015495434403
1408.0,-0.0017108262982219458
1536.0,0.0007859010365791619
1664.0,0.0022632635664194822
1792.0,-0.0010283845476806164
1920.0,0.0018165602814406157
2048.0,0.007586529944092035
2304.0,0.006640539038926363
2560.0,0.0059903948567807674
2816.0,0.00023470635642297566
3072.0,-0.0040528979152441025
3328.0,-0.004140710923820734
3584.0,-0.005002327263355255
3840.0,-0.0034292140044271946
4096.0,-0.004328293725848198
4608.0,0.004382917191833258
5120.0,-0.00025768467457965016
5632.0,-0.006710713263601065
6144.0,-0.0020109396427869797
6656.0,0.0016107925912365317
7168.0,0.004561915993690491
7680.0,-0.002796305576339364
8192.0,-0.006370697170495987
end
