version,3.0
numOfCh,1
type,point
parent_name,714af_0dot4-1dot0
ch_type,1_1
kcount,1
numberNandB,1
brightnessNandB,1
carpet pos,0
pc,0
Time (ms),CH1 Auto-Correlation
1.0,0.08835552632808685
2.0,0.0841824933886528
3.0,0.08037867397069931
4.0,0.07708341628313065
5.0,0.07396155595779419
6.0,0.07110659033060074
7.0,0.06836440414190292
8.0,0.06587645411491394
9.0,0.06356819719076157
10.0,0.06136075779795647
11.0,0.059240810573101044
12.0,0.05713876336812973
13.0,0.05522189661860466
14.0,0.05341893434524536
15.0,0.05170601233839989
16.0,0.05006309226155281
18.0,0.04733657091856003
20.0,0.04497169330716133
22.0,0.04246659576892853
24.0,0.04006516560912132
26.0,0.03798646852374077
28.0,0.036039065569639206
30.0,0.03434223681688309
32.0,0.03277307376265526
36.0,0.03006581775844097
40.0,0.028120195493102074
44.0,0.026423443108797073
48.0,0.025303851813077927
52.0,0.024503130465745926
56.0,0.023799637332558632
60.0,0.022938989102840424
64.0,0.021677179262042046
72.0,0.019009899348020554
80.0,0.0180504210293293
88.0,0.017820289358496666
96.0,0.01713659055531025
104.0,0.016574976965785027
112.0,0.01595941372215748
120.0,0.015026792883872986
128.0,0.013697968795895576
144.0,0.00965012889355421
160.0,0.004446977749466896
176.0,0.0016923549119383097
192.0,0.0006744223064742982
208.0,0.0016697763931006193
224.0,0.004318404011428356
240.0,0.0045743416994810104
256.0,0.004410041030496359
288.0,0.0018918615533038974
320.0,0.0006355064688250422
352.0,-0.0006144512444734573
384.0,-0.002662299433723092
416.0,-0.0035747727379202843
448.0,-0.0025218965020030737
480.0,-0.0006584774237126112
512.0,0.0012532210675999522
576.0,0.0023160178679972887
640.0,0.0034049092791974545
704.0,-0.0010898418258875608
768.0,-0.00017522792040836066
832.0,-0.0008684391505084932
896.0,0.0023118832614272833
960.0,0.0018405861919745803
1024.0,0.0025541617069393396
1152.0,0.0008677156292833388
1280.0,0.0001364313648082316
1408.0,0.00023798469919711351
1536.0,0.003059130162000656
1664.0,-0.0005996330291964114
1792.0,-0.0024492922239005566
1920.0,-0.0006710428860969841
2048.0,0.0003051411476917565
2304.0,0.006790186744183302
2560.0,0.01060539297759533
2816.0,0.0046117957681417465
3072.0,-0.001226328662596643
3328.0,-0.0009556167060509324
3584.0,-0.004385744221508503
3840.0,-0.0018726710695773363
4096.0,4.4277592678554356e-05
4608.0,-0.0013913266593590379
5120.0,0.00014915165957063437
5632.0,-5.47374329471495e-05
6144.0,-0.00497238477692008
6656.0,-0.00674398522824049
7168.0,-0.001256910152733326
7680.0,-0.0013655767543241382
8192.0,-0.0024342259857803583
end
