version,3.0
numOfCh,1
type,point
parent_name,714af_0dot4-1dot0
ch_type,1_1
kcount,1
numberNandB,1
brightnessNandB,1
carpet pos,0
pc,0
Time (ms),CH1 Auto-Correlation
1.0,0.10910766571760178
2.0,0.10512363910675049
3.0,0.10173525661230087
4.0,0.09854517132043839
5.0,0.09552687406539917
6.0,0.09276487678289413
7.0,0.09015493094921112
8.0,0.08765066415071487
9.0,0.08529554307460785
10.0,0.0830908715724945
11.0,0.0809117928147316
12.0,0.07888452708721161
13.0,0.07682457566261292
14.0,0.07477451115846634
15.0,0.07288613170385361
16.0,0.0710752084851265
18.0,0.06784798949956894
20.0,0.06484964489936829
22.0,0.06201193854212761
24.0,0.05951458960771561
26.0,0.05720940977334976
28.0,0.0551135428249836
30.0,0.05325963348150253
32.0,0.051751360297203064
36.0,0.04824327304959297
40.0,0.044135067611932755
44.0,0.04025374725461006
48.0,0.03720777854323387
52.0,0.034609824419021606
56.0,0.03219236433506012
60.0,0.030208496376872063
64.0,0.02843114361166954
72.0,0.02685602381825447
80.0,0.024747472256422043
88.0,0.023289019241929054
96.0,0.022809581831097603
104.0,0.022576676681637764
112.0,0.02237021178007126
120.0,0.021977677941322327
128.0,0.021252449601888657
144.0,0.02149045094847679
160.0,0.022061942145228386
176.0,0.02154538221657276
192.0,0.022149592638015747
208.0,0.020860234275460243
224.0,0.01872462034225464
240.0,0.016375504434108734
256.0,0.01634572632610798
288.0,0.017720241099596024
320.0,0.015468558296561241
352.0,0.010160532779991627
384.0,0.00652708113193512
416.0,0.007606858853250742
448.0,0.008690942078828812
480.0,0.009185855276882648
512.0,0.013428140431642532
576.0,0.011499431915581226
640.0,0.005692469887435436
704.0,0.003936666529625654
768.0,0.009982719086110592
832.0,0.006309566553682089
896.0,0.0003738800878636539
960.0,0.003269798820838332
1024.0,0.0037857035640627146
1152.0,0.006359395105391741
1280.0,0.003678133012726903
1408.0,0.002976624993607402
1536.0,-0.0017645414918661118
1664.0,-0.008175399154424667
1792.0,-0.004956331104040146
1920.0,-0.004683573264628649
2048.0,-0.00896858237683773
2304.0,-0.007028508000075817
2560.0,-0.014054013416171074
2816.0,-0.010399692691862583
3072.0,-0.009822053834795952
3328.0,-0.005133648868650198
3584.0,-0.009052847512066364
3840.0,-0.006678207777440548
4096.0,-0.005567713640630245
4608.0,-0.007184566464275122
5120.0,0.0018824486760422587
5632.0,0.002802622737362981
6144.0,0.005198771134018898
6656.0,0.006582844071090221
7168.0,0.0070680854842066765
7680.0,0.0026584973093122244
8192.0,0.0008586693438701332
end
