version,3.0
numOfCh,1
type,point
parent_name,714af_0dot4-1dot0
ch_type,1_1
kcount,1
numberNandB,1
brightnessNandB,1
carpet pos,0
pc,0
Time (ms),CH1 Auto-Correlation
1.0,0.09549936652183533
2.0,0.09153426438570023
3.0,0.0878637284040451
4.0,0.08435669541358948
5.0,0.08097545057535172
6.0,0.07786194235086441
7.0,0.07490891218185425
8.0,0.07219802588224411
9.0,0.06979595124721527
10.0,0.06765171885490417
11.0,0.06564323604106903
12.0,0.06394071877002716
13.0,0.06228680536150932
14.0,0.060701657086610794
15.0,0.05908149853348732
16.0,0.057603102177381516
18.0,0.05482430011034012
20.0,0.05214781314134598
22.0,0.049715831875801086
24.0,0.04725342243909836
26.0,0.04504519701004028
28.0,0.04308735579252243
30.0,0.041287362575531006
32.0,0.03962516784667969
36.0,0.036998942494392395
40.0,0.034898966550827026
44.0,0.03281298652291298
48.0,0.030479134991765022
52.0,0.02801196277141571
56.0,0.02553519420325756
60.0,0.022742141038179398
64.0,0.02075459249317646
72.0,0.01847962476313114
80.0,0.017455311492085457
88.0,0.015977447852492332
96.0,0.01515784952789545
104.0,0.014789090491831303
112.0,0.01446528546512127
120.0,0.013998230919241905
128.0,0.012761766090989113
144.0,0.010496105067431927
160.0,0.008259628899395466
176.0,0.006456773262470961
192.0,0.0057698204182088375
208.0,0.0022200187668204308
224.0,0.00341278244741261
240.0,0.005157884676009417
256.0,0.006606289651244879
288.0,0.007352111395448446
320.0,0.005608431063592434
352.0,0.006118035409599543
384.0,0.005126128438860178
416.0,0.0034752406645566225
448.0,0.003004543948918581
480.0,0.004920308478176594
512.0,0.005516937002539635
576.0,0.002899571554735303
640.0,-5.010809036321007e-05
704.0,-0.0025710405316203833
768.0,-0.0018565094796940684
832.0,-0.0015299213118851185
896.0,-0.0035987277515232563
960.0,-0.0028144936077296734
1024.0,-0.00022558296041097492
1152.0,-0.0062813893891870975
1280.0,-0.0016475627198815346
1408.0,0.009746438823640347
1536.0,0.00817468948662281
1664.0,0.0020510954782366753
1792.0,0.0034084732178598642
1920.0,-0.003971694502979517
2048.0,-0.005004752893000841
2304.0,-0.008677856996655464
2560.0,-0.0090396199375391
2816.0,-0.0039597563445568085
3072.0,0.0018003956647589803
3328.0,0.0017264188500121236
3584.0,-0.0031448863446712494
3840.0,-0.0075119007378816605
4096.0,-0.004665589891374111
4608.0,0.005990442354232073
5120.0,0.001785185420885682
5632.0,-0.0016904410440474749
6144.0,0.014181427657604218
6656.0,-0.0019197718938812613
7168.0,-0.009926176629960537
7680.0,0.0017238004365935922
8192.0,-0.010636108927428722
end
