version,3.0
numOfCh,1
type,point
parent_name,714af_0dot4-1dot0
ch_type,1_1
kcount,1
numberNandB,1
brightnessNandB,1
carpet pos,0
pc,0
Time (ms),CH1 Auto-Correlation
1.0,0.09411552548408508
2.0,0.09018347412347794
3.0,0.08654358983039856
4.0,0.08329851180315018
5.0,0.08016503602266312
6.0,0.0773593857884407
7.0,0.07486632466316223
8.0,0.07240690290927887
9.0,0.07003515213727951
10.0,0.06795435398817062
11.0,0.06603007763624191
12.0,0.06408344209194183
13.0,0.06215551868081093
14.0,0.060324978083372116
15.0,0.05855453386902809
16.0,0.056859731674194336
18.0,0.053778473287820816
20.0,0.05092771351337433
22.0,0.048539720475673676
24.0,0.0461532287299633
26.0,0.04380516707897186
28.0,0.041529204696416855
30.0,0.03945045918226242
32.0,0.03741791099309921
36.0,0.03362218290567398
40.0,0.031176816672086716
44.0,0.029107173904776573
48.0,0.0271165631711483
52.0,0.02547537162899971
56.0,0.023919645696878433
60.0,0.0225149467587471
64.0,0.021513132378458977
72.0,0.019689297303557396
80.0,0.017816152423620224
88.0,0.01566445454955101
96.0,0.014226711355149746
104.0,0.01344972662627697
112.0,0.013159642927348614
120.0,0.012659616768360138
128.0,0.011907651089131832
144.0,0.0107096116989851
160.0,0.009003574028611183
176.0,0.008928604423999786
192.0,0.010558144189417362
208.0,0.011622749269008636
224.0,0.012496959418058395
240.0,0.013379348441958427
256.0,0.012993844226002693
288.0,0.007796453312039375
320.0,0.0043951342813670635
352.0,0.0030797405634075403
384.0,0.003764539258554578
416.0,0.0025071478448808193
448.0,0.002807203447446227
480.0,0.003142736153677106
512.0,0.0016134208999574184
576.0,-0.004426866304129362
640.0,-0.008225779980421066
704.0,-0.00500050513073802
768.0,-0.0006815209635533392
832.0,-0.00030047405743971467
896.0,-0.000715552014298737
960.0,0.00011276602890575305
1024.0,0.002494866494089365
1152.0,0.006272488739341497
1280.0,0.001701557426713407
1408.0,0.0008656342979520559
1536.0,0.004392756149172783
1664.0,0.00096843799110502
1792.0,0.0026296949945390224
1920.0,-0.00596742844209075
2048.0,-0.006824448239058256
2304.0,-0.011140421964228153
2560.0,-0.006161713507026434
2816.0,-0.0015105671482160687
3072.0,-0.0035209518391638994
3328.0,-0.006818848662078381
3584.0,-0.010079718194901943
3840.0,-0.003370565129444003
4096.0,0.0020269788801670074
4608.0,0.006368197035044432
5120.0,0.0030983395408838987
5632.0,-0.001262218807823956
6144.0,0.004762334283441305
6656.0,0.001315489411354065
7168.0,-0.0020396995823830366
7680.0,0.002359208883717656
8192.0,-0.00811901967972517
end
