version,3.0
numOfCh,1
type,point
parent_name,714af_0dot4-1dot0
ch_type,1_1
kcount,1
numberNandB,1
brightnessNandB,1
carpet pos,0
pc,0
Time (ms),CH1 Auto-Correlation
1.0,0.10313588380813599
2.0,0.0976843535900116
3.0,0.09134917706251144
4.0,0.0865243524312973
5.0,0.0822443962097168
6.0,0.07865861058235168
7.0,0.07573996484279633
8.0,0.07312517613172531
9.0,0.07069405913352966
10.0,0.06833270937204361
11.0,0.06633822619915009
12.0,0.06422050297260284
13.0,0.062134936451911926
14.0,0.06014304608106613
15.0,0.05841546878218651
16.0,0.056770291179418564
18.0,0.05364690721035004
20.0,0.05118044465780258
22.0,0.049229349941015244
24.0,0.04731938987970352
26.0,0.04553268104791641
28.0,0.04399062693119049
30.0,0.04251920431852341
32.0,0.04104282706975937
36.0,0.037229325622320175
40.0,0.03280382230877876
44.0,0.029507258906960487
48.0,0.026678752154111862
52.0,0.024590792134404182
56.0,0.02289840392768383
60.0,0.021239031106233597
64.0,0.019555503502488136
72.0,0.01809726655483246
80.0,0.016374897211790085
88.0,0.014731154777109623
96.0,0.0127708800137043
104.0,0.009861275553703308
112.0,0.007091074716299772
120.0,0.0059600453823804855
128.0,0.0045340354554355145
144.0,0.0031150260474532843
160.0,0.002232880797237158
176.0,0.0009949711384251714
192.0,4.093600364285521e-05
208.0,0.002266483847051859
224.0,0.004167425911873579
240.0,0.0055390275083482265
256.0,0.004325969610363245
288.0,0.006762223783880472
320.0,0.0077353487722575665
352.0,0.0014716360019519925
384.0,-0.007090962957590818
416.0,-0.005725114606320858
448.0,-0.0037030994426459074
480.0,-0.0015724742552265525
512.0,0.0009569743415340781
576.0,0.004198415204882622
640.0,0.0011989341583102942
704.0,-0.0031314524821937084
768.0,-0.006340926978737116
832.0,0.0010083329398185015
896.0,0.0036353098694235086
960.0,0.004387584049254656
1024.0,0.002350033260881901
1152.0,0.0033467074390500784
1280.0,-0.0031307972967624664
1408.0,-0.0010678857797756791
1536.0,0.004310106858611107
1664.0,0.0013147424906492233
1792.0,-0.0028357256669551134
1920.0,-0.005505668465048075
2048.0,-0.0022222730331122875
2304.0,-0.0018172736745327711
2560.0,0.00287587265484035
2816.0,-0.0036397050134837627
3072.0,0.0010231133783236146
3328.0,-0.0035624601878225803
3584.0,-0.009609507396817207
3840.0,-0.005026972386986017
4096.0,-0.0035660071298480034
4608.0,-0.0031568885315209627
5120.0,-0.000879687606357038
5632.0,0.004714443348348141
6144.0,-0.00022714573424309492
6656.0,0.004300598055124283
7168.0,-6.77687639836222e-05
7680.0,0.0020997675601392984
8192.0,0.005336294416338205
end
