version,3.0
numOfCh,1
type,point
parent_name,714af_0dot4-1dot0
ch_type,1_1
kcount,1
numberNandB,1
brightnessNandB,1
carpet pos,0
pc,0
Time (ms),CH1 Auto-Correlation
1.0,0.10119355469942093
2.0,0.09730622917413712
3.0,0.09367408603429794
4.0,0.09038417786359787
5.0,0.08726445585489273
6.0,0.08444530516862869
7.0,0.08182799816131592
8.0,0.079374760389328
9.0,0.07712126523256302
10.0,0.0749414786696434
11.0,0.0730130672454834
12.0,0.07121112197637558
13.0,0.06948588043451309
14.0,0.067886121571064
15.0,0.06636641174554825
16.0,0.06496444344520569
18.0,0.06216343864798546
20.0,0.05947869271039963
22.0,0.05716373771429062
24.0,0.055218107998371124
26.0,0.05364992097020149
28.0,0.05220845341682434
30.0,0.051031824201345444
32.0,0.04969264566898346
36.0,0.047305695712566376
40.0,0.04527055099606514
44.0,0.04365061968564987
48.0,0.04193691164255142
52.0,0.040221258997917175
56.0,0.038826968520879745
60.0,0.03746934235095978
64.0,0.036419305950403214
72.0,0.03546646609902382
80.0,0.03443900868296623
88.0,0.033453717827796936
96.0,0.03139399364590645
104.0,0.02936275489628315
112.0,0.0275940652936697
120.0,0.025483062490820885
128.0,0.025034651160240173
144.0,0.021473774686455727
160.0,0.017435375601053238
176.0,0.01707237772643566
192.0,0.01805422082543373
208.0,0.02020781673491001
224.0,0.018480084836483
240.0,0.01452698651701212
256.0,0.011524491012096405
288.0,0.0068734074011445045
320.0,0.002956764306873083
352.0,0.00023819223861210048
384.0,0.0009074663976207376
416.0,0.0016405106289312243
448.0,-0.0009856658289209008
480.0,-0.0030065833125263453
512.0,-0.0025795218534767628
576.0,-0.0060718166641891
640.0,-0.0013728166231885552
704.0,-0.0021520338486880064
768.0,-0.0032431569416075945
832.0,-0.0009606206440366805
896.0,-0.004449023865163326
960.0,-0.009165224619209766
1024.0,-0.010006831027567387
1152.0,-0.0024587619118392467
1280.0,-0.004674757830798626
1408.0,-0.0029440373182296753
1536.0,-0.001501438906416297
1664.0,-0.003624835517257452
1792.0,-0.0029132284689694643
1920.0,-0.004150727763772011
2048.0,-0.00030765129486098886
2304.0,-0.0038370946422219276
2560.0,-0.009072787128388882
2816.0,-0.0008622777531854808
3072.0,0.0016164567787200212
3328.0,0.008148065768182278
3584.0,-0.0008301446796394885
3840.0,0.006868584547191858
4096.0,0.0017350545385852456
4608.0,0.0012291964376345277
5120.0,0.0053300801664590836
5632.0,0.005632665939629078
6144.0,0.0006653578602708876
6656.0,-0.005393621977418661
7168.0,0.0017719832248985767
7680.0,-0.0008847195422276855
8192.0,-0.014691920951008797
end
