version,3.0
numOfCh,1
type,point
parent_name,714af_0dot4-1dot0
ch_type,1_1
kcount,1
numberNandB,1
brightnessNandB,1
carpet pos,0
pc,0
Time (ms),CH1 Auto-Correlation
1.0,0.09303917735815048
2.0,0.08876891434192657
3.0,0.08467887341976166
4.0,0.08107675611972809
5.0,0.07795216888189316
6.0,0.07516470551490784
7.0,0.07250389456748962
8.0,0.07008600980043411
9.0,0.0677347406744957
10.0,0.06546976417303085
11.0,0.06316807866096497
12.0,0.06118783727288246
13.0,0.05939847603440285
14.0,0.05764811858534813
15.0,0.055963244289159775
16.0,0.05460765212774277
18.0,0.051385220140218735
20.0,0.04841911420226097
22.0,0.04566018283367157
24.0,0.04331883043050766
26.0,0.04122111573815346
28.0,0.03910033777356148
30.0,0.036887917667627335
32.0,0.034712739288806915
36.0,0.031117236241698265
40.0,0.028344402089715004
44.0,0.025483958423137665
48.0,0.02296503633260727
52.0,0.021138925105333328
56.0,0.02033686637878418
60.0,0.01902366615831852
64.0,0.018281957134604454
72.0,0.01675903983414173
80.0,0.015177535824477673
88.0,0.014007226563990116
96.0,0.012956934049725533
104.0,0.01206276286393404
112.0,0.00996505655348301
120.0,0.008791389875113964
128.0,0.007061640731990337
144.0,0.006412969436496496
160.0,0.006194585468620062
176.0,0.005425479728728533
192.0,0.005371511448174715
208.0,0.004746630322188139
224.0,0.005571273621171713
240.0,0.006070531904697418
256.0,0.0038536053616553545
288.0,0.0026625904720276594
320.0,0.002558673731982708
352.0,-0.0022984377574175596
384.0,-0.0021731231827288866
416.0,-0.0008316230960190296
448.0,-0.0021736500784754753
480.0,-0.005421418696641922
512.0,-0.006098676007241011
576.0,-0.002807809505611658
640.0,-0.0021371012553572655
704.0,-0.006123928353190422
768.0,-0.008836928755044937
832.0,-0.009022682905197144
896.0,-0.007650559302419424
960.0,-0.008228336460888386
1024.0,-0.010698515921831131
1152.0,0.0006109783425927162
1280.0,0.00274419947527349
1408.0,0.007837756536900997
1536.0,0.007473468780517578
1664.0,0.003550743218511343
1792.0,0.004390975460410118
1920.0,-0.004524917341768742
2048.0,-0.00347604020498693
2304.0,-0.0016179560916498303
2560.0,-0.0035670108627527952
2816.0,0.0029101986438035965
3072.0,0.006021760404109955
3328.0,-0.0030135801061987877
3584.0,-0.001516440068371594
3840.0,-0.0028844268526881933
4096.0,-0.0028924401849508286
4608.0,0.00012433549272827804
5120.0,-0.001146136550232768
5632.0,-0.0031685959547758102
6144.0,-0.0004835517902392894
6656.0,-0.00023973755014594644
7168.0,0.004545385483652353
7680.0,-0.0030138997826725245
8192.0,-0.0025009838864207268
end
