version,3.0
numOfCh,1
type,point
parent_name,714af_0dot4-1dot0
ch_type,1_1
kcount,1
numberNandB,1
brightnessNandB,1
carpet pos,0
pc,0
Time (ms),CH1 Auto-Correlation
1.0,0.11328501999378204
2.0,0.1078813299536705
3.0,0.10399318486452103
4.0,0.09950343519449234
5.0,0.09654255211353302
6.0,0.09282231330871582
7.0,0.08949478715658188
8.0,0.08557341247797012
9.0,0.08341912925243378
10.0,0.08140768855810165
11.0,0.0781891942024231
12.0,0.07581735402345657
13.0,0.07230744510889053
14.0,0.06990866363048553
15.0,0.06759095937013626
16.0,0.06488075852394104
18.0,0.06091046333312988
20.0,0.05760791525244713
22.0,0.05453133583068848
24.0,0.051277775317430496
26.0,0.048468638211488724
28.0,0.04605492204427719
30.0,0.04365333914756775
32.0,0.04150880128145218
36.0,0.03778933361172676
40.0,0.03452069312334061
44.0,0.03152832016348839
48.0,0.029154133051633835
52.0,0.027347339317202568
56.0,0.025333479046821594
60.0,0.023604465648531914
64.0,0.0217480156570673
72.0,0.018183616921305656
80.0,0.015029871836304665
88.0,0.012805089354515076
96.0,0.0123006422072649
104.0,0.012518246658146381
112.0,0.010818084701895714
120.0,0.00874978769570589
128.0,0.007328659296035767
144.0,0.007423840928822756
160.0,0.005990288686007261
176.0,0.006246103439480066
192.0,0.005992060527205467
208.0,0.007563082966953516
224.0,0.006064974702894688
240.0,0.006909885909408331
256.0,0.004112793132662773
288.0,0.002405964070931077
320.0,0.00562397250905633
352.0,0.00467546796426177
384.0,-0.0015945909544825554
416.0,-0.004502035211771727
448.0,-0.006383933126926422
480.0,-0.0050412495620548725
512.0,-0.00580604188144207
576.0,-0.0013915345771238208
640.0,-0.002111234702169895
704.0,-0.0033453842625021935
768.0,-0.0015564679633826017
832.0,-0.003151064971461892
896.0,-0.000315680488711223
960.0,0.004867397714406252
1024.0,0.0014731351984664798
1152.0,0.00077107670949772
1280.0,-0.006356619298458099
1408.0,-0.009987374767661095
1536.0,-0.007340357638895512
1664.0,-0.008153627626597881
1792.0,-0.0013561249943450093
1920.0,0.0011708505917340517
2048.0,0.0032985915895551443
2304.0,-0.00043414690298959613
2560.0,0.0013829795643687248
2816.0,0.003930691629648209
3072.0,-0.000922673789318651
3328.0,-0.0028355189133435488
3584.0,-0.0021445853635668755
3840.0,-0.0009797797538340092
4096.0,-0.0040320525877177715
4608.0,0.002688623731955886
5120.0,-0.0033050200436264277
5632.0,-0.002663294319063425
6144.0,-0.002140997676178813
6656.0,-0.00679817283526063
7168.0,0.004005368333309889
7680.0,0.0019118526251986623
8192.0,0.007153886370360851
end
