version,3.0
numOfCh,1
type,point
parent_name,714af_0dot4-1dot0
ch_type,1_1
kcount,1
numberNandB,1
brightnessNandB,1
carpet pos,0
pc,0
Time (ms),CH1 Auto-Correlation
1.0,0.10897009819746017
2.0,0.10469603538513184
3.0,0.10093184560537338
4.0,0.09750819951295853
5.0,0.09433750063180923
6.0,0.09127207845449448
7.0,0.0883663147687912
8.0,0.08570853620767593
9.0,0.08317950367927551
10.0,0.0809042751789093
11.0,0.07871488481760025
12.0,0.07648823410272598
13.0,0.07437805086374283
14.0,0.07253404706716537
15.0,0.07094290107488632
16.0,0.06942262500524521
18.0,0.06653954833745956
20.0,0.06398601830005646
22.0,0.06181076169013977
24.0,0.06004108488559723
26.0,0.058579619973897934
28.0,0.056999366730451584
30.0,0.05547488108277321
32.0,0.053778499364852905
36.0,0.05038986727595329
40.0,0.047562938183546066
44.0,0.045022547245025635
48.0,0.042335301637649536
52.0,0.03924994915723801
56.0,0.03623896837234497
60.0,0.03369179368019104
64.0,0.03182338550686836
72.0,0.029587147757411003
80.0,0.028272392228245735
88.0,0.02628221921622753
96.0,0.02530982904136181
104.0,0.02384653314948082
112.0,0.021699970588088036
120.0,0.019619321450591087
128.0,0.017306463792920113
144.0,0.012121383100748062
160.0,0.010315392166376114
176.0,0.007738469634205103
192.0,0.008945850655436516
208.0,0.010975849814713001
224.0,0.010480876080691814
240.0,0.011571613140404224
256.0,0.011202292516827583
288.0,0.0077954609878361225
320.0,0.005136423744261265
352.0,0.0060217068530619144
384.0,0.0053266966715455055
416.0,0.004562942776829004
448.0,0.007230493240058422
480.0,0.010255686938762665
512.0,0.009223119355738163
576.0,0.01184042077511549
640.0,0.009605737403035164
704.0,0.007390695158392191
768.0,0.006369446404278278
832.0,0.012050108052790165
896.0,0.00757321622222662
960.0,0.0064555006101727486
1024.0,0.006460219621658325
1152.0,0.008916253224015236
1280.0,0.008715953677892685
1408.0,0.003423596965149045
1536.0,0.004662421531975269
1664.0,0.011750963516533375
1792.0,0.010310259647667408
1920.0,0.006706134881824255
2048.0,0.003993764519691467
2304.0,0.005734646692872047
2560.0,0.013336986303329468
2816.0,0.004076133016496897
3072.0,0.008462821133434772
3328.0,0.006904383189976215
3584.0,0.00935743935406208
3840.0,0.0020581725984811783
4096.0,-0.004358208738267422
4608.0,0.0001626148441573605
5120.0,-0.0030240039341151714
5632.0,-0.004248031880706549
6144.0,-0.003753348020836711
6656.0,-0.00815299991518259
7168.0,-0.009554844349622726
7680.0,-0.012010387144982815
8192.0,-0.012417459860444069
end
