version,3.0
numOfCh,1
type,point
parent_name,714af_0dot4-1dot0
ch_type,1_1
kcount,1
numberNandB,1
brightnessNandB,1
carpet pos,0
pc,0
Time (ms),CH1 Auto-Correlation
1.0,0.15243352949619293
2.0,0.14324522018432617
3.0,0.1375700682401657
4.0,0.12993231415748596
5.0,0.12041104584932327
6.0,0.11563240736722946
7.0,0.10953439027070999
8.0,0.10124444216489792
9.0,0.0943337082862854
10.0,0.08629652112722397
11.0,0.07976327836513519
12.0,0.07496471703052521
13.0,0.07029827684164047
14.0,0.06598933041095734
15.0,0.0639910101890564
16.0,0.061987265944480896
18.0,0.05797164514660835
20.0,0.054362427443265915
22.0,0.0511435866355896
24.0,0.0484076663851738
26.0,0.045874662697315216
28.0,0.04362138733267784
30.0,0.04187612980604172
32.0,0.04052254930138588
36.0,0.03852405026555061
40.0,0.03722204640507698
44.0,0.034839436411857605
48.0,0.031242262572050095
52.0,0.027538664638996124
56.0,0.02416905015707016
60.0,0.020903870463371277
64.0,0.018492702394723892
72.0,0.015666592866182327
80.0,0.014157213270664215
88.0,0.01159485150128603
96.0,0.009921127930283546
104.0,0.00970309879630804
112.0,0.011472870595753193
120.0,0.011036815121769905
128.0,0.007879582233726978
144.0,0.00564758712425828
160.0,0.004962428007274866
176.0,0.007356662303209305
192.0,0.009639487601816654
208.0,0.010141280479729176
224.0,0.008726721629500389
240.0,0.00808677077293396
256.0,0.007614854257553816
288.0,0.006540224421769381
320.0,0.007448287680745125
352.0,0.00821641180664301
384.0,0.008816579356789589
416.0,0.005112520884722471
448.0,0.004686357453465462
480.0,0.006725058890879154
512.0,0.0063094268552958965
576.0,0.0005528100882656872
640.0,0.0004638542013708502
704.0,0.0013356860727071762
768.0,0.003491336712613702
832.0,-0.0018511649686843157
896.0,-0.002666798885911703
960.0,0.0010250196792185307
1024.0,0.003165600588545203
1152.0,0.0025589691940695047
1280.0,-0.0006790817715227604
1408.0,-0.0009028276544995606
1536.0,0.002809590892866254
1664.0,-0.004319479689002037
1792.0,-0.003001438220962882
1920.0,-0.006773663219064474
2048.0,-0.0038621313869953156
2304.0,-0.0046942997723817825
2560.0,-0.006931418087333441
2816.0,-0.003611949970945716
3072.0,-0.00015747618454042822
3328.0,-0.0016212286427617073
3584.0,-0.00322491186670959
3840.0,0.0015372805064544082
4096.0,-0.0038598552346229553
4608.0,-0.004544557072222233
5120.0,0.00018865049059968442
5632.0,-0.001862494507804513
6144.0,-0.0008396714692935348
6656.0,0.0024823409039527178
7168.0,0.007722037378698587
7680.0,0.0014591821236535907
8192.0,0.012218909338116646
end
