version,3.0
numOfCh,1
type,point
parent_name,714af_0dot4-1dot0
ch_type,1_1
kcount,1
numberNandB,1
brightnessNandB,1
carpet pos,0
pc,0
Time (ms),CH1 Auto-Correlation
1.0,0.1064252182841301
2.0,0.10080773383378983
3.0,0.09580474346876144
4.0,0.09056185185909271
5.0,0.08584420382976532
6.0,0.08232992142438889
7.0,0.07883573323488235
8.0,0.07551083713769913
9.0,0.07279670983552933
10.0,0.07023123651742935
11.0,0.0678471028804779
12.0,0.06574008613824844
13.0,0.06360191106796265
14.0,0.061750929802656174
15.0,0.059993889182806015
16.0,0.05838210508227348
18.0,0.05502955988049507
20.0,0.051947221159935
22.0,0.049201637506484985
24.0,0.04694126546382904
26.0,0.044812072068452835
28.0,0.04294917732477188
30.0,0.041124239563941956
32.0,0.03946463018655777
36.0,0.0367974154651165
40.0,0.03473814204335213
44.0,0.032709360122680664
48.0,0.03033645823597908
52.0,0.027969786897301674
56.0,0.025962604209780693
60.0,0.023842530325055122
64.0,0.02125103399157524
72.0,0.018829092383384705
80.0,0.016721902415156364
88.0,0.014933820813894272
96.0,0.012316645123064518
104.0,0.01006512250751257
112.0,0.009147296659648418
120.0,0.008507702499628067
128.0,0.006888054311275482
144.0,0.004998859949409962
160.0,0.0044084531255066395
176.0,0.002008946379646659
192.0,0.003265164326876402
208.0,0.002937847515568137
224.0,0.004276844207197428
240.0,0.0033952067606151104
256.0,0.003471711417660117
288.0,-0.0019054694566875696
320.0,-0.0027044755406677723
352.0,-0.0030664841178804636
384.0,-0.002528386190533638
416.0,-0.0034178115893155336
448.0,-0.0036489074118435383
480.0,-0.0011782024521380663
512.0,0.005387617740780115
576.0,0.0023767671082168818
640.0,-0.0016713518416509032
704.0,-0.002938927849754691
768.0,0.0013281783321872354
832.0,0.006000842899084091
896.0,0.01003459095954895
960.0,0.00759949441999197
1024.0,0.0023075276985764503
1152.0,-0.0008718865574337542
1280.0,0.0009838466066867113
1408.0,0.0027420981787145138
1536.0,0.0011093938956037164
1664.0,-0.001714860089123249
1792.0,0.0031066008377820253
1920.0,-0.0014619451249018312
2048.0,0.002412460744380951
2304.0,0.004361327737569809
2560.0,-0.0013554742326959968
2816.0,-0.007834072224795818
3072.0,0.005216228310018778
3328.0,-0.001064496347680688
3584.0,-0.008300628513097763
3840.0,-0.007226269226521254
4096.0,6.037691855453886e-05
4608.0,0.0005198593134991825
5120.0,-0.003995266743004322
5632.0,-0.00309415883384645
6144.0,-7.81161361373961e-05
6656.0,0.0014631848316639662
7168.0,-0.001074014464393258
7680.0,0.0003736760118044913
8192.0,-0.003675660118460655
end
