version,3.0
numOfCh,1
type,point
parent_name,714af_0dot4-1dot0
ch_type,1_1
kcount,1
numberNandB,1
brightnessNandB,1
carpet pos,0
pc,0
Time (ms),CH1 Auto-Correlation
1.0,0.10263428837060928
2.0,0.09876002371311188
3.0,0.09503944963216782
4.0,0.09168955683708191
5.0,0.08849036693572998
6.0,0.08548080176115036
7.0,0.08255215734243393
8.0,0.07971824705600739
9.0,0.07709217816591263
10.0,0.07451935112476349
11.0,0.07217203825712204
12.0,0.07006816565990448
13.0,0.06807404011487961
14.0,0.06612000614404678
15.0,0.06425277143716812
16.0,0.06261057406663895
18.0,0.05993020534515381
20.0,0.05754227936267853
22.0,0.05535833537578583
24.0,0.05316784232854843
26.0,0.05106554180383682
28.0,0.04914819076657295
30.0,0.04725353419780731
32.0,0.0454946905374527
36.0,0.042421214282512665
40.0,0.03974660858511925
44.0,0.03765655308961868
48.0,0.03595421463251114
52.0,0.0346187986433506
56.0,0.03357016667723656
60.0,0.03299457207322121
64.0,0.03233383595943451
72.0,0.031459398567676544
80.0,0.03093341924250126
88.0,0.028667321428656578
96.0,0.025756582617759705
104.0,0.024433117359876633
112.0,0.023618295788764954
120.0,0.021965641528367996
128.0,0.020030368119478226
144.0,0.014781472273170948
160.0,0.009876785799860954
176.0,0.007701442111283541
192.0,0.00898340716958046
208.0,0.008768757805228233
224.0,0.007712678052484989
240.0,0.006735797971487045
256.0,0.005226438399404287
288.0,0.006456654518842697
320.0,0.006920263171195984
352.0,0.009270320646464825
384.0,0.007064409554004669
416.0,0.006398811470717192
448.0,0.007646765094250441
480.0,0.007771543692797422
512.0,0.0020720246247947216
576.0,-0.0022630346938967705
640.0,-0.002278366591781378
704.0,-0.0003230213187634945
768.0,-0.0018853959627449512
832.0,-0.0002205720084020868
896.0,-0.0038311185780912638
960.0,-0.004228724166750908
1024.0,-0.011834352277219296
1152.0,-0.01749400980770588
1280.0,-0.012361537665128708
1408.0,-0.002099510980769992
1536.0,-0.001029882114380598
1664.0,-0.0004739381547551602
1792.0,0.0056998045183718204
1920.0,0.008305465802550316
2048.0,-1.573233566887211e-05
2304.0,0.011364635080099106
2560.0,0.002555042738094926
2816.0,-0.00817809533327818
3072.0,-0.009297981858253479
3328.0,-0.005180695094168186
3584.0,-0.010700482875108719
3840.0,0.0005201231688261032
4096.0,0.005753356497734785
4608.0,-0.0015301140956580639
5120.0,-0.0027117293793708086
5632.0,0.004309375770390034
6144.0,0.006772078573703766
6656.0,0.001538580865599215
7168.0,-0.003428438911214471
7680.0,-0.009039916098117828
8192.0,-0.003713850397616625
end
