version,3.0
numOfCh,1
type,point
parent_name,714af_0dot4-1dot0
ch_type,1_1
kcount,1
numberNandB,1
brightnessNandB,1
carpet pos,0
pc,0
Time (ms),CH1 Auto-Correlation
1.0,0.10565952956676483
2.0,0.10074052959680557
3.0,0.09665865451097488
4.0,0.09296555072069168
5.0,0.0896570235490799
6.0,0.08659309893846512
7.0,0.08364283293485641
8.0,0.08092335611581802
9.0,0.07824282348155975
10.0,0.07595516741275787
11.0,0.0737946406006813
12.0,0.07166271656751633
13.0,0.06971585005521774
14.0,0.06772606819868088
15.0,0.06567297130823135
16.0,0.06389527022838593
18.0,0.0609387531876564
20.0,0.05807263404130936
22.0,0.055566269904375076
24.0,0.0530330166220665
26.0,0.05037134885787964
28.0,0.048021260648965836
30.0,0.04602450877428055
32.0,0.043932992964982986
36.0,0.04042588546872139
40.0,0.03736279532313347
44.0,0.03464992344379425
48.0,0.03290515020489693
52.0,0.031436435878276825
56.0,0.029636841267347336
60.0,0.027851156890392303
64.0,0.026562977582216263
72.0,0.023916495963931084
80.0,0.022291842848062515
88.0,0.020239949226379395
96.0,0.018313422799110413
104.0,0.01674412377178669
112.0,0.016221458092331886
120.0,0.0168225709348917
128.0,0.01711881160736084
144.0,0.01885991171002388
160.0,0.02006717026233673
176.0,0.018704911693930626
192.0,0.014946816489100456
208.0,0.011071178130805492
224.0,0.008149418979883194
240.0,0.006984288338571787
256.0,0.005649233236908913
288.0,0.003772786119952798
320.0,0.006442861165851355
352.0,0.006749766878783703
384.0,0.0035146400332450867
416.0,0.0005373269668780267
448.0,-0.0014431101735681295
480.0,0.00029929468291811645
512.0,0.0005946984747424722
576.0,0.005458722822368145
640.0,0.004983358550816774
704.0,-0.0006645669345743954
768.0,-0.0019015881698578596
832.0,-0.000151086162077263
896.0,0.001257542404346168
960.0,0.001954158302396536
1024.0,-0.0011248792288824916
1152.0,-0.003382003167644143
1280.0,-0.0008824844262562692
1408.0,-0.005075892899185419
1536.0,-0.006641312502324581
1664.0,-0.005982421804219484
1792.0,0.0005323804216459394
1920.0,0.002344942418858409
2048.0,0.0042775534093379974
2304.0,-0.0029641634318977594
2560.0,-0.0073947119526565075
2816.0,-0.0063999854028224945
3072.0,-0.005129376892000437
3328.0,-0.0036135935224592686
3584.0,0.0015672618756070733
3840.0,-0.003596692346036434
4096.0,-0.00028751723584719
4608.0,0.002860279753804207
5120.0,-0.007840806618332863
5632.0,0.0022127919364720583
6144.0,0.00013947440311312675
6656.0,0.010003026574850082
7168.0,0.004713316448032856
7680.0,0.0006506842328235507
8192.0,0.005954101216048002
end
