version,3.0
numOfCh,1
type,point
parent_name,714af_0dot4-1dot0
ch_type,1_1
kcount,1
numberNandB,1
brightnessNandB,1
carpet pos,0
pc,0
Time (ms),CH1 Auto-Correlation
1.0,0.09666074067354202
2.0,0.09271721541881561
3.0,0.08904299885034561
4.0,0.08592412620782852
5.0,0.08293849974870682
6.0,0.08025673776865005
7.0,0.0778658539056778
8.0,0.0755530595779419
9.0,0.0733831450343132
10.0,0.07124923169612885
11.0,0.06927305459976196
12.0,0.06738512217998505
13.0,0.06571990996599197
14.0,0.0641406998038292
15.0,0.06264349818229675
16.0,0.061036109924316406
18.0,0.05823221430182457
20.0,0.05563269928097725
22.0,0.05334955081343651
24.0,0.051196955144405365
26.0,0.0491030290722847
28.0,0.04688376188278198
30.0,0.04454959183931351
32.0,0.04233787953853607
36.0,0.037931498140096664
40.0,0.03460795804858208
44.0,0.03205323964357376
48.0,0.029727814719080925
52.0,0.027621807530522346
56.0,0.025872251018881798
60.0,0.024245919659733772
64.0,0.023111937567591667
72.0,0.021314674988389015
80.0,0.01988586038351059
88.0,0.01959172636270523
96.0,0.019389506429433823
104.0,0.018960045650601387
112.0,0.0185412485152483
120.0,0.018268698826432228
128.0,0.018257999792695045
144.0,0.01714872568845749
160.0,0.016590001061558723
176.0,0.015028371475636959
192.0,0.013031679205596447
208.0,0.011178950779139996
224.0,0.01100594736635685
240.0,0.011396551504731178
256.0,0.012556572444736958
288.0,0.010879271663725376
320.0,0.010253660380840302
352.0,0.011378223076462746
384.0,0.008970716968178749
416.0,0.006742936093360186
448.0,0.005029836669564247
480.0,0.0034117086324840784
512.0,0.0016615012427791953
576.0,-0.0025116608012467623
640.0,-0.008173629641532898
704.0,-0.009706944227218628
768.0,-0.009950568899512291
832.0,-0.008646293543279171
896.0,-0.013747812248766422
960.0,-0.012336832471191883
1024.0,-0.007432315964251757
1152.0,-0.0034679556265473366
1280.0,-0.0037893918342888355
1408.0,-0.0019090732093900442
1536.0,0.003115343162789941
1664.0,0.007728633936494589
1792.0,0.009824451990425587
1920.0,0.012734618969261646
2048.0,0.01006343774497509
2304.0,0.0018693659221753478
2560.0,-0.006587556563317776
2816.0,-0.011968391947448254
3072.0,-0.010548712685704231
3328.0,-0.003512782510370016
3584.0,-0.00019510934362187982
3840.0,0.0007121848757378757
4096.0,-0.002188294194638729
4608.0,-0.009801924228668213
5120.0,-0.005988119635730982
5632.0,0.006231606472283602
6144.0,0.0010387009242549539
6656.0,-0.0003506623615976423
7168.0,0.009494028985500336
7680.0,0.005267608445137739
8192.0,0.00036902620922774076
end
