version,3.0
numOfCh,1
type,point
parent_name,714af_0dot4-1dot0
ch_type,1_1
kcount,1
numberNandB,1
brightnessNandB,1
carpet pos,0
pc,0
Time (ms),CH1 Auto-Correlation
1.0,0.11300081759691238
2.0,0.10901980847120285
3.0,0.1054154634475708
4.0,0.10206197947263718
5.0,0.09903346002101898
6.0,0.09619849175214767
7.0,0.09367480129003525
8.0,0.09127554297447205
9.0,0.08891136944293976
10.0,0.08659359067678452
11.0,0.08444086462259293
12.0,0.08235884457826614
13.0,0.0804487094283104
14.0,0.07856345921754837
15.0,0.07687277346849442
16.0,0.07524681836366653
18.0,0.07199361175298691
20.0,0.06920227408409119
22.0,0.06672239303588867
24.0,0.06463681906461716
26.0,0.06262555718421936
28.0,0.06080080568790436
30.0,0.059092339128255844
32.0,0.057302217930555344
36.0,0.054096683859825134
40.0,0.05137217417359352
44.0,0.04904977232217789
48.0,0.04652876406908035
52.0,0.0444568507373333
56.0,0.04268200322985649
60.0,0.040978893637657166
64.0,0.039567459374666214
72.0,0.03637759014964104
80.0,0.033022910356521606
88.0,0.029671527445316315
96.0,0.02759825810790062
104.0,0.025953086093068123
112.0,0.024426495656371117
120.0,0.022606337442994118
128.0,0.021137794479727745
144.0,0.015896305441856384
160.0,0.013521685265004635
176.0,0.012702970765531063
192.0,0.012080959975719452
208.0,0.010885939933359623
224.0,0.010714899748563766
240.0,0.009880941361188889
256.0,0.008299489505589008
288.0,0.005147743504494429
320.0,0.004439451731741428
352.0,0.006640520412474871
384.0,0.007183856330811977
416.0,0.003952572122216225
448.0,0.0026317271403968334
480.0,0.0024257495533674955
512.0,0.0029304116033017635
576.0,-0.002703063888475299
640.0,-0.0051911622285842896
704.0,-0.005613050423562527
768.0,-0.00501300347968936
832.0,-0.006654746830463409
896.0,-0.008113589137792587
960.0,-0.005228192079812288
1024.0,-0.009122602641582489
1152.0,-0.013457026332616806
1280.0,-0.0070158205926418304
1408.0,-0.010739680379629135
1536.0,-0.009209164418280125
1664.0,-0.008071837946772575
1792.0,-0.0018861403223127127
1920.0,0.014358842745423317
2048.0,0.018179653212428093
2304.0,0.001080955844372511
2560.0,-0.002328813076019287
2816.0,-2.7565018172026612e-05
3072.0,-0.004207682330161333
3328.0,-0.0012180674821138382
3584.0,-0.00679387804120779
3840.0,0.0016824534395709634
4096.0,0.005214270204305649
4608.0,-0.001109489006921649
5120.0,-0.0017607009503990412
5632.0,0.0018540945602580905
6144.0,-0.004019175656139851
6656.0,-0.0025190054439008236
7168.0,-0.005051007494330406
7680.0,0.007029497995972633
8192.0,-0.00873113889247179
end
