version,3.0
numOfCh,1
type,point
parent_name,714af_0dot4-1dot0
ch_type,1_1
kcount,1
numberNandB,1
brightnessNandB,1
carpet pos,0
pc,0
Time (ms),CH1 Auto-Correlation
1.0,0.10742750018835068
2.0,0.1038413941860199
3.0,0.1005176231265068
4.0,0.09741685539484024
5.0,0.09448355436325073
6.0,0.09168323129415512
7.0,0.08919643610715866
8.0,0.0867464616894722
9.0,0.08451732993125916
10.0,0.08244942873716354
11.0,0.08059316873550415
12.0,0.07870949804782867
13.0,0.07692236453294754
14.0,0.07520219683647156
15.0,0.0736277848482132
16.0,0.07211180776357651
18.0,0.0693700760602951
20.0,0.06694875657558441
22.0,0.06483642011880875
24.0,0.06279978156089783
26.0,0.06096349284052849
28.0,0.05918806046247482
30.0,0.05748232081532478
32.0,0.055782053619623184
36.0,0.05297941714525223
40.0,0.05054396390914917
44.0,0.04829924926161766
48.0,0.046570923179388046
52.0,0.04526755213737488
56.0,0.04409725219011307
60.0,0.042742881923913956
64.0,0.04134382680058479
72.0,0.03788348287343979
80.0,0.035167522728443146
88.0,0.03242779150605202
96.0,0.02984912507236004
104.0,0.0276364516466856
112.0,0.025007709860801697
120.0,0.023415351286530495
128.0,0.02197408676147461
144.0,0.020828325301408768
160.0,0.02233695425093174
176.0,0.02482982538640499
192.0,0.02468850091099739
208.0,0.021748749539256096
224.0,0.019446711987257004
240.0,0.017666807398200035
256.0,0.017192669212818146
288.0,0.012107059359550476
320.0,0.00753244012594223
352.0,0.007376177702099085
384.0,0.007196091115474701
416.0,0.007506988011300564
448.0,0.0027113526593893766
480.0,0.0005071560735814273
512.0,-0.0033267326653003693
576.0,-0.003704147646203637
640.0,-0.0032347363885492086
704.0,-0.0007569543085992336
768.0,0.0010362407192587852
832.0,-0.001648514880798757
896.0,-0.006108677946031094
960.0,-0.005157371051609516
1024.0,-0.0008234214037656784
1152.0,0.0008142396691255271
1280.0,-0.002777900081127882
1408.0,-0.007074120454490185
1536.0,-0.008082437328994274
1664.0,-0.0065111396834254265
1792.0,-0.0039725396782159805
1920.0,0.002991042798385024
2048.0,0.006117678713053465
2304.0,0.012116570957005024
2560.0,0.00959443673491478
2816.0,-0.005244840402156115
3072.0,-0.007845140993595123
3328.0,-0.004524190444499254
3584.0,-0.004511164501309395
3840.0,-0.007940798066556454
4096.0,-0.00503220409154892
4608.0,0.0042413161136209965
5120.0,0.010322488844394684
5632.0,-0.006765545811504126
6144.0,-0.00425170361995697
6656.0,-0.00837417971342802
7168.0,0.008194531314074993
7680.0,-0.0005833464092575014
8192.0,-0.012704501859843731
end
