version,3.0
numOfCh,1
type,point
parent_name,714af_0dot4-1dot0
ch_type,1_1
kcount,1
numberNandB,1
brightnessNandB,1
carpet pos,0
pc,0
Time (ms),CH1 Auto-Correlation
1.0,0.11194194108247757
2.0,0.10810142010450363
3.0,0.10465943813323975
4.0,0.1015399768948555
5.0,0.09859610348939896
6.0,0.09582944959402084
7.0,0.09312473237514496
8.0,0.09061355888843536
9.0,0.08815386146306992
10.0,0.0859435424208641
11.0,0.08376311510801315
12.0,0.08170916140079498
13.0,0.07971653342247009
14.0,0.07791881263256073
15.0,0.07622449100017548
16.0,0.07453320920467377
18.0,0.07158725708723068
20.0,0.06884385645389557
22.0,0.0662088692188263
24.0,0.06386919319629669
26.0,0.06167299300432205
28.0,0.05949965491890907
30.0,0.05756514519453049
32.0,0.0558396652340889
36.0,0.05264613404870033
40.0,0.05054120719432831
44.0,0.04840339347720146
48.0,0.04601159319281578
52.0,0.0434129573404789
56.0,0.041146133095026016
60.0,0.03913947567343712
64.0,0.037585608661174774
72.0,0.03605826944112778
80.0,0.034564319998025894
88.0,0.03312676399946213
96.0,0.03054148145020008
104.0,0.028136014938354492
112.0,0.026412779465317726
120.0,0.024853939190506935
128.0,0.023060545325279236
144.0,0.0208359993994236
160.0,0.020045889541506767
176.0,0.021088283509016037
192.0,0.022829560562968254
208.0,0.02146877348423004
224.0,0.020582683384418488
240.0,0.02057982236146927
256.0,0.017898593097925186
288.0,0.016403764486312866
320.0,0.01712406612932682
352.0,0.015551221556961536
384.0,0.01021021232008934
416.0,0.008954007178544998
448.0,0.008561911061406136
480.0,0.005494376178830862
512.0,0.004123070277273655
576.0,0.0023055069614201784
640.0,0.0034114473965018988
704.0,8.834513573674485e-05
768.0,-0.00461895065382123
832.0,-0.004624989349395037
896.0,0.0016383135225623846
960.0,0.002644088352099061
1024.0,0.004465876147150993
1152.0,0.004031918942928314
1280.0,-0.0005205150810070336
1408.0,-0.005670957732945681
1536.0,0.002825421979650855
1664.0,-0.0002822738897521049
1792.0,-0.006814815104007721
1920.0,-0.007377396337687969
2048.0,0.004518880508840084
2304.0,0.00551148597151041
2560.0,0.005059882998466492
2816.0,0.006547602359205484
3072.0,0.011547617614269257
3328.0,0.00813247635960579
3584.0,-0.0006701303063891828
3840.0,-0.0031858403235673904
4096.0,-0.007629806641489267
4608.0,-0.007921405136585236
5120.0,0.006217826623469591
5632.0,0.0007308577187359333
6144.0,0.0016063713701441884
6656.0,-0.010143723338842392
7168.0,-0.010347355157136917
7680.0,-0.017513299360871315
8192.0,0.005333806853741407
end
