version,3.0
numOfCh,1
type,point
parent_name,714af_0dot4-1dot0
ch_type,1_1
kcount,1
numberNandB,1
brightnessNandB,1
carpet pos,0
pc,0
Time (ms),CH1 Auto-Correlation
1.0,0.12442565709352493
2.0,0.12044282257556915
3.0,0.11694471538066864
4.0,0.11363762617111206
5.0,0.11054855585098267
6.0,0.10768019407987595
7.0,0.10513219237327576
8.0,0.10266196727752686
9.0,0.10028355568647385
10.0,0.09804213047027588
11.0,0.09592293947935104
12.0,0.09385617077350616
13.0,0.09191372245550156
14.0,0.09002390503883362
15.0,0.08824492990970612
16.0,0.08650621771812439
18.0,0.08301050215959549
20.0,0.07975732535123825
22.0,0.07670409977436066
24.0,0.07396545261144638
26.0,0.07128581404685974
28.0,0.0688912570476532
30.0,0.06671065837144852
32.0,0.06456570327281952
36.0,0.06093563511967659
40.0,0.05852174013853073
44.0,0.05649753287434578
48.0,0.05381035804748535
52.0,0.05108143761754036
56.0,0.048884253948926926
60.0,0.046903762966394424
64.0,0.04475117102265358
72.0,0.0407194159924984
80.0,0.037487391382455826
88.0,0.03529227524995804
96.0,0.03324862942099571
104.0,0.03254131227731705
112.0,0.03133220970630646
120.0,0.029754718765616417
128.0,0.027691254392266273
144.0,0.022581102326512337
160.0,0.01729424297809601
176.0,0.015005366876721382
192.0,0.013912193477153778
208.0,0.012589973397552967
224.0,0.01372256875038147
240.0,0.015214439481496811
256.0,0.015362432226538658
288.0,0.017281178385019302
320.0,0.017677323892712593
352.0,0.018481213599443436
384.0,0.020852822810411453
416.0,0.01821659691631794
448.0,0.01430574432015419
480.0,0.015879428014159203
512.0,0.015453822910785675
576.0,0.014034549705684185
640.0,0.01206264179199934
704.0,0.011647623032331467
768.0,0.012429230846464634
832.0,0.009806403890252113
896.0,0.002313315635547042
960.0,0.0001426250528311357
1024.0,0.0010339554864913225
1152.0,0.0042977118864655495
1280.0,0.002901890315115452
1408.0,0.0032722819596529007
1536.0,0.002036212245002389
1664.0,-0.008160240948200226
1792.0,-0.005680280737578869
1920.0,0.0014222603058442473
2048.0,0.006732428912073374
2304.0,-0.008412688970565796
2560.0,0.001414417172782123
2816.0,0.004921367391943932
3072.0,0.0012464498868212104
3328.0,0.013165520504117012
3584.0,0.005010581109672785
3840.0,0.0015236989129334688
4096.0,0.0021139620803296566
4608.0,-0.005534860771149397
5120.0,-0.0008236939902417362
5632.0,0.005123576615005732
6144.0,0.002181156538426876
6656.0,0.0031450556125491858
7168.0,-0.005422589834779501
7680.0,-0.005493419244885445
8192.0,-0.006248351186513901
end
