version,3.0
numOfCh,1
type,point
parent_name,714af_0dot4-1dot0
ch_type,1_1
kcount,1
numberNandB,1
brightnessNandB,1
carpet pos,0
pc,0
Time (ms),CH1 Auto-Correlation
1.0,0.1271536946296692
2.0,0.12256620079278946
3.0,0.11853481829166412
4.0,0.11498753726482391
5.0,0.11168928444385529
6.0,0.10864347964525223
7.0,0.10591024160385132
8.0,0.10346967726945877
9.0,0.10102072358131409
10.0,0.09876110404729843
11.0,0.09667178243398666
12.0,0.09475484490394592
13.0,0.09286092221736908
14.0,0.09114411473274231
15.0,0.08948535472154617
16.0,0.08779313415288925
18.0,0.0845058336853981
20.0,0.0813261866569519
22.0,0.07846681773662567
24.0,0.07568247616291046
26.0,0.0733790323138237
28.0,0.07119033485651016
30.0,0.06900213658809662
32.0,0.06673945486545563
36.0,0.06285427510738373
40.0,0.059104859828948975
44.0,0.056126754730939865
48.0,0.05423341691493988
52.0,0.052683863788843155
56.0,0.05115055292844772
60.0,0.04966557398438454
64.0,0.048334501683712006
72.0,0.045442115515470505
80.0,0.0426023043692112
88.0,0.0385923907160759
96.0,0.03527716174721718
104.0,0.0329374223947525
112.0,0.03114718571305275
120.0,0.03133173659443855
128.0,0.030449656769633293
144.0,0.029517360031604767
160.0,0.026912346482276917
176.0,0.023769723251461983
192.0,0.02069038897752762
208.0,0.018781393766403198
224.0,0.017172766849398613
240.0,0.012523156590759754
256.0,0.009476413019001484
288.0,0.008672994561493397
320.0,0.005753582343459129
352.0,0.0036395308561623096
384.0,0.006654071621596813
416.0,0.003848800202831626
448.0,0.005979418754577637
480.0,0.007934922352433205
512.0,0.008420828729867935
576.0,0.007815545424818993
640.0,0.009463506750762463
704.0,0.004149461165070534
768.0,0.004348807502537966
832.0,0.0069038113579154015
896.0,0.005698058754205704
960.0,0.0016762232407927513
1024.0,-0.001000230317004025
1152.0,-0.006953325122594833
1280.0,-0.010789018124341965
1408.0,-0.008221160620450974
1536.0,-0.010822873562574387
1664.0,-0.011596094816923141
1792.0,-0.015101717785000801
1920.0,-0.010606835596263409
2048.0,-0.011249236762523651
2304.0,-0.014147407375276089
2560.0,-0.004281307104974985
2816.0,0.00014993181684985757
3072.0,0.006787260994315147
3328.0,0.009131968021392822
3584.0,0.014846970327198505
3840.0,-0.0014552195789292455
4096.0,-5.2249546570237726e-05
4608.0,-0.0014101634733378887
5120.0,-0.010022370144724846
5632.0,-0.004591864999383688
6144.0,0.008059625513851643
6656.0,0.008630119264125824
7168.0,0.0020551716443151236
7680.0,-0.01202524546533823
8192.0,-0.008928860537707806
end
