version,3.0
numOfCh,1
type,point
parent_name,714af_0dot4-1dot0
ch_type,1_1
kcount,1
numberNandB,1
brightnessNandB,1
carpet pos,0
pc,0
Time (ms),CH1 Auto-Correlation
1.0,0.09544147551059723
2.0,0.09182830899953842
3.0,0.08849586546421051
4.0,0.08532969653606415
5.0,0.08239192515611649
6.0,0.07967385649681091
7.0,0.07705266028642654
8.0,0.07457440346479416
9.0,0.0723281130194664
10.0,0.07025522738695145
11.0,0.06828656047582626
12.0,0.0664847120642662
13.0,0.06461872905492783
14.0,0.06289453059434891
15.0,0.061302922666072845
16.0,0.05970708280801773
18.0,0.05683153495192528
20.0,0.0540350079536438
22.0,0.051548995077610016
24.0,0.0491965152323246
26.0,0.046988654881715775
28.0,0.04500006139278412
30.0,0.04321044683456421
32.0,0.0415320061147213
36.0,0.038547299802303314
40.0,0.035790909081697464
44.0,0.03338906541466713
48.0,0.031417302787303925
52.0,0.029896633699536324
56.0,0.029019933193922043
60.0,0.028360167518258095
64.0,0.027590058743953705
72.0,0.02486274763941765
80.0,0.021900787949562073
88.0,0.019010525196790695
96.0,0.016745738685131073
104.0,0.014308988116681576
112.0,0.01243565883487463
120.0,0.010448791086673737
128.0,0.009418938308954239
144.0,0.009229631163179874
160.0,0.009396672248840332
176.0,0.007879902608692646
192.0,0.006320002023130655
208.0,0.005488860886543989
224.0,0.005295934621244669
240.0,0.005917287431657314
256.0,0.005486807320266962
288.0,0.004525776486843824
320.0,0.0036790084559470415
352.0,0.005912992637604475
384.0,0.006614940240979195
416.0,0.006963079795241356
448.0,0.0034220984671264887
480.0,-0.0025345648173242807
512.0,-0.007465855218470097
576.0,-0.011304344981908798
640.0,-0.018546542152762413
704.0,-0.015555654652416706
768.0,-0.00750627089291811
832.0,-0.0006750576430931687
896.0,-0.004360594321042299
960.0,-0.005589521490037441
1024.0,-0.005977179855108261
1152.0,-0.0014400286599993706
1280.0,0.0030672496650367975
1408.0,0.0014647796051576734
1536.0,0.000615200842730701
1664.0,0.0019516218453645706
1792.0,5.852137746842345e-06
1920.0,-0.006667648442089558
2048.0,-0.0032026313710957766
2304.0,-0.005447945091873407
2560.0,0.00044474558671936393
2816.0,0.005023113917559385
3072.0,0.0016989477444440126
3328.0,0.0019972582813352346
3584.0,0.0014781532809138298
3840.0,-0.004978291690349579
4096.0,-0.003058376256376505
4608.0,-0.006352160591632128
5120.0,0.007010128814727068
5632.0,-0.0002707191160880029
6144.0,0.0018529172521084547
6656.0,0.003162182867527008
7168.0,-0.005619576200842857
7680.0,-0.0068192798644304276
8192.0,0.009657087735831738
end
