version,3.0
numOfCh,1
type,point
parent_name,714af_0dot4-1dot0
ch_type,1_1
kcount,1
numberNandB,1
brightnessNandB,1
carpet pos,0
pc,0
Time (ms),CH1 Auto-Correlation
1.0,0.10523537546396255
2.0,0.10056038200855255
3.0,0.09641557186841965
4.0,0.0926530510187149
5.0,0.08921612054109573
6.0,0.08594920486211777
7.0,0.08291397988796234
8.0,0.0801745280623436
9.0,0.07770754396915436
10.0,0.07530049979686737
11.0,0.07297226041555405
12.0,0.07084572315216064
13.0,0.06898123025894165
14.0,0.06719660758972168
15.0,0.06545530259609222
16.0,0.06387606263160706
18.0,0.060937993228435516
20.0,0.05846736207604408
22.0,0.056227099150419235
24.0,0.0538652166724205
26.0,0.05173507332801819
28.0,0.049578625708818436
30.0,0.0472109392285347
32.0,0.04511464387178421
36.0,0.04186702147126198
40.0,0.03904026374220848
44.0,0.03666860610246658
48.0,0.034221064299345016
52.0,0.03221643343567848
56.0,0.030542969703674316
60.0,0.029317187145352364
64.0,0.028129898011684418
72.0,0.024660523980855942
80.0,0.019362986087799072
88.0,0.014331392012536526
96.0,0.011172143742442131
104.0,0.008566772565245628
112.0,0.0052855792455375195
120.0,0.0035963058471679688
128.0,0.0028514715377241373
144.0,0.0009831800125539303
160.0,0.002041273983195424
176.0,0.003565319813787937
192.0,0.001738639664836228
208.0,0.0022476098965853453
224.0,0.0038783259224146605
240.0,0.005289218854159117
256.0,0.004459276795387268
288.0,0.002204225631430745
320.0,0.0009227272821590304
352.0,-0.00010610011668177322
384.0,-0.0014395512407645583
416.0,-0.0036330607254058123
448.0,-0.0031629318837076426
480.0,-0.003126681549474597
512.0,-0.0022233405616134405
576.0,0.003946097567677498
640.0,0.004707908723503351
704.0,-0.000406735111027956
768.0,-0.0025472098495811224
832.0,-0.002786730881780386
896.0,-0.006521615199744701
960.0,-0.008433684706687927
1024.0,-0.006857564207166433
1152.0,-0.007128765340894461
1280.0,-0.005147850606590509
1408.0,-0.0004837113374378532
1536.0,0.0030577979050576687
1664.0,8.2437923992984e-05
1792.0,-0.0005225354107096791
1920.0,-0.002680097706615925
2048.0,0.0016107105184346437
2304.0,0.002548283664509654
2560.0,0.005246322602033615
2816.0,0.0028225192800164223
3072.0,-0.002957209711894393
3328.0,-0.009248510003089905
3584.0,-0.012174425646662712
3840.0,-0.006928398739546537
4096.0,0.0017599271377548575
4608.0,0.004559523891657591
5120.0,-0.00045192750985734165
5632.0,-0.0059101395308971405
6144.0,-0.005107327364385128
6656.0,0.0064014834351837635
7168.0,0.006551846861839294
7680.0,-0.005327664315700531
8192.0,-0.00516339810565114
end
