version,3.0
numOfCh,1
type,point
parent_name,714af_0dot4-1dot0
ch_type,1_1
kcount,1
numberNandB,1
brightnessNandB,1
carpet pos,0
pc,0
Time (ms),CH1 Auto-Correlation
1.0,0.09393127262592316
2.0,0.08966737985610962
3.0,0.0857563316822052
4.0,0.0821540355682373
5.0,0.07891298085451126
6.0,0.07584905624389648
7.0,0.07304134219884872
8.0,0.07042301446199417
9.0,0.06792093068361282
10.0,0.06546229124069214
11.0,0.0628761425614357
12.0,0.060515373945236206
13.0,0.05826474726200104
14.0,0.056297000497579575
15.0,0.054396215826272964
16.0,0.052594371140003204
18.0,0.04922239109873772
20.0,0.04633556306362152
22.0,0.04384462162852287
24.0,0.041563525795936584
26.0,0.03934652730822563
28.0,0.037469975650310516
30.0,0.0357513464987278
32.0,0.034197624772787094
36.0,0.03137620538473129
40.0,0.029492411762475967
44.0,0.028460262343287468
48.0,0.027329018339514732
52.0,0.025898419320583344
56.0,0.024462001398205757
60.0,0.022698750719428062
64.0,0.020758697763085365
72.0,0.018264783546328545
80.0,0.01683095470070839
88.0,0.01630548946559429
96.0,0.016170544549822807
104.0,0.015147224068641663
112.0,0.013153623789548874
120.0,0.011711292900145054
128.0,0.011212987825274467
144.0,0.01034663524478674
160.0,0.009010972455143929
176.0,0.009683635085821152
192.0,0.010771514847874641
208.0,0.010475398041307926
224.0,0.008800353854894638
240.0,0.009724845178425312
256.0,0.009323558770120144
288.0,0.008117695339024067
320.0,0.011435040272772312
352.0,0.012343077920377254
384.0,0.011931175366044044
416.0,0.013827531598508358
448.0,0.011763033457100391
480.0,0.007382840849459171
512.0,0.003243169514462352
576.0,0.0014476146316155791
640.0,0.00475649256259203
704.0,-0.00014529292820952833
768.0,0.002878767205402255
832.0,0.001385597512125969
896.0,-0.000714851834345609
960.0,0.0008510752231813967
1024.0,-0.002344451379030943
1152.0,-0.004053805489093065
1280.0,-0.001757260411977768
1408.0,-0.0026607015170156956
1536.0,-0.002741074189543724
1664.0,-0.004387287888675928
1792.0,-0.0052590579725801945
1920.0,0.0015498795546591282
2048.0,-0.000515603693202138
2304.0,0.0048236423172056675
2560.0,-0.0002804810064844787
2816.0,0.002919688355177641
3072.0,0.0014473299961537123
3328.0,-0.0003456382255535573
3584.0,-0.002187822014093399
3840.0,0.0004131448222324252
4096.0,-0.002268304582685232
4608.0,-0.0003561957855708897
5120.0,-0.0019605038687586784
5632.0,-0.007324418053030968
6144.0,-0.005044286139309406
6656.0,-0.0016143828397616744
7168.0,0.0020332173444330692
7680.0,-0.002114346018061042
8192.0,-0.009898213669657707
end
