version,3.0
numOfCh,1
type,point
parent_name,714af_0dot4-1dot0
ch_type,1_1
kcount,1
numberNandB,1
brightnessNandB,1
carpet pos,0
pc,0
Time (ms),CH1 Auto-Correlation
1.0,0.10361785441637039
2.0,0.09897888451814651
3.0,0.09495919942855835
4.0,0.09128180891275406
5.0,0.08799319714307785
6.0,0.08489967882633209
7.0,0.08192460238933563
8.0,0.07948140054941177
9.0,0.0770677775144577
10.0,0.07498081028461456
11.0,0.07305239886045456
12.0,0.07099021971225739
13.0,0.06904494017362595
14.0,0.06712779402732849
15.0,0.06552287191152573
16.0,0.06391505897045135
18.0,0.06111149489879608
20.0,0.05848337709903717
22.0,0.05594918131828308
24.0,0.05347414314746857
26.0,0.05120787024497986
28.0,0.04899296164512634
30.0,0.04728623479604721
32.0,0.045630838721990585
36.0,0.04220056161284447
40.0,0.03891269117593765
44.0,0.03613170608878136
48.0,0.03374757990241051
52.0,0.03138894587755203
56.0,0.02895861677825451
60.0,0.026723751798272133
64.0,0.024448515847325325
72.0,0.021664483472704887
80.0,0.021314473822712898
88.0,0.020855702459812164
96.0,0.01933998242020607
104.0,0.01761525124311447
112.0,0.016203217208385468
120.0,0.015413089655339718
128.0,0.014628777280449867
144.0,0.01570119522511959
160.0,0.015883151441812515
176.0,0.014877189882099628
192.0,0.01454792357981205
208.0,0.01447855494916439
224.0,0.01194804534316063
240.0,0.008640299551188946
256.0,0.006129784509539604
288.0,0.006663364823907614
320.0,0.007242696359753609
352.0,0.004799168556928635
384.0,0.003555209841579199
416.0,0.0013539439532905817
448.0,-0.0001470305141992867
480.0,0.0017193598905578256
512.0,-0.0017750828992575407
576.0,-0.0053117298521101475
640.0,-0.009939577430486679
704.0,-0.007989063858985901
768.0,-0.008831366896629333
832.0,-0.0071282112039625645
896.0,-0.0020806340035051107
960.0,-0.005323369521647692
1024.0,-0.006284470669925213
1152.0,-0.0041266754269599915
1280.0,-0.005068330094218254
1408.0,0.004458381794393063
1536.0,0.006926650181412697
1664.0,-0.0021001158747822046
1792.0,-0.0018832482164725661
1920.0,0.0009871834190562367
2048.0,-0.0030506725888699293
2304.0,-0.0014267091173678637
2560.0,-0.001531753339804709
2816.0,0.0010871209669858217
3072.0,0.0032402821816504
3328.0,0.002678245073184371
3584.0,-0.0025281300768256187
3840.0,-0.009226013906300068
4096.0,-0.0015746249118819833
4608.0,-0.00620076060295105
5120.0,-0.005207916256040335
5632.0,0.00037311032065190375
6144.0,-0.0007529716240242124
6656.0,0.004851530771702528
7168.0,0.006604846566915512
7680.0,-0.0031473315320909023
8192.0,-0.003152466844767332
end
