version,3.0
numOfCh,1
type,point
parent_name,714af_0dot4-1dot0
ch_type,1_1
kcount,1
numberNandB,1
brightnessNandB,1
carpet pos,0
pc,0
Time (ms),CH1 Auto-Correlation
1.0,0.09818273037672043
2.0,0.09391263872385025
3.0,0.09019643813371658
4.0,0.0868111401796341
5.0,0.08383214473724365
6.0,0.08108709007501602
7.0,0.07854140549898148
8.0,0.07626963406801224
9.0,0.07394873350858688
10.0,0.07183756679296494
11.0,0.0699525773525238
12.0,0.06797794997692108
13.0,0.06613229960203171
14.0,0.06430135667324066
15.0,0.06281399726867676
16.0,0.06124028563499451
18.0,0.05816362798213959
20.0,0.055227525532245636
22.0,0.05255226790904999
24.0,0.050182800740003586
26.0,0.04800206422805786
28.0,0.04584413766860962
30.0,0.04406760632991791
32.0,0.0421760156750679
36.0,0.03862769156694412
40.0,0.03538044914603233
44.0,0.03254084289073944
48.0,0.030482899397611618
52.0,0.028079865500330925
56.0,0.025419730693101883
60.0,0.023092715069651604
64.0,0.02117566205561161
72.0,0.01784875988960266
80.0,0.013491648249328136
88.0,0.011250720359385014
96.0,0.009692758321762085
104.0,0.008762544952332973
112.0,0.00810052827000618
120.0,0.007943810895085335
128.0,0.008370548486709595
144.0,0.009075524285435677
160.0,0.010257595218718052
176.0,0.011626162566244602
192.0,0.011522729881107807
208.0,0.010805528610944748
224.0,0.00883588194847107
240.0,0.005545270163565874
256.0,0.003074715845286846
288.0,0.0010206284932792187
320.0,-0.002282809466123581
352.0,-0.005070507526397705
384.0,-0.005428025033324957
416.0,-0.0010560991941019893
448.0,0.00528675178065896
480.0,0.006981586571782827
512.0,0.005770373158156872
576.0,0.001983305672183633
640.0,0.00694621354341507
704.0,0.0043162028305232525
768.0,-0.00456242123618722
832.0,0.000939558376558125
896.0,0.0010771766537800431
960.0,-0.006749792490154505
1024.0,-0.00369728053919971
1152.0,-0.0004029590345453471
1280.0,-0.003437626641243696
1408.0,-0.0030244127847254276
1536.0,-0.0013764629838988185
1664.0,-0.005306207574903965
1792.0,-0.009097459726035595
1920.0,-0.007577329874038696
2048.0,-0.007561806123703718
2304.0,-0.0018697240157052875
2560.0,0.0005868918960914016
2816.0,0.004273207392543554
3072.0,0.0069781201891601086
3328.0,-0.0007809550152160227
3584.0,0.006217826623469591
3840.0,0.004006973002105951
4096.0,-0.00019734101078938693
4608.0,-0.0023945318534970284
5120.0,0.0022868881933391094
5632.0,0.00020486503490246832
6144.0,0.0044417837634682655
6656.0,-9.406904428033158e-05
7168.0,-0.003581069642677903
7680.0,-0.00855790264904499
8192.0,-0.008446412160992622
end
