version,3.0
numOfCh,1
type,point
parent_name,714af_0dot4-1dot0
ch_type,1_1
kcount,1
numberNandB,1
brightnessNandB,1
carpet pos,0
pc,0
Time (ms),CH1 Auto-Correlation
1.0,0.10860739648342133
2.0,0.10476718097925186
3.0,0.1013224869966507
4.0,0.09816781431436539
5.0,0.09521076083183289
6.0,0.09240162372589111
7.0,0.08983945101499557
8.0,0.08744040131568909
9.0,0.08519961684942245
10.0,0.08332090079784393
11.0,0.08156035095453262
12.0,0.07971785217523575
13.0,0.07799837738275528
14.0,0.07631947100162506
15.0,0.0747423768043518
16.0,0.07324276864528656
18.0,0.07022340595722198
20.0,0.0676349401473999
22.0,0.06562422960996628
24.0,0.06378325819969177
26.0,0.06201652064919472
28.0,0.060375045984983444
30.0,0.058542054146528244
32.0,0.0567702054977417
36.0,0.05273342505097389
40.0,0.048713721334934235
44.0,0.04532073438167572
48.0,0.04226883500814438
52.0,0.039213575422763824
56.0,0.036609429866075516
60.0,0.03427010029554367
64.0,0.03196031227707863
72.0,0.02847144939005375
80.0,0.026165036484599113
88.0,0.024405935779213905
96.0,0.022826315835118294
104.0,0.021330390125513077
112.0,0.020178088918328285
120.0,0.019031289964914322
128.0,0.017414653673768044
144.0,0.015374666079878807
160.0,0.013463038019835949
176.0,0.009875722229480743
192.0,0.006729268468916416
208.0,0.0031819294672459364
224.0,0.00021062248561065644
240.0,-0.0020869362633675337
256.0,-0.0035147557500749826
288.0,-0.0012102473992854357
320.0,0.0028777841944247484
352.0,0.004373232834041119
384.0,-0.0004962179227732122
416.0,-0.001052267849445343
448.0,-0.00038640640559606254
480.0,-0.0010118596255779266
512.0,-0.00023301357578020543
576.0,-0.0003351603518240154
640.0,-0.002387304324656725
704.0,-0.005698367487639189
768.0,-0.006272165570408106
832.0,-0.004091586451977491
896.0,0.002666807733476162
960.0,0.00484737753868103
1024.0,0.002846460323780775
1152.0,-0.005580457393079996
1280.0,-0.0058699194341897964
1408.0,-6.352144555421546e-05
1536.0,-0.0014319223118945956
1664.0,-0.0005667759687639773
1792.0,-0.0022745740134269
1920.0,-0.003353219013661146
2048.0,-0.003970402292907238
2304.0,-0.003956108819693327
2560.0,-0.006422108039259911
2816.0,0.00011146403267048299
3072.0,0.0012297749053686857
3328.0,0.00664900429546833
3584.0,-0.0003309809253551066
3840.0,-0.0022461621556431055
4096.0,0.00452806381508708
4608.0,0.0015128933591768146
5120.0,0.0017322716303169727
5632.0,0.0008782936492934823
6144.0,-0.005039215087890625
6656.0,-0.0035867663100361824
7168.0,0.005407269112765789
7680.0,0.003426286391913891
8192.0,-0.00153897434938699
end
