version,3.0
numOfCh,1
type,point
parent_name,34a6d_50dot0-0dot01
ch_type,1_1
kcount,1
numberNandB,1
brightnessNandB,1
carpet pos,0
pc,0
Time (ms),CH1 Auto-Correlation
1.0,0.0579637847840786
2.0,0.052106764167547226
3.0,0.0484829917550087
4.0,0.04490862786769867
5.0,0.040819715708494186
6.0,0.03740720450878143
7.0,0.034287575632333755
8.0,0.030802281573414803
9.0,0.03039279766380787
10.0,0.029330411925911903
11.0,0.029107706621289253
12.0,0.02873256988823414
13.0,0.028880760073661804
14.0,0.02807922288775444
15.0,0.027122890576720238
16.0,0.027122091501951218
18.0,0.025862673297524452
20.0,0.0251731276512146
22.0,0.024826031178236008
24.0,0.02470765821635723
26.0,0.024995004758238792
28.0,0.024827688932418823
30.0,0.024933788925409317
32.0,0.02408790774643421
36.0,0.023405807092785835
40.0,0.022608913481235504
44.0,0.02230198122560978
48.0,0.02141161635518074
52.0,0.020889712497591972
56.0,0.02002710849046707
60.0,0.018693063408136368
64.0,0.01923847757279873
72.0,0.017462126910686493
80.0,0.016212932765483856
88.0,0.01535365916788578
96.0,0.014588079415261745
104.0,0.01394705567508936
112.0,0.013623024336993694
120.0,0.01245854701846838
128.0,0.012432809919118881
144.0,0.010473784990608692
160.0,0.009195967577397823
176.0,0.007163497619330883
192.0,0.006056196987628937
208.0,0.0032466035336256027
224.0,-0.0001906246179714799
240.0,-0.0013720090501010418
256.0,-0.0018871912034228444
288.0,-0.0028634422924369574
320.0,-0.0034874991979449987
352.0,-0.004560453351587057
384.0,-0.005343110766261816
416.0,-0.0060009886510670185
448.0,-0.005575715564191341
480.0,-0.004521999973803759
512.0,-0.0038551269099116325
576.0,-0.002882641740143299
640.0,-0.0023088387679308653
704.0,-0.004425987601280212
768.0,-0.005120358429849148
832.0,-0.004494970664381981
896.0,-0.001670829951763153
960.0,-0.0036808939184993505
1024.0,-0.0006488717044703662
1152.0,0.0050384956412017345
1280.0,0.009749061428010464
1408.0,0.007712101098150015
1536.0,-0.006930374074727297
1664.0,-0.007163148373365402
1792.0,-0.012590241618454456
1920.0,-0.011910424567759037
2048.0,-0.012122221291065216
end
