version,3.0
numOfCh,1
type,point
parent_name,19e3e_0dot1-1dot0
ch_type,1_1
kcount,1
numberNandB,1
brightnessNandB,1
carpet pos,0
pc,0
Time (ms),CH1 Auto-Correlation
1.0,0.04367273673415184
2.0,0.04325195029377937
3.0,0.042859893292188644
4.0,0.04249921441078186
5.0,0.04215162247419357
6.0,0.04181264340877533
7.0,0.04148641601204872
8.0,0.04117480665445328
9.0,0.04085657373070717
10.0,0.0405491404235363
11.0,0.04024903103709221
12.0,0.039949364960193634
13.0,0.039663027971982956
14.0,0.03937827795743942
15.0,0.0390954315662384
16.0,0.038830846548080444
18.0,0.038317784667015076
20.0,0.03781420737504959
22.0,0.03731466084718704
24.0,0.03683789446949959
26.0,0.03639400750398636
28.0,0.0360003225505352
30.0,0.035613059997558594
32.0,0.03522152826189995
36.0,0.03447991609573364
40.0,0.03378218412399292
44.0,0.03307538107037544
48.0,0.03241211548447609
52.0,0.031783588230609894
56.0,0.031168170273303986
60.0,0.030536577105522156
64.0,0.029864933341741562
72.0,0.02868570201098919
80.0,0.027565835043787956
88.0,0.02661200240254402
96.0,0.025671793147921562
104.0,0.024781638756394386
112.0,0.023959597572684288
120.0,0.02330804616212845
128.0,0.022652365267276764
144.0,0.021333856508135796
160.0,0.02023528330028057
176.0,0.01940665766596794
192.0,0.018837381154298782
208.0,0.018028194084763527
224.0,0.017227498814463615
240.0,0.01629393920302391
256.0,0.01585099659860134
288.0,0.014748443849384785
320.0,0.013194841332733631
352.0,0.012037976644933224
384.0,0.011112568899989128
416.0,0.011038679629564285
448.0,0.011569407768547535
480.0,0.012274290435016155
512.0,0.012501581571996212
576.0,0.012273326516151428
640.0,0.010935797356069088
704.0,0.009074424393475056
768.0,0.0063225035555660725
832.0,0.0027410585898905993
896.0,0.0001664444716880098
960.0,-0.0007005449733696878
1024.0,-0.00028433793340809643
1152.0,0.000496467633638531
1280.0,0.0022282705176621675
1408.0,-0.00012032966333208606
1536.0,-0.004884004592895508
1664.0,-0.007504698354750872
1792.0,-0.006369073409587145
1920.0,-0.005896388087421656
2048.0,-0.007144139148294926
2304.0,-0.012330323457717896
2560.0,-0.009929190389811993
2816.0,-0.010218799114227295
3072.0,-0.006684113293886185
3328.0,-0.0047667501494288445
3584.0,-0.0011489802272990346
3840.0,0.002774181542918086
4096.0,0.00653812475502491
4608.0,0.008293445222079754
5120.0,0.0050695049576461315
5632.0,0.006089149042963982
6144.0,0.0021489786449819803
6656.0,-0.011595855467021465
7168.0,-0.010065648704767227
7680.0,-0.01145381573587656
8192.0,-0.004963641054928303
end
