version,3.0
numOfCh,1
type,point
parent_name,19e3e_0dot1-1dot0
ch_type,1_1
kcount,1
numberNandB,1
brightnessNandB,1
carpet pos,0
pc,0
Time (ms),CH1 Auto-Correlation
1.0,0.04463982582092285
2.0,0.044188521802425385
3.0,0.0437597893178463
4.0,0.04333621263504028
5.0,0.04292029142379761
6.0,0.042519524693489075
7.0,0.04212512820959091
8.0,0.04173470288515091
9.0,0.04137098416686058
10.0,0.041013799607753754
11.0,0.040625542402267456
12.0,0.040251024067401886
13.0,0.039877999573946
14.0,0.039510734379291534
15.0,0.03916152939200401
16.0,0.03882458806037903
18.0,0.03813677653670311
20.0,0.037484921514987946
22.0,0.036879584193229675
24.0,0.03629201278090477
26.0,0.035711150616407394
28.0,0.035165440291166306
30.0,0.034636348485946655
32.0,0.03412773460149765
36.0,0.03316674754023552
40.0,0.03222855180501938
44.0,0.031351059675216675
48.0,0.030554139986634254
52.0,0.029699187725782394
56.0,0.028900479897856712
60.0,0.02823990397155285
64.0,0.027622008696198463
72.0,0.026363467797636986
80.0,0.025213971734046936
88.0,0.024123765528202057
96.0,0.023253854364156723
104.0,0.02244313806295395
112.0,0.021679624915122986
120.0,0.020924493670463562
128.0,0.020063957199454308
144.0,0.018745621666312218
160.0,0.018060019239783287
176.0,0.01763344556093216
192.0,0.016895079985260963
208.0,0.01583123579621315
224.0,0.014974434860050678
240.0,0.014639767818152905
256.0,0.014226510189473629
288.0,0.013375204056501389
320.0,0.011687077581882477
352.0,0.00963991042226553
384.0,0.008378583006560802
416.0,0.007255245931446552
448.0,0.005431260447949171
480.0,0.004584820009768009
512.0,0.005294249393045902
576.0,0.004993242211639881
640.0,0.004194988869130611
704.0,0.0038343481719493866
768.0,0.0013650094624608755
832.0,6.722535181324929e-05
896.0,0.0007887969841249287
960.0,0.0012364289723336697
1024.0,6.276217027334496e-05
1152.0,-0.0005957373650744557
1280.0,-0.00046680140076205134
1408.0,-0.0003514489799272269
1536.0,-0.0015438320115208626
1664.0,-0.003125242656096816
1792.0,-0.0025849135126918554
1920.0,-0.0023599467240273952
2048.0,0.00025406881468370557
2304.0,-0.0012599704787135124
2560.0,-0.0015988560626283288
2816.0,-0.001823039841838181
3072.0,-0.003321630647405982
3328.0,0.0009202490327879786
3584.0,0.0004616460937540978
3840.0,0.0010988113936036825
4096.0,0.004928965121507645
4608.0,0.004075617529451847
5120.0,-0.002620113780722022
5632.0,-0.007714567240327597
6144.0,-0.0068497988395392895
6656.0,-0.004937945399433374
7168.0,-0.006695711053907871
7680.0,0.0018530566012486815
8192.0,0.0027829392347484827
end
