version,3.0
numOfCh,1
type,point
parent_name,19e3e_0dot1-1dot0
ch_type,1_1
kcount,1
numberNandB,1
brightnessNandB,1
carpet pos,0
pc,0
Time (ms),CH1 Auto-Correlation
1.0,0.052063871175050735
2.0,0.051527269184589386
3.0,0.05107245594263077
4.0,0.050621144473552704
5.0,0.05020160973072052
6.0,0.049804046750068665
7.0,0.04935907572507858
8.0,0.04893634468317032
9.0,0.048575207591056824
10.0,0.048189643770456314
11.0,0.04779355600476265
12.0,0.047402918338775635
13.0,0.047023922204971313
14.0,0.046664293855428696
15.0,0.046278685331344604
16.0,0.04588308557868004
18.0,0.045173123478889465
20.0,0.044525932520627975
22.0,0.043861161917448044
24.0,0.04321254417300224
26.0,0.04258431866765022
28.0,0.042000263929367065
30.0,0.04144321754574776
32.0,0.04088396206498146
36.0,0.03988301381468773
40.0,0.038991957902908325
44.0,0.03808595985174179
48.0,0.037244703620672226
52.0,0.03643382340669632
56.0,0.03559990972280502
60.0,0.03480818495154381
64.0,0.03401821106672287
72.0,0.03256674110889435
80.0,0.031157735735177994
88.0,0.02988477051258087
96.0,0.028754329308867455
104.0,0.027683556079864502
112.0,0.026633650064468384
120.0,0.025736598297953606
128.0,0.02490645833313465
144.0,0.023338327184319496
160.0,0.02164330892264843
176.0,0.019990919157862663
192.0,0.018408216536045074
208.0,0.017049383372068405
224.0,0.01604839228093624
240.0,0.015589166432619095
256.0,0.015619831159710884
288.0,0.016396941617131233
320.0,0.016751205548644066
352.0,0.01678375154733658
384.0,0.01672999933362007
416.0,0.01652316004037857
448.0,0.01580924168229103
480.0,0.014207926578819752
512.0,0.012542464770376682
576.0,0.010879285633563995
640.0,0.010025271214544773
704.0,0.010015759617090225
768.0,0.009505383670330048
832.0,0.006367554422467947
896.0,0.003210918977856636
960.0,0.0007133872131817043
1024.0,0.001036575878970325
1152.0,0.0036513751838356256
1280.0,0.006349695846438408
1408.0,0.004898710176348686
1536.0,0.0011187165509909391
1664.0,-0.001969772856682539
1792.0,-0.003030853345990181
1920.0,-0.000996952410787344
2048.0,0.0014486508443951607
2304.0,0.0031571651343256235
2560.0,0.004237382672727108
2816.0,0.0023276933934539557
3072.0,-0.0022480515763163567
3328.0,0.0008278528111986816
3584.0,0.0016130931908264756
3840.0,0.004957311321049929
4096.0,0.0013327226042747498
4608.0,-0.004215241875499487
5120.0,-0.006252784747630358
5632.0,-0.0008932439959608018
6144.0,0.0014954156940802932
6656.0,-0.008335672318935394
7168.0,-0.011532535776495934
7680.0,-0.008666450157761574
8192.0,-0.0052158464677631855
end
