version,3.0
numOfCh,1
type,point
parent_name,19e3e_0dot1-1dot0
ch_type,1_1
kcount,1
numberNandB,1
brightnessNandB,1
carpet pos,0
pc,0
Time (ms),CH1 Auto-Correlation
1.0,0.03963986784219742
2.0,0.039246656000614166
3.0,0.038875240832567215
4.0,0.03850490227341652
5.0,0.03814053535461426
6.0,0.03778357058763504
7.0,0.03744363784790039
8.0,0.037100650370121
9.0,0.0367620550096035
10.0,0.036427054554224014
11.0,0.03609330579638481
12.0,0.035764046013355255
13.0,0.03544280305504799
14.0,0.03511606901884079
15.0,0.03479313477873802
16.0,0.03447634354233742
18.0,0.03383977338671684
20.0,0.033222027122974396
22.0,0.03261042386293411
24.0,0.03200887143611908
26.0,0.03141302242875099
28.0,0.030822766944766045
30.0,0.03024744614958763
32.0,0.029679222032427788
36.0,0.02850583754479885
40.0,0.027418680489063263
44.0,0.02642989344894886
48.0,0.02548162266612053
52.0,0.02460496872663498
56.0,0.023760206997394562
60.0,0.022913344204425812
64.0,0.022116893902420998
72.0,0.02069070376455784
80.0,0.01938163861632347
88.0,0.018174974247813225
96.0,0.016932673752307892
104.0,0.01587584801018238
112.0,0.015013088472187519
120.0,0.014291033148765564
128.0,0.01346602663397789
144.0,0.012075615115463734
160.0,0.010832307860255241
176.0,0.009804384782910347
192.0,0.0087199741974473
208.0,0.00782631617039442
224.0,0.007037203758955002
240.0,0.006780643947422504
256.0,0.006612150464206934
288.0,0.005751078017055988
320.0,0.0041257175616919994
352.0,0.002701065270230174
384.0,0.0017137449467554688
416.0,0.001432098913937807
448.0,0.001578336814418435
480.0,0.0016061345813795924
512.0,0.0020666865166276693
576.0,0.0029614523518830538
640.0,0.0007188312010839581
704.0,-0.002036734949797392
768.0,-0.0034142271615564823
832.0,-0.003148134797811508
896.0,-0.0025248401798307896
960.0,-0.002840550383552909
1024.0,-0.0036558357533067465
1152.0,-0.002694956259801984
1280.0,-0.0013390142703428864
1408.0,0.0012081387685611844
1536.0,0.0013389881933107972
1664.0,0.0024137916043400764
1792.0,0.0014245751081034541
1920.0,-0.0028512231074273586
2048.0,-0.0052624172531068325
2304.0,-0.005832860246300697
2560.0,-0.006434719078242779
2816.0,-0.0016639681998640299
3072.0,0.0005137990810908377
3328.0,0.0037010814994573593
3584.0,-0.00039496005047112703
3840.0,-0.002914492040872574
4096.0,-0.0008361245854757726
4608.0,0.0035404926165938377
5120.0,0.0019506652606651187
5632.0,-0.0010000929469242692
6144.0,-0.000495643587782979
6656.0,0.0009132117265835404
7168.0,-0.0027531057130545378
7680.0,-0.0010406440123915672
8192.0,-0.005106255877763033
end
