version,3.0
numOfCh,1
type,point
parent_name,19e3e_0dot1-1dot0
ch_type,1_1
kcount,1
numberNandB,1
brightnessNandB,1
carpet pos,0
pc,0
Time (ms),CH1 Auto-Correlation
1.0,0.036936093121767044
2.0,0.03643803671002388
3.0,0.03601064532995224
4.0,0.035609472543001175
5.0,0.03521469607949257
6.0,0.034814927726984024
7.0,0.03442075103521347
8.0,0.03404345363378525
9.0,0.03367501124739647
10.0,0.033333536237478256
11.0,0.03300011530518532
12.0,0.03265972435474396
13.0,0.0323166660964489
14.0,0.03198308125138283
15.0,0.031672555953264236
16.0,0.031349021941423416
18.0,0.03075617551803589
20.0,0.030169574543833733
22.0,0.02956627681851387
24.0,0.02895837277173996
26.0,0.028346017003059387
28.0,0.02775879204273224
30.0,0.027176063507795334
32.0,0.02660132385790348
36.0,0.025512175634503365
40.0,0.024372577667236328
44.0,0.02324008382856846
48.0,0.022169051691889763
52.0,0.021197965368628502
56.0,0.02030353993177414
60.0,0.01941518485546112
64.0,0.018531523644924164
72.0,0.017145123332738876
80.0,0.01592073403298855
88.0,0.014845275320112705
96.0,0.01396571472287178
104.0,0.013320800848305225
112.0,0.012729398906230927
120.0,0.012246501632034779
128.0,0.011891244910657406
144.0,0.011302405968308449
160.0,0.010359427891671658
176.0,0.009308981709182262
192.0,0.008162072859704494
208.0,0.007451110519468784
224.0,0.006876569706946611
240.0,0.006749893072992563
256.0,0.006971204653382301
288.0,0.0060504283756017685
320.0,0.0052210548892617226
352.0,0.004772298503667116
384.0,0.0047526233829557896
416.0,0.003923316951841116
448.0,0.0028377934359014034
480.0,0.0017851126613095403
512.0,0.0007178107625804842
576.0,-6.86235653120093e-05
640.0,0.0013022024650126696
704.0,-0.00011174791870871559
768.0,9.444383613299578e-05
832.0,0.000909484748262912
896.0,0.0020203590393066406
960.0,0.0031433820258826017
1024.0,0.003352242521941662
1152.0,-0.004153113346546888
1280.0,-0.0048118047416210175
1408.0,-0.002089127665385604
1536.0,-0.00297709833830595
1664.0,-0.0035474891774356365
1792.0,-0.004419251345098019
1920.0,-0.0020644678734242916
2048.0,-0.0006275215419009328
2304.0,0.0006858445703983307
2560.0,0.00227132230065763
2816.0,-0.00015948030340950936
3072.0,-0.0008935629739426076
3328.0,-0.0031663195695728064
3584.0,-0.003521287115290761
3840.0,0.0024822945706546307
4096.0,0.0018053981475532055
4608.0,0.0018329493468627334
5120.0,-0.0007989582372829318
5632.0,-0.005149086471647024
6144.0,-0.005991434212774038
6656.0,-0.00031068650423549116
7168.0,0.006458040792495012
7680.0,0.003648151410743594
8192.0,0.000636285578366369
end
