version,3.0
numOfCh,1
type,point
parent_name,19e3e_0dot1-1dot0
ch_type,1_1
kcount,1
numberNandB,1
brightnessNandB,1
carpet pos,0
pc,0
Time (ms),CH1 Auto-Correlation
1.0,0.03899475559592247
2.0,0.038540132343769073
3.0,0.038113851100206375
4.0,0.03771442174911499
5.0,0.037318915128707886
6.0,0.03695129603147507
7.0,0.03658844530582428
8.0,0.03624178469181061
9.0,0.03591429814696312
10.0,0.03557834401726723
11.0,0.03525606542825699
12.0,0.03494219109416008
13.0,0.034648459404706955
14.0,0.03434506803750992
15.0,0.03405658155679703
16.0,0.03377079591155052
18.0,0.03321316838264465
20.0,0.0326559953391552
22.0,0.03211315721273422
24.0,0.031591203063726425
26.0,0.031088750809431076
28.0,0.03055996261537075
30.0,0.030050000175833702
32.0,0.02956760860979557
36.0,0.028613099828362465
40.0,0.027692966163158417
44.0,0.026865888386964798
48.0,0.0260934978723526
52.0,0.025396443903446198
56.0,0.02472171187400818
60.0,0.024061424657702446
64.0,0.02347479574382305
72.0,0.02217021957039833
80.0,0.0208051148802042
88.0,0.019426921382546425
96.0,0.018092582002282143
104.0,0.01688002236187458
112.0,0.01595335826277733
120.0,0.015213925391435623
128.0,0.014627592638134956
144.0,0.013486425392329693
160.0,0.012351485900580883
176.0,0.011472840793430805
192.0,0.01052056159824133
208.0,0.009670655243098736
224.0,0.00885721854865551
240.0,0.007849590852856636
256.0,0.006829609628766775
288.0,0.005700674373656511
320.0,0.005180780775845051
352.0,0.0050506931729614735
384.0,0.0050968872383236885
416.0,0.005725982133299112
448.0,0.005292084999382496
480.0,0.004508477635681629
512.0,0.004068626090884209
576.0,0.0033273210283368826
640.0,0.0011753815924748778
704.0,-0.0014194780960679054
768.0,-0.003521482227370143
832.0,-0.005100796464830637
896.0,-0.004610713105648756
960.0,-0.004205077420920134
1024.0,-0.003555565606802702
1152.0,-0.0006945051718503237
1280.0,-0.00124059384688735
1408.0,-0.0022164550609886646
1536.0,-0.0006411734502762556
1664.0,0.00316316238604486
1792.0,0.0041013252921402454
1920.0,0.0024450223427265882
2048.0,0.0015334683703258634
2304.0,0.0013657856034114957
2560.0,6.008464333717711e-05
2816.0,-0.0022176194470375776
3072.0,-0.003685583593323827
3328.0,-0.0029936968348920345
3584.0,-0.0016167665598914027
3840.0,-0.0008041481487452984
4096.0,-0.0039338963106274605
4608.0,-0.006401584018021822
5120.0,-0.0037829969078302383
5632.0,-0.001573166693560779
6144.0,0.0009971241233870387
6656.0,-0.0012477104319259524
7168.0,-0.0031901069451123476
7680.0,0.002374422736465931
8192.0,0.0030773435719311237
end
