version,3.0
numOfCh,1
type,point
parent_name,19e3e_0dot1-1dot0
ch_type,1_1
kcount,1
numberNandB,1
brightnessNandB,1
carpet pos,0
pc,0
Time (ms),CH1 Auto-Correlation
1.0,0.03218189999461174
2.0,0.03177367523312569
3.0,0.03137073665857315
4.0,0.030977990478277206
5.0,0.030594024807214737
6.0,0.030233412981033325
7.0,0.029865413904190063
8.0,0.029507165774703026
9.0,0.02915083058178425
10.0,0.028790323063731194
11.0,0.028447451069951057
12.0,0.02810128591954708
13.0,0.02776535041630268
14.0,0.027427872642874718
15.0,0.02710014395415783
16.0,0.026775510981678963
18.0,0.026134656742215157
20.0,0.025549834594130516
22.0,0.025007905438542366
24.0,0.0244478527456522
26.0,0.023898471146821976
28.0,0.023381303995847702
30.0,0.022877488285303116
32.0,0.022389626130461693
36.0,0.021454596891999245
40.0,0.02054973691701889
44.0,0.019750647246837616
48.0,0.01892063021659851
52.0,0.018081558868288994
56.0,0.01725248247385025
60.0,0.016429807990789413
64.0,0.015568457543849945
72.0,0.014073279686272144
80.0,0.012900949455797672
88.0,0.011997044086456299
96.0,0.011169087141752243
104.0,0.010386995039880276
112.0,0.009572104550898075
120.0,0.008859279565513134
128.0,0.008336241357028484
144.0,0.007401100359857082
160.0,0.006394315976649523
176.0,0.005188753362745047
192.0,0.0042089056223630905
208.0,0.003437192179262638
224.0,0.0032700945157557726
240.0,0.003144313581287861
256.0,0.0032927789725363255
288.0,0.003487687325105071
320.0,0.0032662246376276016
352.0,0.0027008589822798967
384.0,0.002827249001711607
416.0,0.0025073213037103415
448.0,0.0024563316255807877
480.0,0.0023980315309017897
512.0,0.002779400674626231
576.0,0.00336093595251441
640.0,0.0014380504144355655
704.0,-0.0009862190345302224
768.0,-0.0015626164386048913
832.0,-0.0005387489218264818
896.0,-0.0004448121471796185
960.0,-0.0007853706483729184
1024.0,-0.0008939385297708213
1152.0,-0.0028052113484591246
1280.0,-0.004457666538655758
1408.0,-0.001679542358033359
1536.0,0.0003839589189738035
1664.0,0.0008169794455170631
1792.0,-0.00015995527792256325
1920.0,-0.003992830403149128
2048.0,-0.002230960177257657
2304.0,-0.00251143891364336
2560.0,-0.0027967654168605804
2816.0,-0.00264726928435266
3072.0,-0.0006989785470068455
3328.0,-0.001166377798654139
3584.0,-0.0007108143763616681
3840.0,0.001024155761115253
4096.0,0.0049497210420668125
4608.0,0.0019134192261844873
5120.0,-0.0005037002847529948
5632.0,-0.0012068090727552772
6144.0,-0.003781984793022275
6656.0,-0.0017329581314697862
7168.0,0.0016072470461949706
7680.0,0.0008681173785589635
8192.0,0.0008647402282804251
end
