version,3.0
numOfCh,1
type,point
parent_name,19e3e_0dot1-1dot0
ch_type,1_1
kcount,1
numberNandB,1
brightnessNandB,1
carpet pos,0
pc,0
Time (ms),CH1 Auto-Correlation
1.0,0.04526671767234802
2.0,0.044807370752096176
3.0,0.04437103122472763
4.0,0.043965183198451996
5.0,0.04358659312129021
6.0,0.043220940977334976
7.0,0.04286625608801842
8.0,0.042529452592134476
9.0,0.042213842272758484
10.0,0.04190804064273834
11.0,0.0415959432721138
12.0,0.04130372032523155
13.0,0.04102177917957306
14.0,0.040741316974163055
15.0,0.04045597091317177
16.0,0.04018140584230423
18.0,0.039686042815446854
20.0,0.03919977322220802
22.0,0.038705866783857346
24.0,0.03825944662094116
26.0,0.03778448328375816
28.0,0.03733890503644943
30.0,0.036929260939359665
32.0,0.036530423909425735
36.0,0.03573266416788101
40.0,0.03494685888290405
44.0,0.03421106934547424
48.0,0.0334794707596302
52.0,0.032747138291597366
56.0,0.032063353806734085
60.0,0.031417470425367355
64.0,0.03076799213886261
72.0,0.02951287478208542
80.0,0.02813032455742359
88.0,0.026719022542238235
96.0,0.02540132775902748
104.0,0.024090606719255447
112.0,0.022966695949435234
120.0,0.022005543112754822
128.0,0.02103310264647007
144.0,0.019205225631594658
160.0,0.017457280308008194
176.0,0.01612481102347374
192.0,0.014997829683125019
208.0,0.013915381394326687
224.0,0.012723537161946297
240.0,0.011769307777285576
256.0,0.010838041082024574
288.0,0.009498932398855686
320.0,0.0077544027008116245
352.0,0.0059140268713235855
384.0,0.004265668801963329
416.0,0.002745330799371004
448.0,0.0013814517296850681
480.0,-0.00015361534315161407
512.0,-0.001057230867445469
576.0,-0.0013717716792598367
640.0,-0.0003953964333049953
704.0,0.0005628071376122534
768.0,0.0011241449974477291
832.0,0.00149983586743474
896.0,0.002332694362848997
960.0,0.003709061536937952
1024.0,0.003391184378415346
1152.0,-0.0003672748862300068
1280.0,-0.002425998216494918
1408.0,-0.003461275016888976
1536.0,-0.0023924403358250856
1664.0,0.00041686833719722927
1792.0,-0.0007693376974202693
1920.0,-0.002569593256339431
2048.0,-0.00270691211335361
2304.0,-0.0035992348566651344
2560.0,0.00038504143594764173
2816.0,0.0013039527693763375
3072.0,0.001429874449968338
3328.0,-0.0008773257723078132
3584.0,-0.004688960500061512
3840.0,-0.00011859244841616601
4096.0,0.003879409283399582
4608.0,0.00048120185965672135
5120.0,0.002868673764169216
5632.0,-0.0033689732663333416
6144.0,0.00038149618194438517
6656.0,-0.007685103453695774
7168.0,-0.002526354044675827
7680.0,-0.0030017471872270107
8192.0,-0.003862178884446621
end
