version,3.0
numOfCh,1
type,point
parent_name,19e3e_0dot1-1dot0
ch_type,1_1
kcount,1
numberNandB,1
brightnessNandB,1
carpet pos,0
pc,0
Time (ms),CH1 Auto-Correlation
1.0,0.058015916496515274
2.0,0.057538580149412155
3.0,0.05712131783366203
4.0,0.05671056732535362
5.0,0.05633332580327988
6.0,0.05597257614135742
7.0,0.0556068941950798
8.0,0.055241361260414124
9.0,0.05490266531705856
10.0,0.0545603446662426
11.0,0.05423380434513092
12.0,0.05392466112971306
13.0,0.05361149460077286
14.0,0.05331770330667496
15.0,0.05302140489220619
16.0,0.05271928012371063
18.0,0.052171625196933746
20.0,0.05162381753325462
22.0,0.05108391493558884
24.0,0.0505576953291893
26.0,0.05005200579762459
28.0,0.049573864787817
30.0,0.04912082850933075
32.0,0.048668086528778076
36.0,0.04784025624394417
40.0,0.04711035266518593
44.0,0.04641936346888542
48.0,0.04567641392350197
52.0,0.044968243688344955
56.0,0.04426157474517822
60.0,0.04349569231271744
64.0,0.042749710381031036
72.0,0.041370999068021774
80.0,0.04009571671485901
88.0,0.0389939583837986
96.0,0.03810367360711098
104.0,0.037197764962911606
112.0,0.03618520870804787
120.0,0.03508467599749565
128.0,0.033816542476415634
144.0,0.03177834302186966
160.0,0.030140524730086327
176.0,0.02880817838013172
192.0,0.02749663032591343
208.0,0.02616412378847599
224.0,0.0250344630330801
240.0,0.02372533455491066
256.0,0.022655939683318138
288.0,0.02143094316124916
320.0,0.01990314945578575
352.0,0.018591567873954773
384.0,0.01728324592113495
416.0,0.016055097803473473
448.0,0.015215480700135231
480.0,0.014939726330339909
512.0,0.013606521300971508
576.0,0.010417500510811806
640.0,0.008658717386424541
704.0,0.0055831121280789375
768.0,0.0028758475091308355
832.0,0.0005395060870796442
896.0,-0.0007240443956106901
960.0,-0.0013143856776878238
1024.0,-0.00406177481636405
1152.0,-0.00658541452139616
1280.0,-0.00944218598306179
1408.0,-0.01254379004240036
1536.0,-0.012419010512530804
1664.0,-0.01206000242382288
1792.0,-0.010380011983215809
1920.0,-0.007424292154610157
2048.0,-0.0077423034235835075
2304.0,-0.010297693312168121
2560.0,-0.007358388043940067
2816.0,-0.00795157253742218
3072.0,0.001539682038128376
3328.0,0.0032176936510950327
3584.0,0.007873264141380787
3840.0,0.009819439612329006
4096.0,0.011562040075659752
4608.0,0.005230818409472704
5120.0,-0.004529363010078669
5632.0,-0.008999047800898552
6144.0,-0.00891154445707798
6656.0,-0.008527218364179134
7168.0,-0.0015580921899527311
7680.0,0.002046573208644986
8192.0,-0.002542979083955288
end
