version,3.0
numOfCh,1
type,point
parent_name,19e3e_0dot1-1dot0
ch_type,1_1
kcount,1
numberNandB,1
brightnessNandB,1
carpet pos,0
pc,0
Time (ms),CH1 Auto-Correlation
1.0,0.04554302617907524
2.0,0.045058999210596085
3.0,0.04461415484547615
4.0,0.044166240841150284
5.0,0.04374075308442116
6.0,0.04333406314253807
7.0,0.04294002428650856
8.0,0.04253334552049637
9.0,0.042146530002355576
10.0,0.04176856577396393
11.0,0.04138985648751259
12.0,0.04102688655257225
13.0,0.0406876765191555
14.0,0.04033516347408295
15.0,0.03998519852757454
16.0,0.03963623568415642
18.0,0.03896088898181915
20.0,0.03832412138581276
22.0,0.03770541772246361
24.0,0.037107329815626144
26.0,0.03653247654438019
28.0,0.036014266312122345
30.0,0.03551047667860985
32.0,0.035011179745197296
36.0,0.03414372727274895
40.0,0.03337085619568825
44.0,0.03265391290187836
48.0,0.03201846033334732
52.0,0.031387414783239365
56.0,0.030751168727874756
60.0,0.0300501249730587
64.0,0.029391063377261162
72.0,0.0280364491045475
80.0,0.026901710778474808
88.0,0.026060931384563446
96.0,0.025252845138311386
104.0,0.02418670803308487
112.0,0.022982949391007423
120.0,0.02187575399875641
128.0,0.02091279625892639
144.0,0.019277486950159073
160.0,0.017828088253736496
176.0,0.01638869009912014
192.0,0.015100998803973198
208.0,0.013785580173134804
224.0,0.012763977982103825
240.0,0.011926266364753246
256.0,0.011226963251829147
288.0,0.010190274566411972
320.0,0.009459679014980793
352.0,0.007893855683505535
384.0,0.006084751337766647
416.0,0.004783330485224724
448.0,0.0035575157962739468
480.0,0.0022145239636301994
512.0,0.0018494303803890944
576.0,0.002046405803412199
640.0,0.003638223046436906
704.0,0.006149008870124817
768.0,0.0065878028981387615
832.0,0.0056718275882303715
896.0,0.003965346608310938
960.0,0.004131043329834938
1024.0,0.006193449255079031
1152.0,0.0073716901242733
1280.0,0.0048505999147892
1408.0,0.005724915768951178
1536.0,0.0006123337661847472
1664.0,-0.0009716791100800037
1792.0,0.002682760125026107
1920.0,0.001879278221167624
2048.0,0.0020651882514357567
2304.0,-0.0029676517006009817
2560.0,5.55860715394374e-05
2816.0,0.00360041088424623
3072.0,0.0028485364746302366
3328.0,0.0017294002464041114
3584.0,0.002530264900997281
3840.0,0.003961408045142889
4096.0,0.00017624523025006056
4608.0,-0.000770007201936096
5120.0,-0.0010189571185037494
5632.0,-0.005974528845399618
6144.0,-0.012740354984998703
6656.0,-0.006413036026060581
7168.0,-0.007701566442847252
7680.0,-0.006976657547056675
8192.0,-0.0030301082879304886
end
