version,3.0
numOfCh,1
type,point
parent_name,19e3e_0dot1-1dot0
ch_type,1_1
kcount,1
numberNandB,1
brightnessNandB,1
carpet pos,0
pc,0
Time (ms),CH1 Auto-Correlation
1.0,0.03375782072544098
2.0,0.03335144370794296
3.0,0.032972726970911026
4.0,0.03259948641061783
5.0,0.03222421184182167
6.0,0.03185129165649414
7.0,0.031498022377491
8.0,0.03114943392574787
9.0,0.030799901112914085
10.0,0.030446331948041916
11.0,0.03009880892932415
12.0,0.02976876311004162
13.0,0.029456060379743576
14.0,0.029148221015930176
15.0,0.02884693443775177
16.0,0.028552008792757988
18.0,0.0279963631182909
20.0,0.027467437088489532
22.0,0.026964280754327774
24.0,0.02647019736468792
26.0,0.02597685344517231
28.0,0.02549869939684868
30.0,0.025039715692400932
32.0,0.02457435242831707
36.0,0.023716576397418976
40.0,0.022945448756217957
44.0,0.022216619923710823
48.0,0.021528145298361778
52.0,0.02088741771876812
56.0,0.020250780507922173
60.0,0.01963827572762966
64.0,0.01909528486430645
72.0,0.018229668959975243
80.0,0.017359919846057892
88.0,0.01634136401116848
96.0,0.01527522411197424
104.0,0.014291333965957165
112.0,0.013598684221506119
120.0,0.01293837558478117
128.0,0.012327577918767929
144.0,0.011335463263094425
160.0,0.010704814456403255
176.0,0.010292215272784233
192.0,0.009605886414647102
208.0,0.008736645802855492
224.0,0.007778057362884283
240.0,0.0069275773130357265
256.0,0.006169216241687536
288.0,0.005284976679831743
320.0,0.004930506460368633
352.0,0.00463729677721858
384.0,0.003936043009161949
416.0,0.003244986291974783
448.0,0.002205756725743413
480.0,0.0016798627329990268
512.0,0.0010904166847467422
576.0,0.0010919360211119056
640.0,0.0008824200485832989
704.0,-0.00039632778498344123
768.0,0.00029050747980363667
832.0,-0.00012689812865573913
896.0,-0.00040167049155570567
960.0,-0.00033629455720074475
1024.0,-0.0008844452095218003
1152.0,-0.00029336943407543004
1280.0,0.0006571107660420239
1408.0,0.0011665604542940855
1536.0,0.0027792544569820166
1664.0,0.0019107508705928922
1792.0,0.0004662697028834373
1920.0,0.0006000529392622411
2048.0,-0.0003462556633166969
2304.0,0.0035106660798192024
2560.0,0.0019104506354779005
2816.0,0.0008350330754183233
3072.0,0.0020157850813120604
3328.0,0.0014984160661697388
3584.0,-0.0037185654509812593
3840.0,-0.005904930643737316
4096.0,-0.005793055985122919
4608.0,-0.005736391991376877
5120.0,0.0005031362525187433
5632.0,0.00252438778989017
6144.0,-0.005345241166651249
6656.0,-0.005809885449707508
7168.0,-0.0006666944827884436
7680.0,0.0012031421065330505
8192.0,0.002299678046256304
end
