version,3.0
numOfCh,1
type,point
parent_name,19e3e_0dot1-1dot0
ch_type,1_1
kcount,1
numberNandB,1
brightnessNandB,1
carpet pos,0
pc,0
Time (ms),CH1 Auto-Correlation
1.0,0.041208669543266296
2.0,0.040715571492910385
3.0,0.04026152566075325
4.0,0.03983767330646515
5.0,0.039446618407964706
6.0,0.03906053304672241
7.0,0.03868476673960686
8.0,0.038302529603242874
9.0,0.037941183894872665
10.0,0.03757968544960022
11.0,0.03723644092679024
12.0,0.0369134284555912
13.0,0.036595311015844345
14.0,0.036276258528232574
15.0,0.0359712690114975
16.0,0.035637013614177704
18.0,0.03502875939011574
20.0,0.03445062041282654
22.0,0.033847399055957794
24.0,0.03325871750712395
26.0,0.03268171101808548
28.0,0.03214627876877785
30.0,0.03162733465433121
32.0,0.031136076897382736
36.0,0.030289098620414734
40.0,0.02945837937295437
44.0,0.028584986925125122
48.0,0.027760863304138184
52.0,0.026928827166557312
56.0,0.026115840300917625
60.0,0.02537594549357891
64.0,0.024720029905438423
72.0,0.023688413202762604
80.0,0.02264462597668171
88.0,0.02154020592570305
96.0,0.020681306719779968
104.0,0.020020542666316032
112.0,0.01947108283638954
120.0,0.01908508501946926
128.0,0.01863688789308071
144.0,0.017659610137343407
160.0,0.016948100179433823
176.0,0.016308339312672615
192.0,0.01559162326157093
208.0,0.014812067151069641
224.0,0.014105280861258507
240.0,0.01372163649648428
256.0,0.013161687180399895
288.0,0.012579856440424919
320.0,0.011286718770861626
352.0,0.009715025313198566
384.0,0.009330865927040577
416.0,0.009419514797627926
448.0,0.010005421936511993
480.0,0.010456080548465252
512.0,0.010066255927085876
576.0,0.00996449962258339
640.0,0.009953346103429794
704.0,0.008462370373308659
768.0,0.00696494709700346
832.0,0.006599918939173222
896.0,0.005877314601093531
960.0,0.0058317771181464195
1024.0,0.005494724027812481
1152.0,0.006685648579150438
1280.0,0.005569482687860727
1408.0,0.0052997032180428505
1536.0,0.00666297459974885
1664.0,0.006731291301548481
1792.0,0.0068331812508404255
1920.0,0.0045667411759495735
2048.0,0.0045139724388718605
2304.0,0.007594934199005365
2560.0,0.004405589308589697
2816.0,0.004617567639797926
3072.0,0.003933747764676809
3328.0,0.005031235050410032
3584.0,0.004178083501756191
3840.0,0.0041385008953511715
4096.0,0.0027227792888879776
4608.0,-0.0016120508080348372
5120.0,-0.00016707689792383462
5632.0,-0.001018243725411594
6144.0,-0.001242179423570633
6656.0,7.644481956958771e-05
7168.0,-0.004063596483319998
7680.0,-0.005039365030825138
8192.0,-0.010191140696406364
end
