version,3.0
numOfCh,1
type,point
parent_name,19e3e_0dot1-1dot0
ch_type,1_1
kcount,1
numberNandB,1
brightnessNandB,1
carpet pos,0
pc,0
Time (ms),CH1 Auto-Correlation
1.0,0.037182774394750595
2.0,0.03666934370994568
3.0,0.03617614880204201
4.0,0.035723693668842316
5.0,0.03527851775288582
6.0,0.034851886332035065
7.0,0.03444717079401016
8.0,0.034055814146995544
9.0,0.03366570547223091
10.0,0.03326728194952011
11.0,0.03286629170179367
12.0,0.032485559582710266
13.0,0.03211687132716179
14.0,0.031755588948726654
15.0,0.03141099959611893
16.0,0.031061753630638123
18.0,0.03035413660109043
20.0,0.029644999653100967
22.0,0.028946205973625183
24.0,0.028293345123529434
26.0,0.02761845663189888
28.0,0.026962431147694588
30.0,0.026330091059207916
32.0,0.02572457306087017
36.0,0.024628963321447372
40.0,0.023531684651970863
44.0,0.022472968325018883
48.0,0.021490659564733505
52.0,0.020539268851280212
56.0,0.019657939672470093
60.0,0.018915371969342232
64.0,0.01819738931953907
72.0,0.016887672245502472
80.0,0.0158139169216156
88.0,0.014813845045864582
96.0,0.014123245142400265
104.0,0.01345793530344963
112.0,0.0128225302323699
120.0,0.012435154989361763
128.0,0.011891852132976055
144.0,0.010609636083245277
160.0,0.009287326596677303
176.0,0.008458052761852741
192.0,0.007979093119502068
208.0,0.007333478890359402
224.0,0.006971400231122971
240.0,0.0062522608786821365
256.0,0.0052316016517579556
288.0,0.003814923344179988
320.0,0.00294629018753767
352.0,0.002212804974988103
384.0,0.0024256131146103144
416.0,0.0026750736869871616
448.0,0.0021653235889971256
480.0,0.0010899293702095747
512.0,0.000809413380920887
576.0,-0.00037324486766010523
640.0,-0.0013366262428462505
704.0,-0.001801050384528935
768.0,-0.001136427978053689
832.0,-0.0015130667015910149
896.0,-0.002866565017029643
960.0,-0.003413204336538911
1024.0,-0.004106311127543449
1152.0,-0.002034461358562112
1280.0,-0.0007700304267928004
1408.0,-0.0008542147115804255
1536.0,-0.0018891816725954413
1664.0,-0.005872067529708147
1792.0,-0.0042763082310557365
1920.0,-0.0038510700687766075
2048.0,-0.005032029934227467
2304.0,-0.004054355900734663
2560.0,0.001638477318920195
2816.0,0.0058060092851519585
3072.0,0.008423932828009129
3328.0,0.003683723509311676
3584.0,0.002156029222533107
3840.0,-0.0011771616991609335
4096.0,-0.0010598043445497751
4608.0,-0.002863071858882904
5120.0,-0.00445135310292244
5632.0,0.002094823867082596
6144.0,0.0020856696646660566
6656.0,-0.0010167112341150641
7168.0,0.0020041719544678926
7680.0,-0.0012366564478725195
8192.0,-0.004194522742182016
end
