version,3.0
numOfCh,1
type,point
parent_name,19e3e_0dot1-1dot0
ch_type,1_1
kcount,1
numberNandB,1
brightnessNandB,1
carpet pos,0
pc,0
Time (ms),CH1 Auto-Correlation
1.0,0.046113159507513046
2.0,0.04560516029596329
3.0,0.04511325806379318
4.0,0.04469351842999458
5.0,0.04429979622364044
6.0,0.043907251209020615
7.0,0.04354305937886238
8.0,0.0432109534740448
9.0,0.042889393866062164
10.0,0.04257897660136223
11.0,0.04227212816476822
12.0,0.04196731746196747
13.0,0.0416608601808548
14.0,0.041351597756147385
15.0,0.041054293513298035
16.0,0.040789298713207245
18.0,0.04025988280773163
20.0,0.039748165756464005
22.0,0.0392453595995903
24.0,0.03871338069438934
26.0,0.03822280094027519
28.0,0.03777214512228966
30.0,0.03733297437429428
32.0,0.03691112622618675
36.0,0.036020271480083466
40.0,0.03509834408760071
44.0,0.03418722376227379
48.0,0.0334271639585495
52.0,0.032737527042627335
56.0,0.03204784914851189
60.0,0.03142910823225975
64.0,0.03079695999622345
72.0,0.029564352706074715
80.0,0.028401004150509834
88.0,0.027506504207849503
96.0,0.026847025379538536
104.0,0.026108745485544205
112.0,0.0253162682056427
120.0,0.0245271697640419
128.0,0.02381773851811886
144.0,0.022481150925159454
160.0,0.02091272920370102
176.0,0.019175421446561813
192.0,0.017367271706461906
208.0,0.015982018783688545
224.0,0.015127334743738174
240.0,0.014278504997491837
256.0,0.0129550127312541
288.0,0.0106978053227067
320.0,0.00845111533999443
352.0,0.00666880514472723
384.0,0.005115397274494171
416.0,0.0034484905190765858
448.0,0.0019554030150175095
480.0,0.0009186554816551507
512.0,0.0004477827751543373
576.0,0.0002591268566902727
640.0,0.0006567942909896374
704.0,0.0027657528407871723
768.0,0.003020145930349827
832.0,0.002676006406545639
896.0,0.0008744038641452789
960.0,0.0008279519970528781
1024.0,0.0010978173231706023
1152.0,0.0012132985284551978
1280.0,-0.00039409377495758235
1408.0,0.0008409860311076045
1536.0,0.0044656055979430676
1664.0,0.009066280908882618
1792.0,0.010090790688991547
1920.0,0.007739789318293333
2048.0,0.0034819641150534153
2304.0,-0.0012346555013209581
2560.0,-0.002237742766737938
2816.0,-0.00031223922269418836
3072.0,-0.0015555230202153325
3328.0,-0.0012893511448055506
3584.0,-0.00034192396560683846
3840.0,-0.006860480178147554
4096.0,-0.008482481352984905
4608.0,-0.010681173764169216
5120.0,-0.005990177392959595
5632.0,-0.010454789735376835
6144.0,-0.0029298036824911833
6656.0,-0.0029482527170330286
7168.0,-0.005087781231850386
7680.0,0.0008280809852294624
8192.0,0.006574416998773813
end
