version,3.0
numOfCh,1
type,point
parent_name,19e3e_0dot1-1dot0
ch_type,1_1
kcount,1
numberNandB,1
brightnessNandB,1
carpet pos,0
pc,0
Time (ms),CH1 Auto-Correlation
1.0,0.03579099476337433
2.0,0.03534410148859024
3.0,0.03491438552737236
4.0,0.03451366350054741
5.0,0.0341215506196022
6.0,0.033744633197784424
7.0,0.03338446095585823
8.0,0.0330309197306633
9.0,0.03267188370227814
10.0,0.03232301026582718
11.0,0.03197949379682541
12.0,0.03162703290581703
13.0,0.031273238360881805
14.0,0.030939992517232895
15.0,0.030610689893364906
16.0,0.030300065875053406
18.0,0.02968403697013855
20.0,0.029122576117515564
22.0,0.02856467105448246
24.0,0.028020070865750313
26.0,0.027475079521536827
28.0,0.026957856491208076
30.0,0.026478484272956848
32.0,0.02600332908332348
36.0,0.0250812117010355
40.0,0.024217847734689713
44.0,0.023460889235138893
48.0,0.02276347577571869
52.0,0.022066425532102585
56.0,0.021333053708076477
60.0,0.0206135343760252
64.0,0.019920039921998978
72.0,0.018702669069170952
80.0,0.01751638576388359
88.0,0.016532188281416893
96.0,0.01567649655044079
104.0,0.014979950152337551
112.0,0.014355252496898174
120.0,0.013818132691085339
128.0,0.013380439020693302
144.0,0.012691699899733067
160.0,0.012086452916264534
176.0,0.011657089926302433
192.0,0.011186538264155388
208.0,0.010868540033698082
224.0,0.010438387282192707
240.0,0.009835685603320599
256.0,0.009071508422493935
288.0,0.008118902333080769
320.0,0.007659102790057659
352.0,0.007899612188339233
384.0,0.007300947792828083
416.0,0.006557927001267672
448.0,0.005991482175886631
480.0,0.005508167203515768
512.0,0.0053873928263783455
576.0,0.0043287440203130245
640.0,0.003424908732995391
704.0,0.0033144785556942225
768.0,0.0028083166107535362
832.0,0.002687104744836688
896.0,0.0024898408446460962
960.0,0.002617097459733486
1024.0,0.004893985111266375
1152.0,0.0023515967186540365
1280.0,0.0003607937542255968
1408.0,7.84017174737528e-06
1536.0,0.0007765065529383719
1664.0,0.0007702229777351022
1792.0,0.0019182313699275255
1920.0,-7.03893747413531e-05
2048.0,0.0005508145550265908
2304.0,0.0023862889502197504
2560.0,0.0005953548243269324
2816.0,0.0006748155574314296
3072.0,-0.0025810308288782835
3328.0,-0.002361233113333583
3584.0,-0.0028001272585242987
3840.0,-0.005595303140580654
4096.0,-0.008572517894208431
4608.0,-0.006212754175066948
5120.0,-0.0020404672250151634
5632.0,-0.0032243477180600166
6144.0,-0.0009024133905768394
6656.0,-0.001412679674103856
7168.0,0.00035593859502114356
7680.0,0.00295426556840539
8192.0,0.00335681508295238
end
