version,3.0
numOfCh,1
type,point
parent_name,19e3e_0dot1-1dot0
ch_type,1_1
kcount,1
numberNandB,1
brightnessNandB,1
carpet pos,0
pc,0
Time (ms),CH1 Auto-Correlation
1.0,0.044877540320158005
2.0,0.04430032894015312
3.0,0.04379081726074219
4.0,0.04327480122447014
5.0,0.042815715074539185
6.0,0.04237962141633034
7.0,0.04195594787597656
8.0,0.04152970388531685
9.0,0.04115875065326691
10.0,0.04075513407588005
11.0,0.04037914425134659
12.0,0.03996733948588371
13.0,0.03956972807645798
14.0,0.039231933653354645
15.0,0.03886204957962036
16.0,0.038493648171424866
18.0,0.03775608539581299
20.0,0.03704284131526947
22.0,0.03632579371333122
24.0,0.03566685691475868
26.0,0.03502217307686806
28.0,0.03438097611069679
30.0,0.033804092556238174
32.0,0.03325599804520607
36.0,0.03219982981681824
40.0,0.031241891905665398
44.0,0.0303639005869627
48.0,0.029580390080809593
52.0,0.028874197974801064
56.0,0.02821478806436062
60.0,0.02748894691467285
64.0,0.026769272983074188
72.0,0.02551487646996975
80.0,0.02442626655101776
88.0,0.023410504683852196
96.0,0.022574407979846
104.0,0.021709799766540527
112.0,0.020836440846323967
120.0,0.020098885521292686
128.0,0.01950051262974739
144.0,0.01846054010093212
160.0,0.01759307086467743
176.0,0.016751045361161232
192.0,0.015555016696453094
208.0,0.014330913312733173
224.0,0.013164239935576916
240.0,0.012385306879878044
256.0,0.011564969085156918
288.0,0.010083387605845928
320.0,0.009125133976340294
352.0,0.008925620466470718
384.0,0.009017704986035824
416.0,0.00802177656441927
448.0,0.006698093377053738
480.0,0.006798854097723961
512.0,0.007108129560947418
576.0,0.0067313602194190025
640.0,0.004929982125759125
704.0,0.0031617209315299988
768.0,0.0009558608289808035
832.0,-0.002075844444334507
896.0,-0.004510987550020218
960.0,-0.0038174628280103207
1024.0,-0.0033302148804068565
1152.0,0.000305878376821056
1280.0,0.0006381609127856791
1408.0,-0.00021458804258145392
1536.0,-0.0031436604913324118
1664.0,-0.002765367738902569
1792.0,0.0003241549711674452
1920.0,0.0009263174724765122
2048.0,0.000441876269178465
2304.0,-0.004148981999605894
2560.0,-0.00773913087323308
2816.0,-0.006805244367569685
3072.0,-0.004087886307388544
3328.0,-0.002056197728961706
3584.0,-0.003912623971700668
3840.0,-0.006467936560511589
4096.0,-0.003348340280354023
4608.0,0.0007540661026723683
5120.0,0.007368345744907856
5632.0,0.00036615284625440836
6144.0,-0.004498331807553768
6656.0,-9.397132089361548e-05
7168.0,-0.0021198056638240814
7680.0,-0.00962901208549738
8192.0,-0.009889105334877968
end
