version,3.0
numOfCh,1
type,point
parent_name,19e3e_0dot1-1dot0
ch_type,1_1
kcount,1
numberNandB,1
brightnessNandB,1
carpet pos,0
pc,0
Time (ms),CH1 Auto-Correlation
1.0,0.041684046387672424
2.0,0.041244469583034515
3.0,0.040824782103300095
4.0,0.04043125733733177
5.0,0.04004106670618057
6.0,0.03965342789888382
7.0,0.039300087839365005
8.0,0.03896382078528404
9.0,0.03861479461193085
10.0,0.03828418254852295
11.0,0.037949200719594955
12.0,0.03761328384280205
13.0,0.03727755323052406
14.0,0.03695736825466156
15.0,0.036638252437114716
16.0,0.036328379064798355
18.0,0.03571631386876106
20.0,0.0351250134408474
22.0,0.03453672304749489
24.0,0.03397141396999359
26.0,0.033447638154029846
28.0,0.03293405473232269
30.0,0.032444894313812256
32.0,0.0320153534412384
36.0,0.031250935047864914
40.0,0.03045504167675972
44.0,0.029666336253285408
48.0,0.028838511556386948
52.0,0.028047310188412666
56.0,0.02729756012558937
60.0,0.026613570749759674
64.0,0.025951847434043884
72.0,0.024677824229002
80.0,0.023224759846925735
88.0,0.021906007081270218
96.0,0.02068646252155304
104.0,0.019549420103430748
112.0,0.018538279458880424
120.0,0.017706723883748055
128.0,0.016941390931606293
144.0,0.01568663865327835
160.0,0.014753361232578754
176.0,0.014055793173611164
192.0,0.013255883939564228
208.0,0.012529167346656322
224.0,0.011817297898232937
240.0,0.011299830861389637
256.0,0.010989333502948284
288.0,0.01015218161046505
320.0,0.009194595739245415
352.0,0.008427937515079975
384.0,0.008150864392518997
416.0,0.007854468189179897
448.0,0.008016078732907772
480.0,0.0072637759149074554
512.0,0.006338713224977255
576.0,0.004026478622108698
640.0,0.00431672390550375
704.0,0.004052814096212387
768.0,0.0036001817788928747
832.0,0.0030509796924889088
896.0,0.003254662500694394
960.0,0.003401846392080188
1024.0,0.002062222920358181
1152.0,0.0016235559014603496
1280.0,0.00021810423640999943
1408.0,-0.0042844293639063835
1536.0,-0.003655668580904603
1664.0,-0.0027821625117212534
1792.0,-0.0028140342328697443
1920.0,-0.002135548973456025
2048.0,-0.0017934305360540748
2304.0,-0.0018454428063705564
2560.0,0.0006365421577356756
2816.0,-0.0010923263616859913
3072.0,-0.0004702299484051764
3328.0,-0.0007744829636067152
3584.0,-0.003676449880003929
3840.0,-0.0064149945974349976
4096.0,-0.004938224330544472
4608.0,-0.006764852441847324
5120.0,-0.003601368982344866
5632.0,0.006899501197040081
6144.0,0.009806374087929726
6656.0,0.004834211431443691
7168.0,0.0017097670352086425
7680.0,-0.002486204029992223
8192.0,0.00012163107749074697
end
