version,3.0
numOfCh,1
type,point
parent_name,19e3e_0dot1-1dot0
ch_type,1_1
kcount,1
numberNandB,1
brightnessNandB,1
carpet pos,0
pc,0
Time (ms),CH1 Auto-Correlation
1.0,0.03982919827103615
2.0,0.039389465004205704
3.0,0.03898061439394951
4.0,0.03858008235692978
5.0,0.038198165595531464
6.0,0.03782147541642189
7.0,0.03745178505778313
8.0,0.037106335163116455
9.0,0.0367642380297184
10.0,0.03644685074687004
11.0,0.036131273955106735
12.0,0.035821333527565
13.0,0.035533446818590164
14.0,0.03524060547351837
15.0,0.03495877608656883
16.0,0.034690599888563156
18.0,0.03420098498463631
20.0,0.03371308743953705
22.0,0.033212460577487946
24.0,0.03270973265171051
26.0,0.03220120072364807
28.0,0.031687937676906586
30.0,0.031185898929834366
32.0,0.030721955001354218
36.0,0.02982848323881626
40.0,0.02895173244178295
44.0,0.02813860960304737
48.0,0.027419324964284897
52.0,0.026769442483782768
56.0,0.026096349582076073
60.0,0.02540217712521553
64.0,0.024732554331421852
72.0,0.023588700219988823
80.0,0.022671202197670937
88.0,0.02195029705762863
96.0,0.02122453786432743
104.0,0.020528705790638924
112.0,0.01987033151090145
120.0,0.01932445913553238
128.0,0.01873929798603058
144.0,0.017612092196941376
160.0,0.016628513112664223
176.0,0.015623241662979126
192.0,0.014930636622011662
208.0,0.014546839520335197
224.0,0.01430028397589922
240.0,0.014337930828332901
256.0,0.014282548800110817
288.0,0.013133427128195763
320.0,0.01245166640728712
352.0,0.011223592795431614
384.0,0.01099362876266241
416.0,0.010973570868372917
448.0,0.009968812577426434
480.0,0.009219643659889698
512.0,0.00924683641642332
576.0,0.010470149107277393
640.0,0.010421065613627434
704.0,0.008547589182853699
768.0,0.006584872491657734
832.0,0.005318198353052139
896.0,0.004919662605971098
960.0,0.00477026728913188
1024.0,0.005923390854150057
1152.0,0.00535751786082983
1280.0,0.00576876662671566
1408.0,0.0041502900421619415
1536.0,0.002698678756132722
1664.0,0.0033438114915043116
1792.0,0.0011085589649155736
1920.0,0.0019011100521311164
2048.0,0.0004902126383967698
2304.0,-0.000877746322657913
2560.0,-0.0018105184426531196
2816.0,-0.0005682548508048058
3072.0,-0.0017768845427781343
3328.0,-0.0015487885102629662
3584.0,-0.002016572281718254
3840.0,-0.005445756018161774
4096.0,-0.002744487952440977
4608.0,-0.0013904129154980183
5120.0,-0.00541704660281539
5632.0,-0.0013884860090911388
6144.0,0.0024890818167477846
6656.0,0.0012333127669990063
7168.0,0.006141054444015026
7680.0,0.00610183784738183
8192.0,-0.0007218662649393082
end
