version,3.0
numOfCh,1
type,point
parent_name,19e3e_0dot1-1dot0
ch_type,1_1
kcount,1
numberNandB,1
brightnessNandB,1
carpet pos,0
pc,0
Time (ms),CH1 Auto-Correlation
1.0,0.04012373462319374
2.0,0.03972826898097992
3.0,0.039354290813207626
4.0,0.03899037837982178
5.0,0.0386364720761776
6.0,0.038287997245788574
7.0,0.03794752433896065
8.0,0.037606481462717056
9.0,0.037254393100738525
10.0,0.03691171109676361
11.0,0.03657744079828262
12.0,0.0362476110458374
13.0,0.035942114889621735
14.0,0.03563351556658745
15.0,0.03532944247126579
16.0,0.03502009063959122
18.0,0.03446359559893608
20.0,0.0339273139834404
22.0,0.03340676426887512
24.0,0.0328981876373291
26.0,0.03242743760347366
28.0,0.031979482620954514
30.0,0.0315246544778347
32.0,0.031080426648259163
36.0,0.030137548223137856
40.0,0.02922111004590988
44.0,0.028403304517269135
48.0,0.02765057049691677
52.0,0.026916202157735825
56.0,0.026185015216469765
60.0,0.025490012019872665
64.0,0.024787530303001404
72.0,0.023670963943004608
80.0,0.022687667980790138
88.0,0.02180378884077072
96.0,0.02109644189476967
104.0,0.02033325284719467
112.0,0.019591834396123886
120.0,0.01909741200506687
128.0,0.01873134821653366
144.0,0.018058480694890022
160.0,0.017453880980610847
176.0,0.016560574993491173
192.0,0.015723155811429024
208.0,0.015109460800886154
224.0,0.01445804163813591
240.0,0.013953214511275291
256.0,0.013407747261226177
288.0,0.013036024756729603
320.0,0.012165898457169533
352.0,0.012023919261991978
384.0,0.011728082783520222
416.0,0.010722470469772816
448.0,0.010759420692920685
480.0,0.010557033121585846
512.0,0.01045056153088808
576.0,0.00998157262802124
640.0,0.009982699528336525
704.0,0.008130607195198536
768.0,0.007791630458086729
832.0,0.006849945988506079
896.0,0.006571510806679726
960.0,0.0067740073427557945
1024.0,0.007893791422247887
1152.0,0.005488399416208267
1280.0,0.0035405640956014395
1408.0,0.0026155763771384954
1536.0,0.0037219624500721693
1664.0,0.00314038572832942
1792.0,0.0005375592736527324
1920.0,-0.002225982490926981
2048.0,-0.004171454347670078
2304.0,-0.0038833064027130604
2560.0,-0.003279953496530652
2816.0,-0.004316579084843397
3072.0,-0.0033399786334484816
3328.0,-0.003165940288454294
3584.0,-0.0043629240244627
3840.0,-0.003988013137131929
4096.0,-0.004255432635545731
4608.0,-0.003362608840689063
5120.0,-0.005497537553310394
5632.0,-0.0002781100629363209
6144.0,0.005823812913149595
6656.0,0.0025487926322966814
7168.0,0.0046117305755615234
7680.0,0.006450894754379988
8192.0,0.0017668018117547035
end
