version,3.0
numOfCh,1
type,point
parent_name,19e3e_0dot1-1dot0
ch_type,1_1
kcount,1
numberNandB,1
brightnessNandB,1
carpet pos,0
pc,0
Time (ms),CH1 Auto-Correlation
1.0,0.03826465457677841
2.0,0.037815045565366745
3.0,0.03740030154585838
4.0,0.03699544444680214
5.0,0.03661246970295906
6.0,0.036241237074136734
7.0,0.03586876392364502
8.0,0.03550679609179497
9.0,0.03516079857945442
10.0,0.03481221944093704
11.0,0.034473717212677
12.0,0.034135766327381134
13.0,0.03379771113395691
14.0,0.03346483036875725
15.0,0.033133309334516525
16.0,0.03280455246567726
18.0,0.03216511011123657
20.0,0.03151123225688934
22.0,0.030895713716745377
24.0,0.030290113762021065
26.0,0.02967834286391735
28.0,0.029073446989059448
30.0,0.028467847034335136
32.0,0.027879072353243828
36.0,0.0267664585262537
40.0,0.02570287324488163
44.0,0.024704549461603165
48.0,0.02379930019378662
52.0,0.022976426407694817
56.0,0.02214622311294079
60.0,0.02139594964683056
64.0,0.020712336525321007
72.0,0.01925046369433403
80.0,0.017879141494631767
88.0,0.01679135486483574
96.0,0.015968436375260353
104.0,0.01525173895061016
112.0,0.014730150811374187
120.0,0.014269433915615082
128.0,0.013704230077564716
144.0,0.012788520194590092
160.0,0.011888714507222176
176.0,0.011108818463981152
192.0,0.01015537604689598
208.0,0.009032761678099632
224.0,0.007854053750634193
240.0,0.006716476287692785
256.0,0.005924028344452381
288.0,0.005563277751207352
320.0,0.004852874204516411
352.0,0.0029757313895970583
384.0,0.0015965662896633148
416.0,0.0006467398488894105
448.0,-0.0004983472172170877
480.0,-0.00231956853531301
512.0,-0.0032469616271555424
576.0,-0.003010351210832596
640.0,-0.003838163334876299
704.0,-0.002899882849305868
768.0,-0.0012409421615302563
832.0,0.0001600251125637442
896.0,0.0004939899081364274
960.0,-0.000816437357570976
1024.0,-8.613213867647573e-05
1152.0,0.0015414938097819686
1280.0,-0.001648144330829382
1408.0,-0.0037724666763097048
1536.0,-0.0018283111276105046
1664.0,0.0008430248126387596
1792.0,0.002727912273257971
1920.0,0.0013015561271458864
2048.0,0.0019409656524658203
2304.0,-0.0030318123754113913
2560.0,-0.002037901198491454
2816.0,9.204087837133557e-05
3072.0,-0.0029722859617322683
3328.0,-0.0013749843928962946
3584.0,0.002349492162466049
3840.0,-0.0019157094648107886
4096.0,-0.0038165710866451263
4608.0,0.0028704304713755846
5120.0,0.003205073531717062
5632.0,0.0008729184628464282
6144.0,-0.006609765812754631
6656.0,-0.004050060175359249
7168.0,9.746748401084915e-05
7680.0,-0.005857203621417284
8192.0,0.0045815748162567616
end
