version,3.0
numOfCh,1
type,point
parent_name,19e3e_0dot1-1dot0
ch_type,1_1
kcount,1
numberNandB,1
brightnessNandB,1
carpet pos,0
pc,0
Time (ms),CH1 Auto-Correlation
1.0,0.038602180778980255
2.0,0.03810841590166092
3.0,0.03765849024057388
4.0,0.03725045546889305
5.0,0.03687184303998947
6.0,0.03650209307670593
7.0,0.03615184500813484
8.0,0.035810358822345734
9.0,0.03547406196594238
10.0,0.03515005484223366
11.0,0.03481943905353546
12.0,0.034511495381593704
13.0,0.03422533720731735
14.0,0.03394800052046776
15.0,0.03367234766483307
16.0,0.03339230641722679
18.0,0.032866470515728
20.0,0.032379575073719025
22.0,0.031884755939245224
24.0,0.03140588104724884
26.0,0.030936315655708313
28.0,0.030485130846500397
30.0,0.030037151649594307
32.0,0.02958734519779682
36.0,0.028733206912875175
40.0,0.02791573666036129
44.0,0.02714017778635025
48.0,0.026414353400468826
52.0,0.02568177320063114
56.0,0.02496534027159214
60.0,0.024282436817884445
64.0,0.02359931543469429
72.0,0.022255007177591324
80.0,0.020893873646855354
88.0,0.019630668684840202
96.0,0.018368277698755264
104.0,0.017041955143213272
112.0,0.015659932047128677
120.0,0.014370809309184551
128.0,0.01317176315933466
144.0,0.011147706769406796
160.0,0.009438310749828815
176.0,0.00765622965991497
192.0,0.006207538302987814
208.0,0.005349842365831137
224.0,0.0045982892625033855
240.0,0.00398645643144846
256.0,0.0035147329326719046
288.0,0.00290859816595912
320.0,0.002580061322078109
352.0,0.002037291880697012
384.0,0.002162707271054387
416.0,0.002328634262084961
448.0,0.0027036676183342934
480.0,0.0032583139836788177
512.0,0.0030345648992806673
576.0,0.0026407805271446705
640.0,0.0032586504239588976
704.0,0.0050782375037670135
768.0,0.005986325908452272
832.0,0.004665471147745848
896.0,0.003137890947982669
960.0,0.00043106687371619046
1024.0,-0.0016881986521184444
1152.0,-0.0015187248354777694
1280.0,0.00040760214324109256
1408.0,0.0035714018158614635
1536.0,0.003832221031188965
1664.0,-0.0013282347936183214
1792.0,-0.0038450374267995358
1920.0,-0.0016534460010007024
2048.0,0.0005437154322862625
2304.0,-0.00016558650531806052
2560.0,-0.0018890735227614641
2816.0,-0.001583100762218237
3072.0,-0.004102932754904032
3328.0,-0.008510902523994446
3584.0,-0.0008319141925312579
3840.0,-0.003023276338353753
4096.0,0.0021153760608285666
4608.0,0.0005316928727552295
5120.0,0.0018920933362096548
5632.0,-0.0014997129328548908
6144.0,-0.0001278994750464335
6656.0,6.729128654114902e-05
7168.0,-0.002511207014322281
7680.0,-0.0018294844776391983
8192.0,-3.072597974096425e-05
end
