version,3.0
numOfCh,1
type,point
parent_name,19e3e_0dot1-1dot0
ch_type,1_1
kcount,1
numberNandB,1
brightnessNandB,1
carpet pos,0
pc,0
Time (ms),CH1 Auto-Correlation
1.0,0.04977318271994591
2.0,0.049327004700899124
3.0,0.048901211470365524
4.0,0.048515208065509796
5.0,0.04813371226191521
6.0,0.047756969928741455
7.0,0.04738105088472366
8.0,0.04702174663543701
9.0,0.04666406288743019
10.0,0.046310264617204666
11.0,0.04597114771604538
12.0,0.04563628509640694
13.0,0.045304860919713974
14.0,0.04497438296675682
15.0,0.044655222445726395
16.0,0.044342219829559326
18.0,0.04375331476330757
20.0,0.04318319633603096
22.0,0.04260966181755066
24.0,0.042042847722768784
26.0,0.04151696339249611
28.0,0.040988579392433167
30.0,0.04046033322811127
32.0,0.03994332253932953
36.0,0.038965288549661636
40.0,0.03805616497993469
44.0,0.03716549277305603
48.0,0.0363253690302372
52.0,0.035594113171100616
56.0,0.034864380955696106
60.0,0.034144945442676544
64.0,0.03347368538379669
72.0,0.03228186443448067
80.0,0.031260691583156586
88.0,0.03032447025179863
96.0,0.029228009283542633
104.0,0.028197331354022026
112.0,0.027201954275369644
120.0,0.02618192695081234
128.0,0.025108421221375465
144.0,0.02338208630681038
160.0,0.021712059155106544
176.0,0.020739004015922546
192.0,0.019992031157016754
208.0,0.01933186501264572
224.0,0.0184884462505579
240.0,0.017650773748755455
256.0,0.017067400738596916
288.0,0.017223097383975983
320.0,0.01710115559399128
352.0,0.01653808169066906
384.0,0.015816887840628624
416.0,0.014891083352267742
448.0,0.013085284270346165
480.0,0.010892747901380062
512.0,0.008652539923787117
576.0,0.0049973358400166035
640.0,0.002839820459485054
704.0,0.0013547401176765561
768.0,0.0019833077676594257
832.0,0.002101159654557705
896.0,0.0010566519340500236
960.0,0.001417161780409515
1024.0,0.0022597545757889748
1152.0,0.000567467010114342
1280.0,-0.00032331806141883135
1408.0,0.00015770674508530647
1536.0,-0.004248190671205521
1664.0,-0.008146875537931919
1792.0,-0.005345519632101059
1920.0,-0.005203255917876959
2048.0,-0.00728741055354476
2304.0,-0.004808439873158932
2560.0,-0.004815451335161924
2816.0,-0.006583484821021557
3072.0,-0.010216775350272655
3328.0,-0.01147623360157013
3584.0,-0.012113489210605621
3840.0,-0.006710491143167019
4096.0,-0.0056370035745203495
4608.0,-0.0032301105093210936
5120.0,0.0048074871301651
5632.0,0.008776930160820484
6144.0,0.0020403924863785505
6656.0,0.003832360729575157
7168.0,-0.006130824331194162
7680.0,-0.002310538664460182
8192.0,0.0026242139283567667
end
