version,3.0
numOfCh,1
type,point
parent_name,c1204_0dot2-0dot1
ch_type,1_1
kcount,1
numberNandB,1
brightnessNandB,1
carpet pos,0
pc,0
Time (ms),CH1 Auto-Correlation
1.0,0.06708957254886627
2.0,0.065712571144104
3.0,0.06437794864177704
4.0,0.06310265511274338
5.0,0.06188938394188881
6.0,0.06072608008980751
7.0,0.05962483584880829
8.0,0.05858993157744408
9.0,0.057590361684560776
10.0,0.056613728404045105
11.0,0.05566458776593208
12.0,0.05471763387322426
13.0,0.053848251700401306
14.0,0.053038448095321655
15.0,0.05225566774606705
16.0,0.051523588597774506
18.0,0.05004306510090828
20.0,0.04860463738441467
22.0,0.04729163274168968
24.0,0.04608282074332237
26.0,0.04496409371495247
28.0,0.043905630707740784
30.0,0.04282348230481148
32.0,0.04184156656265259
36.0,0.03998474404215813
40.0,0.038295283913612366
44.0,0.03680429980158806
48.0,0.035492707043886185
52.0,0.03441976010799408
56.0,0.03319893777370453
60.0,0.031812701374292374
64.0,0.030534017831087112
72.0,0.028532687574625015
80.0,0.026627149432897568
88.0,0.02426541969180107
96.0,0.022093161940574646
104.0,0.019968997687101364
112.0,0.018608370795845985
120.0,0.017748365178704262
128.0,0.017267102375626564
144.0,0.017175830900669098
160.0,0.017565850168466568
176.0,0.017126983031630516
192.0,0.01730963960289955
208.0,0.016429301351308823
224.0,0.014917739666998386
240.0,0.014658845961093903
256.0,0.014649010263383389
288.0,0.011912466026842594
320.0,0.011044605635106564
352.0,0.009875708259642124
384.0,0.007975363172590733
416.0,0.007094417233020067
448.0,0.006098173093050718
480.0,0.00532165914773941
512.0,0.004087615292519331
576.0,0.0050938548520207405
640.0,0.006308365613222122
704.0,0.001908475998789072
768.0,0.001930883969180286
832.0,-4.325956979300827e-05
896.0,-0.000971409841440618
960.0,0.003360328497365117
1024.0,0.004414539784193039
1152.0,0.0007497851038351655
1280.0,-0.002644553780555725
1408.0,-0.00709275808185339
1536.0,-0.0068679992109537125
1664.0,-0.005096321925520897
1792.0,-0.003676601219922304
1920.0,-0.001498343306593597
2048.0,-0.0008956301608122885
2304.0,-0.0027023793663829565
2560.0,-0.0009912430541589856
2816.0,0.0018350714817643166
3072.0,0.00011713887943187729
3328.0,-0.007736682891845703
3584.0,-0.006447583436965942
3840.0,-0.006657533813267946
4096.0,-0.00448974221944809
4608.0,-0.004069407004863024
5120.0,0.0025148966815322638
5632.0,0.004943167325109243
6144.0,0.0020847192499786615
6656.0,5.077958121546544e-05
7168.0,0.0003704080590978265
7680.0,-0.00011728304525604472
8192.0,0.0008690790273249149
end
