version,3.0
numOfCh,1
type,point
parent_name,c1204_0dot2-0dot1
ch_type,1_1
kcount,1
numberNandB,1
brightnessNandB,1
carpet pos,0
pc,0
Time (ms),CH1 Auto-Correlation
1.0,0.0581526905298233
2.0,0.05693570524454117
3.0,0.055759623646736145
4.0,0.05461335927248001
5.0,0.053486425429582596
6.0,0.05238044261932373
7.0,0.05133053660392761
8.0,0.05033016577363014
9.0,0.04936710372567177
10.0,0.04841205105185509
11.0,0.04747118800878525
12.0,0.04656227305531502
13.0,0.04569314420223236
14.0,0.044834334403276443
15.0,0.04399510845541954
16.0,0.04316675662994385
18.0,0.04162789136171341
20.0,0.04012366011738777
22.0,0.038631144911050797
24.0,0.03715140372514725
26.0,0.03567928820848465
28.0,0.03425256162881851
30.0,0.03294681757688522
32.0,0.031742777675390244
36.0,0.029485512524843216
40.0,0.02750292420387268
44.0,0.0259088221937418
48.0,0.0243588425219059
52.0,0.02300707809627056
56.0,0.02176900953054428
60.0,0.020606720820069313
64.0,0.01971862092614174
72.0,0.018666764721274376
80.0,0.01799674890935421
88.0,0.01712370291352272
96.0,0.015861719846725464
104.0,0.01440079789608717
112.0,0.012940872460603714
120.0,0.011715181171894073
128.0,0.010360975749790668
144.0,0.008152578957378864
160.0,0.006549101322889328
176.0,0.005894532427191734
192.0,0.0059440224431455135
208.0,0.006244070362299681
224.0,0.005508449859917164
240.0,0.00400564493611455
256.0,0.002504771575331688
288.0,0.00034460812457837164
320.0,-0.0015340081881731749
352.0,-0.002981768222525716
384.0,-0.003868542844429612
416.0,-0.002833243692293763
448.0,-0.00044811045518144965
480.0,0.002252123085781932
512.0,0.0037487514782696962
576.0,0.004956703633069992
640.0,0.0020019959192723036
704.0,-0.0009042180026881397
768.0,-0.0016049393452703953
832.0,-0.0009405461023561656
896.0,0.001629573991522193
960.0,0.005580393131822348
1024.0,0.0036691336426883936
1152.0,0.004238871857523918
1280.0,0.004983953665941954
1408.0,0.0027908498886972666
1536.0,0.004273002035915852
1664.0,0.001898484188131988
1792.0,0.00552214402705431
1920.0,0.0023568228352814913
2048.0,0.0014510517939925194
2304.0,0.002369857393205166
2560.0,0.003707887139171362
2816.0,-0.000374592375010252
3072.0,0.0015557906590402126
3328.0,8.943922148318961e-05
3584.0,0.0019376120762899518
3840.0,-0.0010256210807710886
4096.0,0.0034576028119772673
4608.0,-0.006445713806897402
5120.0,-0.003873262321576476
5632.0,0.002333566779270768
6144.0,-0.007611169945448637
6656.0,-0.0017022668616846204
7168.0,-0.0019211089238524437
7680.0,-0.005448199342936277
8192.0,-0.0017350695561617613
end
