version,3.0
numOfCh,1
type,point
parent_name,c1204_0dot2-0dot1
ch_type,1_1
kcount,1
numberNandB,1
brightnessNandB,1
carpet pos,0
pc,0
Time (ms),CH1 Auto-Correlation
1.0,0.07105652987957001
2.0,0.06959398090839386
3.0,0.06818108260631561
4.0,0.06680205464363098
5.0,0.06547196209430695
6.0,0.06419307738542557
7.0,0.06303826719522476
8.0,0.061925970017910004
9.0,0.060840487480163574
10.0,0.0597514770925045
11.0,0.05871591717004776
12.0,0.05768097937107086
13.0,0.05662601813673973
14.0,0.05557219311594963
15.0,0.05454195663332939
16.0,0.05359173193573952
18.0,0.051762986928224564
20.0,0.05010725185275078
22.0,0.048581138253211975
24.0,0.04709423705935478
26.0,0.04557238146662712
28.0,0.044021256268024445
30.0,0.0425550602376461
32.0,0.04121970385313034
36.0,0.03881380334496498
40.0,0.036648739129304886
44.0,0.0346856489777565
48.0,0.03287620097398758
52.0,0.03132198378443718
56.0,0.029902607202529907
60.0,0.028699779883027077
64.0,0.027686087414622307
72.0,0.025868156924843788
80.0,0.024185651913285255
88.0,0.022711819037795067
96.0,0.02138667367398739
104.0,0.020015817135572433
112.0,0.01862563006579876
120.0,0.01697012223303318
128.0,0.015271704643964767
144.0,0.012560575269162655
160.0,0.010480468161404133
176.0,0.010058402083814144
192.0,0.009923967532813549
208.0,0.009784025140106678
224.0,0.00900251790881157
240.0,0.00858545396476984
256.0,0.008121969178318977
288.0,0.008628378622233868
320.0,0.007039704360067844
352.0,0.006237673107534647
384.0,0.0073995934799313545
416.0,0.005305624566972256
448.0,0.0041338601149618626
480.0,0.0035775911528617144
512.0,0.003482566447928548
576.0,0.000950673536863178
640.0,0.0010832848493009806
704.0,-0.00047499657375738025
768.0,-0.0034905343782156706
832.0,0.0005604228936135769
896.0,0.0020641523879021406
960.0,-0.0007487935945391655
1024.0,-0.006380592472851276
1152.0,-0.005299333017319441
1280.0,-0.005727686919271946
1408.0,-0.006685884203761816
1536.0,-0.009600193239748478
1664.0,-0.007210046052932739
1792.0,-0.001956858905032277
1920.0,0.0017760626506060362
2048.0,0.004422027617692947
2304.0,0.004391833674162626
2560.0,0.0016116849146783352
2816.0,-0.0030636186711490154
3072.0,-0.007897967472672462
3328.0,-0.008336111903190613
3584.0,-0.006937793921679258
3840.0,-0.0020014105830341578
4096.0,-0.0006684781983494759
4608.0,0.004945569671690464
5120.0,0.004232813138514757
5632.0,-0.0056919255293905735
6144.0,-0.004269496072083712
6656.0,0.0015327213332057
7168.0,-0.0019529784331098199
7680.0,-0.013222130946815014
8192.0,-0.004934201017022133
end
