version,3.0
numOfCh,1
type,point
parent_name,c1204_0dot2-0dot1
ch_type,1_1
kcount,1
numberNandB,1
brightnessNandB,1
carpet pos,0
pc,0
Time (ms),CH1 Auto-Correlation
1.0,0.05945707485079765
2.0,0.058206990361213684
3.0,0.05700667202472687
4.0,0.055865708738565445
5.0,0.05477403476834297
6.0,0.05377151817083359
7.0,0.052793584764003754
8.0,0.05187024921178818
9.0,0.050975169986486435
10.0,0.05006695166230202
11.0,0.04916857182979584
12.0,0.048293713480234146
13.0,0.047442469745874405
14.0,0.04662282019853592
15.0,0.04585171118378639
16.0,0.04511149600148201
18.0,0.04377564415335655
20.0,0.04253211244940758
22.0,0.04138806834816933
24.0,0.0402330718934536
26.0,0.03909439966082573
28.0,0.037955041974782944
30.0,0.03683372586965561
32.0,0.03574137017130852
36.0,0.033487528562545776
40.0,0.031448736786842346
44.0,0.029469316825270653
48.0,0.02751651406288147
52.0,0.02568133734166622
56.0,0.0241334680467844
60.0,0.022982314229011536
64.0,0.022094573825597763
72.0,0.020567068830132484
80.0,0.01942117139697075
88.0,0.018709847703576088
96.0,0.018437230959534645
104.0,0.017832951620221138
112.0,0.017353452742099762
120.0,0.01641286537051201
128.0,0.015216690488159657
144.0,0.01282814983278513
160.0,0.011294244788587093
176.0,0.00978697370737791
192.0,0.00873740017414093
208.0,0.009064077399671078
224.0,0.00899547804147005
240.0,0.008761744014918804
256.0,0.008668621070683002
288.0,0.009897409938275814
320.0,0.010997907258570194
352.0,0.010592463426291943
384.0,0.00891141314059496
416.0,0.006584418937563896
448.0,0.006833743304014206
480.0,0.006255305837839842
512.0,0.0046449447982013226
576.0,0.0006877666455693543
640.0,-0.0002248949749628082
704.0,-0.0016448230016976595
768.0,0.002031582174822688
832.0,0.00010821014438988641
896.0,-0.0013831652468070388
960.0,-0.007548787165433168
1024.0,-0.008467205800116062
1152.0,-0.003929631318897009
1280.0,-0.006514902226626873
1408.0,-0.010658161714673042
1536.0,-0.009160996414721012
1664.0,-0.007199493702501059
1792.0,-0.0070153395645320415
1920.0,-0.004022656008601189
2048.0,0.0018465585308149457
2304.0,-0.0034343788865953684
2560.0,-0.0002652780676726252
2816.0,-0.0015839410480111837
3072.0,-0.0010559962829574943
3328.0,0.005304765421897173
3584.0,0.0022246555890887976
3840.0,0.004505504388362169
4096.0,0.0006229884456843138
4608.0,-0.010103369131684303
5120.0,-0.009370365180075169
5632.0,0.004912316333502531
6144.0,0.011241584084928036
6656.0,0.00339888664893806
7168.0,-1.2829736078856513e-05
7680.0,0.002310843439772725
8192.0,-0.0035714111290872097
end
