version,3.0
numOfCh,1
type,point
parent_name,c1204_0dot2-0dot1
ch_type,1_1
kcount,1
numberNandB,1
brightnessNandB,1
carpet pos,0
pc,0
Time (ms),CH1 Auto-Correlation
1.0,0.05526551604270935
2.0,0.05403268709778786
3.0,0.05286632478237152
4.0,0.05171355605125427
5.0,0.050683438777923584
6.0,0.04967264458537102
7.0,0.04869995638728142
8.0,0.04774470999836922
9.0,0.046848416328430176
10.0,0.04598743095993996
11.0,0.045153260231018066
12.0,0.044331714510917664
13.0,0.04353351891040802
14.0,0.04275636002421379
15.0,0.04200811684131622
16.0,0.04122119024395943
18.0,0.039734888821840286
20.0,0.03831939399242401
22.0,0.036984849721193314
24.0,0.035658810287714005
26.0,0.034498170018196106
28.0,0.03343354910612106
30.0,0.03242267668247223
32.0,0.03155343234539032
36.0,0.030081750825047493
40.0,0.028599601238965988
44.0,0.027151057496666908
48.0,0.025916896760463715
52.0,0.02494550310075283
56.0,0.024147922173142433
60.0,0.023419346660375595
64.0,0.022791888564825058
72.0,0.021523533388972282
80.0,0.02036806382238865
88.0,0.01961231790482998
96.0,0.01892998442053795
104.0,0.018207823857665062
112.0,0.017704827710986137
120.0,0.017393117770552635
128.0,0.017166128382086754
144.0,0.015970034524798393
160.0,0.014915784820914268
176.0,0.014173472300171852
192.0,0.013212250545620918
208.0,0.01194161456078291
224.0,0.011119714006781578
240.0,0.011106491088867188
256.0,0.010874463245272636
288.0,0.008448158390820026
320.0,0.008549764752388
352.0,0.007129609119147062
384.0,0.004461293108761311
416.0,0.0011005059350281954
448.0,-0.0012088947696611285
480.0,-0.0019674720242619514
512.0,-0.00286164996214211
576.0,-0.0035431913565844297
640.0,-0.004684107843786478
704.0,-0.0046285176649689674
768.0,-0.003005814040079713
832.0,-0.005868406966328621
896.0,-0.0031239071395248175
960.0,-0.0030642494093626738
1024.0,-0.001785215805284679
1152.0,0.00042326224502176046
1280.0,0.005399351008236408
1408.0,0.006931637413799763
1536.0,0.006789598148316145
1664.0,0.0048852828331291676
1792.0,0.0018300408264622092
1920.0,0.0012045836774632335
2048.0,-0.003969048149883747
2304.0,-0.00035985783324576914
2560.0,0.002100907964631915
2816.0,0.004769148770719767
3072.0,0.0020726018119603395
3328.0,0.00042817796929739416
3584.0,-0.005739251151680946
3840.0,-0.008453495800495148
4096.0,-0.004622242413461208
4608.0,0.00017412149463780224
5120.0,-0.0011340925702825189
5632.0,0.0015318307559937239
6144.0,-0.009234569035470486
6656.0,-0.000671607325784862
7168.0,0.0005139796994626522
7680.0,-0.012447240762412548
8192.0,0.0036695885937660933
end
