version,3.0
numOfCh,1
type,point
parent_name,c1204_0dot2-0dot1
ch_type,1_1
kcount,1
numberNandB,1
brightnessNandB,1
carpet pos,0
pc,0
Time (ms),CH1 Auto-Correlation
1.0,0.055750761181116104
2.0,0.0545881949365139
3.0,0.053479377180337906
4.0,0.052469100803136826
5.0,0.05148770287632942
6.0,0.05054071173071861
7.0,0.04965943470597267
8.0,0.04882516339421272
9.0,0.04804340377449989
10.0,0.04728991165757179
11.0,0.04656779393553734
12.0,0.04582521691918373
13.0,0.04510907083749771
14.0,0.04443451017141342
15.0,0.04384526237845421
16.0,0.04325727000832558
18.0,0.04215582087635994
20.0,0.04111197218298912
22.0,0.04010778293013573
24.0,0.03910534083843231
26.0,0.038145724684000015
28.0,0.03721621260046959
30.0,0.03634517639875412
32.0,0.035487230867147446
36.0,0.03398270159959793
40.0,0.032650645822286606
44.0,0.031429581344127655
48.0,0.030385799705982208
52.0,0.029411787167191505
56.0,0.028358452022075653
60.0,0.027263037860393524
64.0,0.026208912953734398
72.0,0.024057963863015175
80.0,0.022233108058571815
88.0,0.02088124305009842
96.0,0.01975107751786709
104.0,0.01921856962144375
112.0,0.01950226165354252
120.0,0.01985394023358822
128.0,0.019990364089608192
144.0,0.019260119646787643
160.0,0.018502742052078247
176.0,0.01775706745684147
192.0,0.01678270660340786
208.0,0.01593327708542347
224.0,0.013670609332621098
240.0,0.011955881491303444
256.0,0.010978633537888527
288.0,0.009804194793105125
320.0,0.009342248551547527
352.0,0.010590838268399239
384.0,0.010960917919874191
416.0,0.009961016476154327
448.0,0.0073768217116594315
480.0,0.004352718126028776
512.0,0.003376123495399952
576.0,0.002508109202608466
640.0,0.0005805514520034194
704.0,0.00027188792591914535
768.0,0.0024426255840808153
832.0,0.001460070488974452
896.0,-0.00043591868598014116
960.0,0.0016688813921064138
1024.0,0.003377686021849513
1152.0,0.0021651238203048706
1280.0,0.0017033407930284739
1408.0,0.004967572633177042
1536.0,0.00044367575901560485
1664.0,0.0006505095516331494
1792.0,0.00462553882971406
1920.0,-0.000379154400434345
2048.0,-0.000888349546585232
2304.0,-0.0026316517032682896
2560.0,-0.01118476502597332
2816.0,-0.0027462022844702005
3072.0,-0.0019583329558372498
3328.0,-0.001747863949276507
3584.0,0.0014526413287967443
3840.0,-0.006216306705027819
4096.0,-0.00375736434943974
4608.0,-0.004793738480657339
5120.0,-0.0068877097219228745
5632.0,-0.006230223923921585
6144.0,-0.002326905494555831
6656.0,-0.00467086723074317
7168.0,-0.00018386953161098063
7680.0,0.01045595295727253
8192.0,0.005871887318789959
end
