version,3.0
numOfCh,1
type,point
parent_name,c1204_0dot2-0dot1
ch_type,1_1
kcount,1
numberNandB,1
brightnessNandB,1
carpet pos,0
pc,0
Time (ms),CH1 Auto-Correlation
1.0,0.11362314969301224
2.0,0.10979495942592621
3.0,0.10592778772115707
4.0,0.1014447882771492
5.0,0.0978248193860054
6.0,0.09421437978744507
7.0,0.09043939411640167
8.0,0.08728135377168655
9.0,0.08537692576646805
10.0,0.08303119987249374
11.0,0.08057092875242233
12.0,0.07873387634754181
13.0,0.07631818950176239
14.0,0.07296431064605713
15.0,0.0699375793337822
16.0,0.067426897585392
18.0,0.06085094437003136
20.0,0.054657407104969025
22.0,0.0531562864780426
24.0,0.05180264636874199
26.0,0.050494659692049026
28.0,0.04942024499177933
30.0,0.04824019595980644
32.0,0.04699050635099411
36.0,0.044816236943006516
40.0,0.04265774041414261
44.0,0.04027976840734482
48.0,0.038149308413267136
52.0,0.03630136325955391
56.0,0.03441131114959717
60.0,0.03219795227050781
64.0,0.030140023678541183
72.0,0.027646690607070923
80.0,0.025955500081181526
88.0,0.023888401687145233
96.0,0.0230584517121315
104.0,0.022221719846129417
112.0,0.021250726655125618
120.0,0.019024891778826714
128.0,0.016860660165548325
144.0,0.013201020658016205
160.0,0.014047867618501186
176.0,0.014666090719401836
192.0,0.013497992418706417
208.0,0.01445944793522358
224.0,0.014123912900686264
240.0,0.011540759354829788
256.0,0.011335761286318302
288.0,0.011061927303671837
320.0,0.011390644125640392
352.0,0.008304539136588573
384.0,0.006124046165496111
416.0,0.0054713026620447636
448.0,0.004154853522777557
480.0,0.0004121537203900516
512.0,0.001459295628592372
576.0,0.006455718073993921
640.0,0.0030614291317760944
704.0,0.0012388118775561452
768.0,-0.00021787967125419527
832.0,0.0019369696965441108
896.0,0.0017006386769935489
960.0,-0.0019197891233488917
1024.0,-0.0036175833083689213
1152.0,-0.0070127747021615505
1280.0,-0.005162148270756006
1408.0,-0.0017104357248172164
1536.0,-0.0032552427146583796
1664.0,-0.0037302214186638594
1792.0,-0.003084666794165969
1920.0,-0.0024371175095438957
2048.0,0.0021702684462070465
2304.0,0.006446135696023703
2560.0,0.004627271089702845
2816.0,0.005858524702489376
3072.0,0.006476691924035549
3328.0,-0.0018397008534520864
3584.0,0.0012352102203294635
3840.0,-0.010526971891522408
4096.0,-0.011063513346016407
4608.0,-0.008220107294619083
5120.0,-0.001364155556075275
5632.0,0.005787551403045654
6144.0,-0.0009651330765336752
6656.0,-0.016028575599193573
7168.0,-0.008469185791909695
7680.0,0.0005414710030891001
8192.0,0.001655148807913065
end
