version,3.0
numOfCh,1
type,point
parent_name,c1204_0dot2-0dot1
ch_type,1_1
kcount,1
numberNandB,1
brightnessNandB,1
carpet pos,0
pc,0
Time (ms),CH1 Auto-Correlation
1.0,0.06052172929048538
2.0,0.059382859617471695
3.0,0.05832213535904884
4.0,0.05730130150914192
5.0,0.05634690076112747
6.0,0.05540790408849716
7.0,0.054501213133335114
8.0,0.05364276096224785
9.0,0.05282154679298401
10.0,0.052046142518520355
11.0,0.051278579980134964
12.0,0.0505065880715847
13.0,0.049771249294281006
14.0,0.049073267728090286
15.0,0.04842087998986244
16.0,0.047792334109544754
18.0,0.04660457745194435
20.0,0.045485299080610275
22.0,0.04444432258605957
24.0,0.04348739609122276
26.0,0.04256993532180786
28.0,0.041708797216415405
30.0,0.040931712836027145
32.0,0.040170636028051376
36.0,0.038666050881147385
40.0,0.03729824721813202
44.0,0.03600964695215225
48.0,0.034871380776166916
52.0,0.033755719661712646
56.0,0.03270062804222107
60.0,0.03174486756324768
64.0,0.030842892825603485
72.0,0.029090512543916702
80.0,0.027626046910881996
88.0,0.026316402480006218
96.0,0.025118306279182434
104.0,0.023940881714224815
112.0,0.022386668249964714
120.0,0.020956281572580338
128.0,0.019954564049839973
144.0,0.018185704946517944
160.0,0.01682484894990921
176.0,0.016374772414565086
192.0,0.015960482880473137
208.0,0.014458063058555126
224.0,0.012908846139907837
240.0,0.012246193364262581
256.0,0.012134096585214138
288.0,0.011251446790993214
320.0,0.009491807781159878
352.0,0.010294058360159397
384.0,0.01127355732023716
416.0,0.010403354652225971
448.0,0.011117869056761265
480.0,0.011728856712579727
512.0,0.010819531977176666
576.0,0.007896281778812408
640.0,0.008458375930786133
704.0,0.010846691206097603
768.0,0.010071205906569958
832.0,0.008823013864457607
896.0,0.0063910409808158875
960.0,0.0035619456321001053
1024.0,-0.0005910478066653013
1152.0,-0.000975947710685432
1280.0,-0.0013743203599005938
1408.0,0.0008260986069217324
1536.0,0.000841726316139102
1664.0,-6.3350897107739e-05
1792.0,-0.004060379229485989
1920.0,-0.003995013888925314
2048.0,-0.0063408720307052135
2304.0,-0.00201676064170897
2560.0,-0.0027302014641463757
2816.0,-0.0004479870549403131
3072.0,-0.0018093191320076585
3328.0,0.00033281950163654983
3584.0,-0.006153087131679058
3840.0,-0.00583873875439167
4096.0,-0.0006796273519285023
4608.0,-0.004044657107442617
5120.0,-0.0008422233513556421
5632.0,0.0013249061303213239
6144.0,0.008730688132345676
6656.0,0.007705579046159983
7168.0,0.0038794928696006536
7680.0,-0.005466860253363848
8192.0,-0.008038858883082867
end
