version,3.0
numOfCh,1
type,point
parent_name,c1204_0dot2-0dot1
ch_type,1_1
kcount,1
numberNandB,1
brightnessNandB,1
carpet pos,0
pc,0
Time (ms),CH1 Auto-Correlation
1.0,0.06014750525355339
2.0,0.05869542062282562
3.0,0.05730464681982994
4.0,0.05600117892026901
5.0,0.05473218858242035
6.0,0.053503572940826416
7.0,0.05230918899178505
8.0,0.05117344111204147
9.0,0.050066377967596054
10.0,0.04901549220085144
11.0,0.04800469055771828
12.0,0.04703640937805176
13.0,0.0461086742579937
14.0,0.04525548592209816
15.0,0.0443989522755146
16.0,0.043540824204683304
18.0,0.041940659284591675
20.0,0.040411096066236496
22.0,0.03896712511777878
24.0,0.03758450970053673
26.0,0.03624894469976425
28.0,0.03499377518892288
30.0,0.033774204552173615
32.0,0.032675646245479584
36.0,0.03056742064654827
40.0,0.028773503378033638
44.0,0.02735394425690174
48.0,0.026307253167033195
52.0,0.02548164874315262
56.0,0.02449907176196575
60.0,0.023387545719742775
64.0,0.022409692406654358
72.0,0.020934004336595535
80.0,0.019627340137958527
88.0,0.018285218626260757
96.0,0.017083121463656425
104.0,0.015901561826467514
112.0,0.014988674782216549
120.0,0.014105386100709438
128.0,0.013461151160299778
144.0,0.010722401551902294
160.0,0.008532649837434292
176.0,0.007933623157441616
192.0,0.007799268234521151
208.0,0.006692102644592524
224.0,0.006682818755507469
240.0,0.006833725608885288
256.0,0.006723405793309212
288.0,0.00675254175439477
320.0,0.005850141867995262
352.0,0.002322311047464609
384.0,-0.0018292989116162062
416.0,-0.004087011329829693
448.0,-0.00568547984585166
480.0,-0.006668427027761936
512.0,-0.008420556783676147
576.0,-0.00814184732735157
640.0,-0.003944715019315481
704.0,-0.0003263448306825012
768.0,0.002432494889944792
832.0,0.0017368047265335917
896.0,-0.0009782908018678427
960.0,0.0003165074158459902
1024.0,0.001778402365744114
1152.0,0.0020774188451468945
1280.0,-0.0003793289652094245
1408.0,0.0013752126833423972
1536.0,0.0041197617538273335
1664.0,0.0008996605756692588
1792.0,0.0016957636689767241
1920.0,0.004176735877990723
2048.0,0.004163856618106365
2304.0,-0.0025571873411536217
2560.0,-0.0027379710227251053
2816.0,0.0011512957280501723
3072.0,0.0009126386721618474
3328.0,-0.006340958643704653
3584.0,-0.006663926877081394
3840.0,0.00040319134132005274
4096.0,0.0044882893562316895
4608.0,-0.004452540073543787
5120.0,-0.0022421253379434347
5632.0,0.0013949655694887042
6144.0,-0.0024417974054813385
6656.0,-0.005059257615357637
7168.0,0.00533934636041522
7680.0,-0.004778280854225159
8192.0,0.00017057088552974164
end
