version,3.0
numOfCh,1
type,point
parent_name,c1204_0dot2-0dot1
ch_type,1_1
kcount,1
numberNandB,1
brightnessNandB,1
carpet pos,0
pc,0
Time (ms),CH1 Auto-Correlation
1.0,0.06222517788410187
2.0,0.0608733631670475
3.0,0.05958400294184685
4.0,0.058373596519231796
5.0,0.05726360157132149
6.0,0.05619948357343674
7.0,0.055203087627887726
8.0,0.05422510951757431
9.0,0.05330681428313255
10.0,0.05242173373699188
11.0,0.05157448723912239
12.0,0.050784070044755936
13.0,0.04995077848434448
14.0,0.04912583529949188
15.0,0.04829450696706772
16.0,0.047518275678157806
18.0,0.04612664505839348
20.0,0.04495035856962204
22.0,0.043705977499485016
24.0,0.04244306683540344
26.0,0.0412067286670208
28.0,0.04002610966563225
30.0,0.038912441581487656
32.0,0.03790602833032608
36.0,0.03603494539856911
40.0,0.03448491543531418
44.0,0.03308785706758499
48.0,0.03188740834593773
52.0,0.03056909702718258
56.0,0.02916526608169079
60.0,0.027605801820755005
64.0,0.02619851566851139
72.0,0.02390441484749317
80.0,0.021613337099552155
88.0,0.02065620757639408
96.0,0.01996896043419838
104.0,0.01860252022743225
112.0,0.01706470176577568
120.0,0.015764329582452774
128.0,0.01429418008774519
144.0,0.011952684260904789
160.0,0.009837270714342594
176.0,0.0075232526287436485
192.0,0.0060308403335511684
208.0,0.005168292671442032
224.0,0.003944783471524715
240.0,0.0033804678823798895
256.0,0.003434858750551939
288.0,0.002508576260879636
320.0,0.0018677212065085769
352.0,0.0007291593938134611
384.0,-0.0003333080094307661
416.0,0.00018986845680046827
448.0,0.0009167612879537046
480.0,0.0022790718358010054
512.0,0.001676561194472015
576.0,-0.00195671571418643
640.0,-0.003158618463203311
704.0,-0.0005209125229157507
768.0,6.793133798055351e-05
832.0,-0.0026702277828007936
896.0,-0.0005167826893739402
960.0,-0.00017925749125424773
1024.0,-3.450352232903242e-05
1152.0,-0.003349095117300749
1280.0,-0.0036796662025153637
1408.0,-0.002355750882998109
1536.0,-0.003410001052543521
1664.0,-0.003088256111368537
1792.0,-0.0006995094008743763
1920.0,-0.002457011491060257
2048.0,-0.005560762714594603
2304.0,-0.002722295233979821
2560.0,0.0010949269635602832
2816.0,0.0006313055637292564
3072.0,-0.010036936029791832
3328.0,0.000974802765995264
3584.0,-0.0018676725449040532
3840.0,-0.0026511650066822767
4096.0,-0.00573018379509449
4608.0,0.0026609189808368683
5120.0,0.003935395274311304
5632.0,-0.002874926896765828
6144.0,-0.0030845210421830416
6656.0,0.002952493727207184
7168.0,0.0021803341805934906
7680.0,0.0033979900181293488
8192.0,-0.003666843054816127
end
