version,3.0
numOfCh,1
type,point
parent_name,c1204_0dot2-0dot1
ch_type,1_1
kcount,1
numberNandB,1
brightnessNandB,1
carpet pos,0
pc,0
Time (ms),CH1 Auto-Correlation
1.0,0.06695441156625748
2.0,0.06521289050579071
3.0,0.06350937485694885
4.0,0.06189959868788719
5.0,0.060373175889253616
6.0,0.05898531526327133
7.0,0.05783183127641678
8.0,0.05655064806342125
9.0,0.055330049246549606
10.0,0.05412226915359497
11.0,0.05300426483154297
12.0,0.05193750187754631
13.0,0.05098230391740799
14.0,0.049850765615701675
15.0,0.04886889085173607
16.0,0.047825511544942856
18.0,0.04586130380630493
20.0,0.044072072952985764
22.0,0.04241592809557915
24.0,0.04087475687265396
26.0,0.03955315053462982
28.0,0.038488589227199554
30.0,0.03747664391994476
32.0,0.036582283675670624
36.0,0.034817930310964584
40.0,0.033263880759477615
44.0,0.032010968774557114
48.0,0.03054334968328476
52.0,0.029215991497039795
56.0,0.027809876948595047
60.0,0.026501649990677834
64.0,0.025362368673086166
72.0,0.02266722545027733
80.0,0.02077857404947281
88.0,0.01939225383102894
96.0,0.017506767064332962
104.0,0.01677771657705307
112.0,0.016942881047725677
120.0,0.017054712399840355
128.0,0.01683790236711502
144.0,0.0155855193734169
160.0,0.01369471289217472
176.0,0.013083133846521378
192.0,0.013583377003669739
208.0,0.013262195512652397
224.0,0.01271695364266634
240.0,0.012006833218038082
256.0,0.01038290560245514
288.0,0.006326553411781788
320.0,0.004459962714463472
352.0,0.005219390615820885
384.0,0.005263505503535271
416.0,0.005348502658307552
448.0,0.006343143526464701
480.0,0.005151481833308935
512.0,0.004646624904125929
576.0,0.005749993491917849
640.0,0.004832057282328606
704.0,0.006630290765315294
768.0,0.006677623838186264
832.0,0.008018868044018745
896.0,0.008350413292646408
960.0,0.007309943437576294
1024.0,0.005854141898453236
1152.0,-0.0011286562075838447
1280.0,-0.0023523622658103704
1408.0,-0.0020354052539914846
1536.0,0.00186904554720968
1664.0,0.000634239346254617
1792.0,-0.001408333657309413
1920.0,-0.004970883950591087
2048.0,-0.006231067702174187
2304.0,0.0002484117867425084
2560.0,-0.00413198908790946
2816.0,-0.007412721868604422
3072.0,-0.00032569869654253125
3328.0,-0.0012137345038354397
3584.0,-0.0036159581504762173
3840.0,-0.009688236750662327
4096.0,-0.005009493324905634
4608.0,-0.004883199464529753
5120.0,-0.001324412296526134
5632.0,-0.005403845105320215
6144.0,-0.0035127298906445503
6656.0,0.0020018082577735186
7168.0,-0.0027728662826120853
7680.0,0.0021692265290766954
8192.0,0.005795750301331282
end
