version,3.0
numOfCh,1
type,point
parent_name,c1204_0dot2-0dot1
ch_type,1_1
kcount,1
numberNandB,1
brightnessNandB,1
carpet pos,0
pc,0
Time (ms),CH1 Auto-Correlation
1.0,0.0771280899643898
2.0,0.07588277012109756
3.0,0.07470440119504929
4.0,0.07353456318378448
5.0,0.07240128517150879
6.0,0.07135321944952011
7.0,0.07034897804260254
8.0,0.06938003748655319
9.0,0.06842393428087234
10.0,0.06746865808963776
11.0,0.0665825679898262
12.0,0.06572069227695465
13.0,0.0649164617061615
14.0,0.06412677466869354
15.0,0.0633588656783104
16.0,0.06261730939149857
18.0,0.06123347207903862
20.0,0.059892673045396805
22.0,0.058585233986377716
24.0,0.05735912546515465
26.0,0.05622534826397896
28.0,0.055090148001909256
30.0,0.05402406305074692
32.0,0.05306639149785042
36.0,0.05128064006567001
40.0,0.04968082904815674
44.0,0.048189759254455566
48.0,0.04687860608100891
52.0,0.04547147452831268
56.0,0.04404813423752785
60.0,0.042675137519836426
64.0,0.041320886462926865
72.0,0.03876763582229614
80.0,0.036668166518211365
88.0,0.03514249622821808
96.0,0.033769313246011734
104.0,0.03236967697739601
112.0,0.03081267885863781
120.0,0.029619254171848297
128.0,0.02930518426001072
144.0,0.02946295775473118
160.0,0.029510725289583206
176.0,0.027688046917319298
192.0,0.02569825015962124
208.0,0.023417428135871887
224.0,0.021226346492767334
240.0,0.018737809732556343
256.0,0.017194755375385284
288.0,0.0145484684035182
320.0,0.011547917500138283
352.0,0.00966613832861185
384.0,0.0075074536725878716
416.0,0.004269865807145834
448.0,0.0020836861804127693
480.0,3.6098164855502546e-05
512.0,0.0004880931228399277
576.0,0.0012246656697243452
640.0,0.0036564210895448923
704.0,0.0009993022540584207
768.0,-0.0022371835075318813
832.0,0.00036851706681773067
896.0,0.003159363055601716
960.0,0.0014482508413493633
1024.0,-0.0009226753027178347
1152.0,-0.002635977463796735
1280.0,-0.0036619873717427254
1408.0,-0.009431466460227966
1536.0,-0.015021867118775845
1664.0,-0.018921691924333572
1792.0,-0.013308138586580753
1920.0,-0.011866630055010319
2048.0,-0.009052812121808529
2304.0,-0.00949805323034525
2560.0,-0.013495005667209625
2816.0,-0.003966907970607281
3072.0,0.0006500204326584935
3328.0,0.007971336133778095
3584.0,0.005433546379208565
3840.0,0.008911367505788803
4096.0,0.018906962126493454
4608.0,0.00933318492025137
5120.0,-0.000857260194607079
5632.0,-0.0038888053968548775
6144.0,-0.023905890062451363
6656.0,0.00020930964092258364
7168.0,-0.006325684487819672
7680.0,0.002789172111079097
8192.0,0.011706559918820858
end
