version,3.0
numOfCh,1
type,point
parent_name,c1204_0dot2-0dot1
ch_type,1_1
kcount,1
numberNandB,1
brightnessNandB,1
carpet pos,0
pc,0
Time (ms),CH1 Auto-Correlation
1.0,0.06763399392366409
2.0,0.0662156417965889
3.0,0.06487403064966202
4.0,0.06359546631574631
5.0,0.062377508729696274
6.0,0.0611698143184185
7.0,0.0600648932158947
8.0,0.058999866247177124
9.0,0.05792669206857681
10.0,0.05696366727352142
11.0,0.056039098650217056
12.0,0.05513378605246544
13.0,0.05423419922590256
14.0,0.053361084312200546
15.0,0.05255023390054703
16.0,0.05177987739443779
18.0,0.050378747284412384
20.0,0.04909079521894455
22.0,0.04781144857406616
24.0,0.046480219811201096
26.0,0.04520793259143829
28.0,0.04399927705526352
30.0,0.042820774018764496
32.0,0.041700758039951324
36.0,0.03946475684642792
40.0,0.037417322397232056
44.0,0.03548387438058853
48.0,0.03366361930966377
52.0,0.03216174617409706
56.0,0.030889304354786873
60.0,0.029743893072009087
64.0,0.028636926785111427
72.0,0.0265106949955225
80.0,0.024662785232067108
88.0,0.023016229271888733
96.0,0.02143927291035652
104.0,0.019624067470431328
112.0,0.017267655581235886
120.0,0.015001850202679634
128.0,0.012486467137932777
144.0,0.008018946275115013
160.0,0.005709179677069187
176.0,0.005094668362289667
192.0,0.004530780948698521
208.0,0.004308823496103287
224.0,0.004537909757345915
240.0,0.0035846729297190905
256.0,0.002413999754935503
288.0,0.0007327396306209266
320.0,-0.0009386979509145021
352.0,-0.002221308182924986
384.0,-0.0037962421774864197
416.0,-0.003230885835364461
448.0,-0.00358223938383162
480.0,-0.004379527643322945
512.0,-0.004831154365092516
576.0,-0.005716206040233374
640.0,-0.003102519316598773
704.0,-0.0006160666816867888
768.0,0.0023535520303994417
832.0,0.0037988219410181046
896.0,0.0025745544116944075
960.0,0.0009516882128082216
1024.0,-0.0021302863024175167
1152.0,-0.0005852542817592621
1280.0,-0.001415858045220375
1408.0,0.002396991942077875
1536.0,0.007196152117103338
1664.0,0.004959606099873781
1792.0,0.000566568283829838
1920.0,-0.006684357300400734
2048.0,-0.008933333680033684
2304.0,-0.004880565218627453
2560.0,-0.0003234374744351953
2816.0,0.0024018690455704927
3072.0,0.0034943970385938883
3328.0,-7.613951311213896e-05
3584.0,-0.0007165369461290538
3840.0,-0.000299754086881876
4096.0,-0.003402284812182188
4608.0,-0.00603147828951478
5120.0,-0.001753740943968296
5632.0,-0.00015533363330177963
6144.0,-0.008323955349624157
6656.0,0.0013294880045577884
7168.0,0.000560687854886055
7680.0,-0.004727500956505537
8192.0,0.004884630441665649
end
