version,3.0
numOfCh,1
type,point
parent_name,c1204_0dot2-0dot1
ch_type,1_1
kcount,1
numberNandB,1
brightnessNandB,1
carpet pos,0
pc,0
Time (ms),CH1 Auto-Correlation
1.0,0.05963390693068504
2.0,0.05832643434405327
3.0,0.0570368692278862
4.0,0.05581051483750343
5.0,0.05467711761593819
6.0,0.05361014977097511
7.0,0.05260798707604408
8.0,0.05165764316916466
9.0,0.0507609024643898
10.0,0.04989326745271683
11.0,0.04904885217547417
12.0,0.04820667579770088
13.0,0.04737095534801483
14.0,0.04656176641583443
15.0,0.04577576369047165
16.0,0.04498683661222458
18.0,0.04351514205336571
20.0,0.042084597051143646
22.0,0.04065296798944473
24.0,0.039207037538290024
26.0,0.0379137322306633
28.0,0.03669266775250435
30.0,0.03555850312113762
32.0,0.03443566709756851
36.0,0.032333508133888245
40.0,0.03054441697895527
44.0,0.028951261192560196
48.0,0.027486257255077362
52.0,0.026006709784269333
56.0,0.02456795424222946
60.0,0.023216847330331802
64.0,0.021977633237838745
72.0,0.019540313631296158
80.0,0.01737685315310955
88.0,0.01563192903995514
96.0,0.014251183718442917
104.0,0.012862569652497768
112.0,0.011840509250760078
120.0,0.01059130672365427
128.0,0.009451148100197315
144.0,0.00782199390232563
160.0,0.007608579006046057
176.0,0.0072421361692249775
192.0,0.007185129448771477
208.0,0.007595922332257032
224.0,0.006968458648771048
240.0,0.007369195576757193
256.0,0.008080263622105122
288.0,0.006718634162098169
320.0,0.002368903486058116
352.0,-0.0004389714449644089
384.0,-0.0028275528457015753
416.0,-0.004142047371715307
448.0,-0.0030563913751393557
480.0,-0.0019072173163294792
512.0,-0.0029171574860811234
576.0,0.0020362467039376497
640.0,0.0051247915253043175
704.0,0.0010030772536993027
768.0,-0.0006479215808212757
832.0,0.0026938363444060087
896.0,0.003823979292064905
960.0,0.0005445049609988928
1024.0,-0.0019142739474773407
1152.0,0.0032631622161716223
1280.0,0.002902225824072957
1408.0,0.007673730608075857
1536.0,0.005342155694961548
1664.0,-0.00016045417578425258
1792.0,-0.0022844269406050444
1920.0,-0.004112693015486002
2048.0,-0.0040040044113993645
2304.0,-0.0028086870443075895
2560.0,-0.0001629129983484745
2816.0,-2.134237547579687e-05
3072.0,0.0020090851467102766
3328.0,0.0007764245383441448
3584.0,-0.004493109416216612
3840.0,0.0020524917636066675
4096.0,0.0020474286284297705
4608.0,0.0032422582153230906
5120.0,-0.0022076249588280916
5632.0,0.004311141557991505
6144.0,-0.007554002571851015
6656.0,-0.005962603259831667
7168.0,-0.0010768778156489134
7680.0,-0.009321659803390503
8192.0,-0.0016063331859186292
end
