version,3.0
numOfCh,1
type,point
parent_name,c1204_0dot2-0dot1
ch_type,1_1
kcount,1
numberNandB,1
brightnessNandB,1
carpet pos,0
pc,0
Time (ms),CH1 Auto-Correlation
1.0,0.062257807701826096
2.0,0.06080400571227074
3.0,0.059457194060087204
4.0,0.05814522132277489
5.0,0.05689980089664459
6.0,0.05569994077086449
7.0,0.05458226427435875
8.0,0.05348590016365051
9.0,0.05245055630803108
10.0,0.05146924778819084
11.0,0.05050648748874664
12.0,0.04951505735516548
13.0,0.048523325473070145
14.0,0.04759398475289345
15.0,0.04665632173418999
16.0,0.04568639397621155
18.0,0.0439327210187912
20.0,0.04243122786283493
22.0,0.041100747883319855
24.0,0.03988729044795036
26.0,0.03878464549779892
28.0,0.03777250647544861
30.0,0.036870941519737244
32.0,0.03600238636136055
36.0,0.03417976573109627
40.0,0.032344941049814224
44.0,0.0307010505348444
48.0,0.02942720428109169
52.0,0.028321508318185806
56.0,0.027170903980731964
60.0,0.0260192658752203
64.0,0.024933701381087303
72.0,0.022702857851982117
80.0,0.021448589861392975
88.0,0.020990712568163872
96.0,0.02033921517431736
104.0,0.018988139927387238
112.0,0.017551036551594734
120.0,0.016878139227628708
128.0,0.016405031085014343
144.0,0.01553217601031065
160.0,0.014043058268725872
176.0,0.012612042017281055
192.0,0.012004218064248562
208.0,0.012073320336639881
224.0,0.011908778920769691
240.0,0.012297664768993855
256.0,0.012823455967009068
288.0,0.01075261365622282
320.0,0.008257620967924595
352.0,0.006580200511962175
384.0,0.00328597379848361
416.0,0.0036274860613048077
448.0,0.004791633225977421
480.0,0.004221766721457243
512.0,0.004814583342522383
576.0,0.005817856173962355
640.0,0.004089968279004097
704.0,0.0032269202638417482
768.0,0.004852376878261566
832.0,0.0045948815532028675
896.0,0.0043535614386200905
960.0,0.004410035442560911
1024.0,0.003281964920461178
1152.0,0.009994138963520527
1280.0,0.009482132270932198
1408.0,0.012371794320642948
1536.0,0.0065183634869754314
1664.0,0.005144479218870401
1792.0,0.002576610539108515
1920.0,0.0013378200819715858
2048.0,-0.00034144287928938866
2304.0,9.550439426675439e-05
2560.0,0.0013498178450390697
2816.0,0.0007054151501506567
3072.0,-0.0025628400035202503
3328.0,-0.005249411333352327
3584.0,-0.008163060992956161
3840.0,-0.005658334121108055
4096.0,-0.008205992169678211
4608.0,-0.010870425030589104
5120.0,-0.008175071328878403
5632.0,-0.00541812926530838
6144.0,-0.0061894250102341175
6656.0,-0.007178930100053549
7168.0,-0.003161157015711069
7680.0,0.001019898452796042
8192.0,0.003169263945892453
end
