version,3.0
numOfCh,1
type,point
parent_name,c1204_0dot2-0dot1
ch_type,1_1
kcount,1
numberNandB,1
brightnessNandB,1
carpet pos,0
pc,0
Time (ms),CH1 Auto-Correlation
1.0,0.050514258444309235
2.0,0.0493508018553257
3.0,0.04825006425380707
4.0,0.047204963862895966
5.0,0.04616076126694679
6.0,0.0452125146985054
7.0,0.04432980343699455
8.0,0.043440621346235275
9.0,0.042610205709934235
10.0,0.041818927973508835
11.0,0.0410388819873333
12.0,0.04026079550385475
13.0,0.03948269784450531
14.0,0.03875460475683212
15.0,0.038035642355680466
16.0,0.03731752932071686
18.0,0.03596534579992294
20.0,0.03468206897377968
22.0,0.033453889191150665
24.0,0.03231779858469963
26.0,0.03124956227838993
28.0,0.03028320148587227
30.0,0.029371092095971107
32.0,0.028436385095119476
36.0,0.026718635112047195
40.0,0.025280993431806564
44.0,0.024011244997382164
48.0,0.022704625502228737
52.0,0.021436545997858047
56.0,0.020307697355747223
60.0,0.01921474188566208
64.0,0.018175629898905754
72.0,0.01646781899034977
80.0,0.014848166145384312
88.0,0.0131794773042202
96.0,0.011919132433831692
104.0,0.01063116267323494
112.0,0.009562928229570389
120.0,0.008375794626772404
128.0,0.007226328831166029
144.0,0.005219689570367336
160.0,0.00313618965446949
176.0,0.0007955557084642351
192.0,-0.0011900432873517275
208.0,-0.002930458402261138
224.0,-0.004057421814650297
240.0,-0.0043869707733392715
256.0,-0.005118431057780981
288.0,-0.004708125721663237
320.0,-0.004505919758230448
352.0,-0.004044103901833296
384.0,-0.0006120562320575118
416.0,0.0001439509796909988
448.0,0.00040996645111590624
480.0,0.0017458604415878654
512.0,0.0011203838512301445
576.0,0.00014543991710525006
640.0,0.0009592404821887612
704.0,0.0005304120713844895
768.0,0.0009281211532652378
832.0,0.0022612102329730988
896.0,0.0016666000010445714
960.0,0.0009954249253496528
1024.0,-0.0018214916344732046
1152.0,-0.005929016042500734
1280.0,-0.0045858933590352535
1408.0,0.002702422672882676
1536.0,-0.00021918915444985032
1664.0,-0.007482915185391903
1792.0,-0.0031029852107167244
1920.0,0.0019555301405489445
2048.0,0.002033431315794587
2304.0,-0.0003974021237809211
2560.0,-0.0021345538552850485
2816.0,0.002062244340777397
3072.0,-0.002679311204701662
3328.0,0.0026913757901638746
3584.0,-0.001653069630265236
3840.0,-0.000763956515584141
4096.0,0.0022946479730308056
4608.0,-0.001949457684531808
5120.0,-0.001390398945659399
5632.0,-0.003719144966453314
6144.0,0.004162007011473179
6656.0,0.002173671731725335
7168.0,0.002666014712303877
7680.0,-0.002060757949948311
8192.0,0.002123710699379444
end
