version,3.0
numOfCh,1
type,point
parent_name,c1204_0dot2-0dot1
ch_type,1_1
kcount,1
numberNandB,1
brightnessNandB,1
carpet pos,0
pc,0
Time (ms),CH1 Auto-Correlation
1.0,0.1324981302022934
2.0,0.12645795941352844
3.0,0.12069608271121979
4.0,0.1150866150856018
5.0,0.11004753410816193
6.0,0.10585296899080276
7.0,0.1027258038520813
8.0,0.09991192817687988
9.0,0.0961235985159874
10.0,0.09183265268802643
11.0,0.0875011533498764
12.0,0.08353909850120544
13.0,0.08030841499567032
14.0,0.07661725580692291
15.0,0.07233717292547226
16.0,0.06748035550117493
18.0,0.054401982575654984
20.0,0.0493570901453495
22.0,0.04765384644269943
24.0,0.04609059542417526
26.0,0.04449817165732384
28.0,0.04291963204741478
30.0,0.04109141230583191
32.0,0.039078570902347565
36.0,0.03646199777722359
40.0,0.03352732956409454
44.0,0.03113442100584507
48.0,0.02929430827498436
52.0,0.028283413499593735
56.0,0.02645590342581272
60.0,0.02430759370326996
64.0,0.021366223692893982
72.0,0.014970667660236359
80.0,0.010605637915432453
88.0,0.008611978031694889
96.0,0.007069477345794439
104.0,0.006723180413246155
112.0,0.0073054879903793335
120.0,0.007599028293043375
128.0,0.007517262827605009
144.0,0.008397231809794903
160.0,0.004892341326922178
176.0,0.001277309376746416
192.0,-0.0008717742166481912
208.0,-0.0030104436445981264
224.0,-0.003241889178752899
240.0,-0.0026521366089582443
256.0,-0.001197574194520712
288.0,-0.0011743762297555804
320.0,-0.0013115577166900039
352.0,-0.00054730981355533
384.0,0.0013178152730688453
416.0,0.003857056377455592
448.0,0.00627405010163784
480.0,0.006042641121894121
512.0,0.003550380002707243
576.0,-0.0026280281599611044
640.0,-0.004523849580436945
704.0,-0.004524661228060722
768.0,-0.002040409715846181
832.0,-0.0018486884655430913
896.0,-0.004001406952738762
960.0,-0.003245358821004629
1024.0,-0.0039955610409379005
1152.0,0.0034190283622592688
1280.0,0.0011687754886224866
1408.0,-0.00307825836353004
1536.0,-0.0023570149205625057
1664.0,0.0017084353603422642
1792.0,-0.004443354904651642
1920.0,-0.001447696122340858
2048.0,0.0001841226767282933
2304.0,0.004491040483117104
2560.0,-0.0019624161068350077
2816.0,0.0023370408453047276
3072.0,0.0001202102648676373
3328.0,0.002752538537606597
3584.0,0.00022659187379758805
3840.0,-0.0034632552415132523
4096.0,-0.0036144996993243694
4608.0,0.0009509408846497536
5120.0,-0.0015213516307994723
5632.0,-0.0032393441069871187
6144.0,-0.0016843870980665088
6656.0,0.0006432227091863751
7168.0,0.0023518241941928864
7680.0,-0.0011163637973368168
8192.0,0.005251816939562559
end
