version,3.0
numOfCh,1
type,point
parent_name,c1204_0dot2-0dot1
ch_type,1_1
kcount,1
numberNandB,1
brightnessNandB,1
carpet pos,0
pc,0
Time (ms),CH1 Auto-Correlation
1.0,0.05882808193564415
2.0,0.057287491858005524
3.0,0.055822763592004776
4.0,0.054364487528800964
5.0,0.05299277603626251
6.0,0.0517154335975647
7.0,0.05052293464541435
8.0,0.049394842237234116
9.0,0.04831591248512268
10.0,0.047309450805187225
11.0,0.04633094370365143
12.0,0.04536820575594902
13.0,0.04445623978972435
14.0,0.04351649433374405
15.0,0.04259020462632179
16.0,0.04172194376587868
18.0,0.04010912403464317
20.0,0.03862104192376137
22.0,0.037307851016521454
24.0,0.03605295345187187
26.0,0.034980058670043945
28.0,0.033828362822532654
30.0,0.032743945717811584
32.0,0.03175851330161095
36.0,0.030107462778687477
40.0,0.02836419828236103
44.0,0.026806503534317017
48.0,0.025587912648916245
52.0,0.02440200001001358
56.0,0.02306964434683323
60.0,0.021700534969568253
64.0,0.020445222035050392
72.0,0.01849423348903656
80.0,0.01757974363863468
88.0,0.0167157594114542
96.0,0.015474852174520493
104.0,0.014351284131407738
112.0,0.013319126330316067
120.0,0.011924349702894688
128.0,0.010471861809492111
144.0,0.0077021303586661816
160.0,0.005947350990027189
176.0,0.005272738169878721
192.0,0.006189020816236734
208.0,0.007530577015131712
224.0,0.00793242547661066
240.0,0.006090752314776182
256.0,0.004308602772653103
288.0,0.002159982919692993
320.0,0.0007855473086237907
352.0,0.0016260031843557954
384.0,0.0015247717965394258
416.0,0.0031944967340677977
448.0,0.00407657865434885
480.0,0.0036822326947003603
512.0,0.0035033589228987694
576.0,0.006590726785361767
640.0,0.005546306725591421
704.0,0.0036421397235244513
768.0,-0.0002283369394717738
832.0,-0.0004108903231099248
896.0,0.0016277726972475648
960.0,0.003457534359768033
1024.0,0.0021391173359006643
1152.0,0.003717531682923436
1280.0,0.004323383793234825
1408.0,0.004041428677737713
1536.0,0.0013351712841540575
1664.0,0.00156968436203897
1792.0,0.0020696986466646194
1920.0,0.0008097324753180146
2048.0,0.002311280695721507
2304.0,0.0013016331940889359
2560.0,-0.005463980603963137
2816.0,-0.004117694217711687
3072.0,-0.0012906286865472794
3328.0,0.001982937566936016
3584.0,-0.0026749514508992434
3840.0,-0.0014267276274040341
4096.0,-0.003432825906202197
4608.0,-0.005171795841306448
5120.0,-0.0019001339096575975
5632.0,0.0014901680406183004
6144.0,-0.0009167843963950872
6656.0,-0.003115082159638405
7168.0,0.0004679277481045574
7680.0,-0.0004905867390334606
8192.0,0.004034458659589291
end
