version,3.0
numOfCh,1
type,point
parent_name,c1204_0dot2-0dot1
ch_type,1_1
kcount,1
numberNandB,1
brightnessNandB,1
carpet pos,0
pc,0
Time (ms),CH1 Auto-Correlation
1.0,0.06036831811070442
2.0,0.05910806357860565
3.0,0.05789791792631149
4.0,0.056692324578762054
5.0,0.05551416799426079
6.0,0.05436340346932411
7.0,0.0532454177737236
8.0,0.05216550827026367
9.0,0.05116310343146324
10.0,0.05020621791481972
11.0,0.04930706322193146
12.0,0.04843892529606819
13.0,0.04761580377817154
14.0,0.04679664969444275
15.0,0.04604728892445564
16.0,0.045364297926425934
18.0,0.04415024444460869
20.0,0.042966898530721664
22.0,0.04187271371483803
24.0,0.04078730195760727
26.0,0.03970266878604889
28.0,0.038664691150188446
30.0,0.037723809480667114
32.0,0.03680945560336113
36.0,0.03502850979566574
40.0,0.0333264134824276
44.0,0.031723130494356155
48.0,0.03026873618364334
52.0,0.028918389230966568
56.0,0.027709435671567917
60.0,0.026471542194485664
64.0,0.02524827979505062
72.0,0.02336306683719158
80.0,0.022028723731637
88.0,0.02056102268397808
96.0,0.01890810951590538
104.0,0.01776890642940998
112.0,0.01685836724936962
120.0,0.016155915334820747
128.0,0.015173805877566338
144.0,0.013254034332931042
160.0,0.010550683364272118
176.0,0.007756595499813557
192.0,0.005149858072400093
208.0,0.003671427955850959
224.0,0.002854875521734357
240.0,0.0024673796724528074
256.0,0.0026524101849645376
288.0,0.004172838758677244
320.0,0.004949511494487524
352.0,0.006553619168698788
384.0,0.008699285797774792
416.0,0.010488449595868587
448.0,0.00998678058385849
480.0,0.009994491003453732
512.0,0.010438226163387299
576.0,0.007149865850806236
640.0,0.002303748158738017
704.0,-8.241801697295159e-05
768.0,-0.0007308510248549283
832.0,0.002763583557680249
896.0,0.002721424214541912
960.0,0.0012992889387533069
1024.0,0.0014288951642811298
1152.0,6.333948113024235e-05
1280.0,0.0028686076402664185
1408.0,0.0034900172613561153
1536.0,-0.00011929492029594257
1664.0,-0.0007275196257978678
1792.0,-0.0015204165829345584
1920.0,-0.0022546336986124516
2048.0,-0.004583731293678284
2304.0,-0.004258458502590656
2560.0,-0.0010346005437895656
2816.0,0.00166769465431571
3072.0,-0.0013506681425496936
3328.0,-0.00031090114498510957
3584.0,-0.0042596859857439995
3840.0,-0.00254946481436491
4096.0,-0.0009864361491054296
4608.0,0.004718671552836895
5120.0,0.00627354858443141
5632.0,0.006696631666272879
6144.0,0.002343857428058982
6656.0,-0.0035632506478577852
7168.0,-0.008638604544103146
7680.0,-0.005378594622015953
8192.0,-0.004251209087669849
end
