version,3.0
numOfCh,1
type,point
parent_name,c1204_0dot2-0dot1
ch_type,1_1
kcount,1
numberNandB,1
brightnessNandB,1
carpet pos,0
pc,0
Time (ms),CH1 Auto-Correlation
1.0,0.085732601583004
2.0,0.08449074625968933
3.0,0.08325910568237305
4.0,0.08207111805677414
5.0,0.08091707527637482
6.0,0.07979881763458252
7.0,0.07872716337442398
8.0,0.07765297591686249
9.0,0.07665540277957916
10.0,0.07567000389099121
11.0,0.07470438629388809
12.0,0.07380376756191254
13.0,0.07295063883066177
14.0,0.07219328731298447
15.0,0.07144245505332947
16.0,0.07065854221582413
18.0,0.06918640434741974
20.0,0.06780517846345901
22.0,0.06648077815771103
24.0,0.06522820889949799
26.0,0.06406611204147339
28.0,0.0630260780453682
30.0,0.06212037056684494
32.0,0.061325088143348694
36.0,0.0597604401409626
40.0,0.05807406082749367
44.0,0.05666067823767662
48.0,0.05554608628153801
52.0,0.05441915988922119
56.0,0.05334065482020378
60.0,0.0523977056145668
64.0,0.051719192415475845
72.0,0.05076523497700691
80.0,0.049477268010377884
88.0,0.04804938659071922
96.0,0.046515386551618576
104.0,0.045510705560445786
112.0,0.045098260045051575
120.0,0.044862598180770874
128.0,0.044736333191394806
144.0,0.04393083229660988
160.0,0.04191400855779648
176.0,0.03993242233991623
192.0,0.03819040581583977
208.0,0.03639189153909683
224.0,0.033835116773843765
240.0,0.03192548826336861
256.0,0.03134232014417648
288.0,0.029494570568203926
320.0,0.02514662779867649
352.0,0.02219347283244133
384.0,0.01810166798532009
416.0,0.015626253560185432
448.0,0.01555609330534935
480.0,0.014295731671154499
512.0,0.01258908212184906
576.0,0.00957849994301796
640.0,0.008499955758452415
704.0,0.006390382535755634
768.0,0.00507244560867548
832.0,-0.0013189601013436913
896.0,-0.0026628964114934206
960.0,-0.005190292838960886
1024.0,-0.0072671170346438885
1152.0,-0.010566678829491138
1280.0,-0.013526246882975101
1408.0,-0.012533891946077347
1536.0,-0.011035856790840626
1664.0,-0.007923034951090813
1792.0,-0.006737262010574341
1920.0,-0.008594026789069176
2048.0,-0.015336386859416962
2304.0,-0.013747203163802624
2560.0,-0.0050790864042937756
2816.0,-0.0016771545633673668
3072.0,-0.0008439201628789306
3328.0,6.651174044236541e-05
3584.0,0.0022519307676702738
3840.0,0.0037361851427704096
4096.0,0.015948565676808357
4608.0,0.020714791491627693
5120.0,0.010303339920938015
5632.0,-0.0035562519915401936
6144.0,-0.019881587475538254
6656.0,-0.035390015691518784
7168.0,-0.008412898518145084
7680.0,0.0072128367610275745
8192.0,0.004183011129498482
end
