version,3.0
numOfCh,1
type,point
parent_name,c1204_0dot2-0dot1
ch_type,1_1
kcount,1
numberNandB,1
brightnessNandB,1
carpet pos,0
pc,0
Time (ms),CH1 Auto-Correlation
1.0,0.07353129237890244
2.0,0.07207637280225754
3.0,0.07065413892269135
4.0,0.06928273290395737
5.0,0.06798627227544785
6.0,0.06670695543289185
7.0,0.06548535823822021
8.0,0.06430108100175858
9.0,0.06319554150104523
10.0,0.06214241310954094
11.0,0.061089612543582916
12.0,0.060037851333618164
13.0,0.05901443958282471
14.0,0.05796986445784569
15.0,0.056981250643730164
16.0,0.05603358894586563
18.0,0.0542815662920475
20.0,0.052687712013721466
22.0,0.05123480036854744
24.0,0.04984475299715996
26.0,0.0484873428940773
28.0,0.04727727174758911
30.0,0.046149104833602905
32.0,0.045135498046875
36.0,0.043189194053411484
40.0,0.0414346382021904
44.0,0.03984319418668747
48.0,0.03813471645116806
52.0,0.036349862813949585
56.0,0.034568145871162415
60.0,0.032990433275699615
64.0,0.031860463321208954
72.0,0.030342649668455124
80.0,0.028944574296474457
88.0,0.026913978159427643
96.0,0.024597059935331345
104.0,0.02226613089442253
112.0,0.02112688310444355
120.0,0.021132994443178177
128.0,0.020840974524617195
144.0,0.01846727542579174
160.0,0.016697537153959274
176.0,0.014907420612871647
192.0,0.012967036105692387
208.0,0.012014001607894897
224.0,0.01199816633015871
240.0,0.012445630505681038
256.0,0.012627433985471725
288.0,0.009644041769206524
320.0,0.005349655169993639
352.0,0.0005093570798635483
384.0,0.000738827046006918
416.0,0.0037595820613205433
448.0,0.00448139663785696
480.0,0.0014086274895817041
512.0,0.0015219583874568343
576.0,-0.00017815566388890147
640.0,0.00014643292524851859
704.0,0.001194262527860701
768.0,0.002390644745901227
832.0,0.0018311061430722475
896.0,0.0073643215000629425
960.0,0.009947485290467739
1024.0,0.0044595105573534966
1152.0,6.576214946107939e-05
1280.0,-0.0005261186161078513
1408.0,-0.0027461019344627857
1536.0,-0.0022547401022166014
1664.0,-0.00016368215437978506
1792.0,0.003088881028816104
1920.0,0.005130353383719921
2048.0,-0.0017577260732650757
2304.0,-0.006589978933334351
2560.0,-0.00859292596578598
2816.0,-0.0019740897696465254
3072.0,-0.002284309593960643
3328.0,-0.013112128712236881
3584.0,-0.013174086809158325
3840.0,-0.0003476209531072527
4096.0,0.0009282235405407846
4608.0,-0.00032318319426849484
5120.0,-0.007113047409802675
5632.0,-0.0005619219737127423
6144.0,0.0010476227616891265
6656.0,0.005141818430274725
7168.0,0.0009277058998122811
7680.0,0.007531444076448679
8192.0,0.01048555038869381
end
