version,3.0
numOfCh,1
type,point
parent_name,c1204_0dot2-0dot1
ch_type,1_1
kcount,1
numberNandB,1
brightnessNandB,1
carpet pos,0
pc,0
Time (ms),CH1 Auto-Correlation
1.0,0.06503631174564362
2.0,0.06362325698137283
3.0,0.06229051202535629
4.0,0.060975152999162674
5.0,0.05971154198050499
6.0,0.058535199612379074
7.0,0.05740790814161301
8.0,0.056305836886167526
9.0,0.05527918040752411
10.0,0.05426870658993721
11.0,0.053312063217163086
12.0,0.05240646377205849
13.0,0.05151745304465294
14.0,0.050644345581531525
15.0,0.04983927309513092
16.0,0.04910782724618912
18.0,0.04776794835925102
20.0,0.04658769816160202
22.0,0.04547061026096344
24.0,0.04438776150345802
26.0,0.04332398995757103
28.0,0.04222190007567406
30.0,0.04110269993543625
32.0,0.040047820657491684
36.0,0.037997856736183167
40.0,0.03602398559451103
44.0,0.034164201468229294
48.0,0.03245279937982559
52.0,0.031019961461424828
56.0,0.029544509947299957
60.0,0.027782432734966278
64.0,0.026140764355659485
72.0,0.023436523973941803
80.0,0.021080216392874718
88.0,0.01838727295398712
96.0,0.016043098643422127
104.0,0.014187460765242577
112.0,0.012761449441313744
120.0,0.011221474967896938
128.0,0.009624018333852291
144.0,0.007665588520467281
160.0,0.006863042246550322
176.0,0.0066237058490514755
192.0,0.007075207773596048
208.0,0.006088418886065483
224.0,0.004587207455188036
240.0,0.004561414010822773
256.0,0.004570789635181427
288.0,0.0035026585683226585
320.0,0.0034660757519304752
352.0,0.002607660833746195
384.0,0.004054206423461437
416.0,0.0070648398250341415
448.0,0.006582956295460463
480.0,0.002831659046933055
512.0,0.0004966763081029058
576.0,-0.0025006546638906
640.0,-0.0008657441940158606
704.0,0.002481902251020074
768.0,0.0005781567888334394
832.0,0.0008060792461037636
896.0,0.005859570112079382
960.0,0.005422274582087994
1024.0,0.00025016782456077635
1152.0,-0.004919946659356356
1280.0,-0.006528072524815798
1408.0,-0.011705024167895317
1536.0,-0.010032950900495052
1664.0,-0.008814623579382896
1792.0,-0.007311733905225992
1920.0,-0.005412515252828598
2048.0,0.00043845156324096024
2304.0,-0.00011106619786005467
2560.0,0.002792290411889553
2816.0,0.007728475611656904
3072.0,0.006618385668843985
3328.0,0.0024827441666275263
3584.0,-0.0005848781438544393
3840.0,0.0012776682851836085
4096.0,-0.007292223162949085
4608.0,-0.01046108640730381
5120.0,-0.00196768157184124
5632.0,0.0004762278404086828
6144.0,0.008323642425239086
6656.0,0.002879164880141616
7168.0,-0.002243294147774577
7680.0,-0.0026044566184282303
8192.0,-0.004451599903404713
end
