version,3.0
numOfCh,1
type,point
parent_name,34766_0dot1-1dot0
ch_type,1_1
kcount,1
numberNandB,1
brightnessNandB,1
carpet pos,0
pc,0
Time (ms),CH1 Auto-Correlation
1.0,0.028679082170128822
2.0,0.028278112411499023
3.0,0.027900535613298416
4.0,0.027528174221515656
5.0,0.027177873998880386
6.0,0.02682005986571312
7.0,0.026471594348549843
8.0,0.02612793818116188
9.0,0.02577405795454979
10.0,0.02543368935585022
11.0,0.025111591443419456
12.0,0.02479693293571472
13.0,0.024487389251589775
14.0,0.024177242070436478
15.0,0.02387627400457859
16.0,0.02358269691467285
18.0,0.022997256368398666
20.0,0.022434793412685394
22.0,0.021892931312322617
24.0,0.021368319168686867
26.0,0.020847270265221596
28.0,0.020345967262983322
30.0,0.019865311682224274
32.0,0.01942525990307331
36.0,0.01857435330748558
40.0,0.017766637727618217
44.0,0.01696663163602352
48.0,0.016200922429561615
52.0,0.01550425123423338
56.0,0.014883005060255527
60.0,0.014340318739414215
64.0,0.013855758123099804
72.0,0.012954652309417725
80.0,0.012166759930551052
88.0,0.011525127105414867
96.0,0.010980693623423576
104.0,0.010479416698217392
112.0,0.009942715056240559
120.0,0.009459300898015499
128.0,0.008938221260905266
144.0,0.007720713037997484
160.0,0.006461907643824816
176.0,0.0054708365350961685
192.0,0.004423816688358784
208.0,0.0036387525033205748
224.0,0.0032427834812551737
240.0,0.002641276689246297
256.0,0.0019015109864994884
288.0,6.737271178280935e-05
320.0,-0.0006302192923612893
352.0,-0.0005466972943395376
384.0,-3.715861021191813e-05
416.0,0.00028014028794132173
448.0,0.0005114238010719419
480.0,0.0008959287661127746
512.0,0.0008648009388707578
576.0,0.0017047638539224863
640.0,0.0035089077427983284
704.0,0.004633298609405756
768.0,0.005206673871725798
832.0,0.002877758350223303
896.0,0.0015913373790681362
960.0,0.0010136266937479377
1024.0,0.0001784424384823069
1152.0,0.0008260025642812252
1280.0,0.0027273574378341436
1408.0,0.0029397052712738514
1536.0,-0.0014955652877688408
1664.0,-0.003867857391014695
1792.0,-0.002817249856889248
1920.0,-0.003407045966014266
2048.0,-0.0018841505516320467
2304.0,-0.0027885681483894587
2560.0,-0.0020600748248398304
2816.0,-0.0023085109423846006
3072.0,-0.0030623001512140036
3328.0,-0.004155444446951151
3584.0,-0.002364963758736849
3840.0,-0.0044159903191030025
4096.0,0.000256352563155815
4608.0,-0.00025576926418580115
5120.0,0.0029940097592771053
5632.0,0.0022943730000406504
6144.0,0.002160170814022422
6656.0,0.0005151531659066677
7168.0,-0.0006950638489797711
7680.0,-0.0010623271809890866
8192.0,-0.0024858468677848577
end
