version,3.0
numOfCh,1
type,point
parent_name,34766_0dot1-1dot0
ch_type,1_1
kcount,1
numberNandB,1
brightnessNandB,1
carpet pos,0
pc,0
Time (ms),CH1 Auto-Correlation
1.0,0.04118918254971504
2.0,0.04065941274166107
3.0,0.04016713798046112
4.0,0.03973153606057167
5.0,0.039322592318058014
6.0,0.038907382637262344
7.0,0.03848616033792496
8.0,0.038092974573373795
9.0,0.03772265836596489
10.0,0.03735148534178734
11.0,0.03698042407631874
12.0,0.03661137446761131
13.0,0.03623853623867035
14.0,0.035875752568244934
15.0,0.03552093729376793
16.0,0.0351804718375206
18.0,0.03453052416443825
20.0,0.033903464674949646
22.0,0.03328150510787964
24.0,0.03266692906618118
26.0,0.032088905572891235
28.0,0.03153909742832184
30.0,0.03100118786096573
32.0,0.03044549934566021
36.0,0.029405636712908745
40.0,0.028414783999323845
44.0,0.027515729889273643
48.0,0.026723524555563927
52.0,0.02598509006202221
56.0,0.025393866002559662
60.0,0.024918207898736
64.0,0.02450638636946678
72.0,0.023779399693012238
80.0,0.023169346153736115
88.0,0.022529784590005875
96.0,0.021811718121170998
104.0,0.02108854614198208
112.0,0.020359916612505913
120.0,0.019690576940774918
128.0,0.019039101898670197
144.0,0.017520494759082794
160.0,0.01598549820482731
176.0,0.015003697015345097
192.0,0.014599146321415901
208.0,0.014145159162580967
224.0,0.013823351822793484
240.0,0.01300718542188406
256.0,0.011784300208091736
288.0,0.010312528349459171
320.0,0.00988798774778843
352.0,0.009662065654993057
384.0,0.008838720619678497
416.0,0.00880466215312481
448.0,0.009630109183490276
480.0,0.009725918993353844
512.0,0.009827361442148685
576.0,0.009152423590421677
640.0,0.007693827152252197
704.0,0.006943815387785435
768.0,0.00546298548579216
832.0,0.004741665441542864
896.0,0.004935970529913902
960.0,0.003981472458690405
1024.0,0.0024534333497285843
1152.0,0.0010036332532763481
1280.0,0.0037479386664927006
1408.0,0.0055604916997253895
1536.0,0.004891260527074337
1664.0,0.003937058616429567
1792.0,0.003945414442569017
1920.0,0.005851517431437969
2048.0,0.006390518043190241
2304.0,0.005215573124587536
2560.0,0.005812276620417833
2816.0,0.006864511873573065
3072.0,0.003395959734916687
3328.0,0.006090662442147732
3584.0,0.003543510567396879
3840.0,0.0004265832540113479
4096.0,-0.004578523337841034
4608.0,-0.006024799309670925
5120.0,-0.003105090232565999
5632.0,-0.003420343855395913
6144.0,-0.005275395233184099
6656.0,-0.004355862271040678
7168.0,-0.008515661582350731
7680.0,-0.011656686663627625
8192.0,-0.011367915198206902
end
