version,3.0
numOfCh,1
type,point
parent_name,34766_0dot1-1dot0
ch_type,1_1
kcount,1
numberNandB,1
brightnessNandB,1
carpet pos,0
pc,0
Time (ms),CH1 Auto-Correlation
1.0,0.048846933990716934
2.0,0.04836636409163475
3.0,0.047903887927532196
4.0,0.04746925085783005
5.0,0.04703774303197861
6.0,0.04661698266863823
7.0,0.04623726010322571
8.0,0.045848384499549866
9.0,0.04546692967414856
10.0,0.04511719197034836
11.0,0.044776737689971924
12.0,0.044432397931814194
13.0,0.04409363120794296
14.0,0.043760184198617935
15.0,0.04343394935131073
16.0,0.043108731508255005
18.0,0.042464349418878555
20.0,0.0418117456138134
22.0,0.041177112609148026
24.0,0.04057585448026657
26.0,0.04001146927475929
28.0,0.039458490908145905
30.0,0.03889062628149986
32.0,0.03830535337328911
36.0,0.037213586270809174
40.0,0.03622148558497429
44.0,0.03535236790776253
48.0,0.03453711420297623
52.0,0.03375069051980972
56.0,0.032987769693136215
60.0,0.03228934481739998
64.0,0.03156326711177826
72.0,0.03010745905339718
80.0,0.02865300513803959
88.0,0.027282312512397766
96.0,0.02608272060751915
104.0,0.024962319061160088
112.0,0.02375127375125885
120.0,0.022711368277668953
128.0,0.021693428978323936
144.0,0.019631752744317055
160.0,0.01723739132285118
176.0,0.0152260921895504
192.0,0.01391649805009365
208.0,0.013047472573816776
224.0,0.012502646073698997
240.0,0.012030032463371754
256.0,0.011366571299731731
288.0,0.010001705959439278
320.0,0.008824612945318222
352.0,0.007822060026228428
384.0,0.008225237019360065
416.0,0.008960417471826077
448.0,0.009091127663850784
480.0,0.009373338893055916
512.0,0.00895053893327713
576.0,0.008205469697713852
640.0,0.00603232067078352
704.0,0.00585763668641448
768.0,0.004227886442095041
832.0,0.001479060621932149
896.0,-0.00015574402641505003
960.0,0.0006281546666286886
1024.0,0.0007329244981519878
1152.0,-0.001325660035945475
1280.0,-0.0015195582527667284
1408.0,0.0014825845137238503
1536.0,0.00022733375953976065
1664.0,-0.0027675731107592583
1792.0,-0.0018337215296924114
1920.0,-0.0035473115276545286
2048.0,-0.003116765758022666
2304.0,-0.001493153627961874
2560.0,-0.0031848466023802757
2816.0,0.002631276845932007
3072.0,0.0033346342388540506
3328.0,0.00275591854006052
3584.0,0.008335672318935394
3840.0,0.0040147555992007256
4096.0,0.0024942432064563036
4608.0,0.001310971681959927
5120.0,0.006947178393602371
5632.0,-0.0032735043205320835
6144.0,-0.003594154492020607
6656.0,-0.0028331433422863483
7168.0,-0.00996004045009613
7680.0,-0.009919414296746254
8192.0,0.006582361180335283
end
