version,3.0
numOfCh,1
type,point
parent_name,34766_0dot1-1dot0
ch_type,1_1
kcount,1
numberNandB,1
brightnessNandB,1
carpet pos,0
pc,0
Time (ms),CH1 Auto-Correlation
1.0,0.03587736189365387
2.0,0.03536205366253853
3.0,0.0348605252802372
4.0,0.034464724361896515
5.0,0.03402953967452049
6.0,0.03367942199110985
7.0,0.033323973417282104
8.0,0.03293487802147865
9.0,0.032570235431194305
10.0,0.03221533074975014
11.0,0.03188354894518852
12.0,0.031549546867609024
13.0,0.03119346685707569
14.0,0.030852574855089188
15.0,0.030512934550642967
16.0,0.030194256454706192
18.0,0.029594972729682922
20.0,0.0290384404361248
22.0,0.0284699946641922
24.0,0.02793431095778942
26.0,0.02737272158265114
28.0,0.02686052769422531
30.0,0.026389656588435173
32.0,0.025934873148798943
36.0,0.024997901171445847
40.0,0.024145539849996567
44.0,0.023373983800411224
48.0,0.022680560126900673
52.0,0.021979844197630882
56.0,0.02127499133348465
60.0,0.02058180421590805
64.0,0.019866222515702248
72.0,0.018686413764953613
80.0,0.017517948523163795
88.0,0.016474029049277306
96.0,0.015628498047590256
104.0,0.014901358634233475
112.0,0.014259724877774715
120.0,0.013741396367549896
128.0,0.013307707384228706
144.0,0.012598550878465176
160.0,0.012008938007056713
176.0,0.011509119533002377
192.0,0.011057962663471699
208.0,0.010713567957282066
224.0,0.010256598703563213
240.0,0.009712131693959236
256.0,0.008929870091378689
288.0,0.008011927828192711
320.0,0.007461742963641882
352.0,0.007794419769197702
384.0,0.007258303463459015
416.0,0.006494852714240551
448.0,0.0059097628109157085
480.0,0.0054729292169213295
512.0,0.005403328686952591
576.0,0.004240569658577442
640.0,0.003726382041350007
704.0,0.0030677153263241053
768.0,0.0027605844661593437
832.0,0.002144163940101862
896.0,0.0023469701409339905
960.0,0.0027183922939002514
1024.0,0.004775473847985268
1152.0,0.002518369583413005
1280.0,0.00048419489758089185
1408.0,-0.00034107096143998206
1536.0,0.0008680409519001842
1664.0,0.0009539723978377879
1792.0,0.0013680689735338092
1920.0,0.00022358547721523792
2048.0,0.0006822019349783659
2304.0,0.0021303812973201275
2560.0,0.0009603647631593049
2816.0,0.000342402869137004
3072.0,-0.0022269582841545343
3328.0,-0.0023994313087314367
3584.0,-0.002866683527827263
3840.0,-0.005922473035752773
4096.0,-0.008476268500089645
4608.0,-0.00622398778796196
5120.0,-0.00211317534558475
5632.0,-0.003077944042161107
6144.0,-0.0014161920407786965
6656.0,-0.0011124974116683006
7168.0,0.00021523056784644723
7680.0,0.002801657421514392
8192.0,0.0035501234233379364
end
