version,3.0
numOfCh,1
type,point
parent_name,34766_0dot1-1dot0
ch_type,1_1
kcount,1
numberNandB,1
brightnessNandB,1
carpet pos,0
pc,0
Time (ms),CH1 Auto-Correlation
1.0,0.04106070101261139
2.0,0.04054045304656029
3.0,0.040040407329797745
4.0,0.039579764008522034
5.0,0.03915964066982269
6.0,0.03876331448554993
7.0,0.03838435932993889
8.0,0.038002949208021164
9.0,0.037629012018442154
10.0,0.03729044273495674
11.0,0.0369298942387104
12.0,0.03658028692007065
13.0,0.03625308349728584
14.0,0.03591601923108101
15.0,0.0356098935008049
16.0,0.03529882803559303
18.0,0.03467772156000137
20.0,0.034080322831869125
22.0,0.03346244990825653
24.0,0.03287307173013687
26.0,0.03229460492730141
28.0,0.03176174685359001
30.0,0.031276583671569824
32.0,0.030780719593167305
36.0,0.029904982075095177
40.0,0.02911112830042839
44.0,0.028242213651537895
48.0,0.027388788759708405
52.0,0.02655857615172863
56.0,0.025762423872947693
60.0,0.025044642388820648
64.0,0.024417268112301826
72.0,0.0233293566852808
80.0,0.022264329716563225
88.0,0.02119487337768078
96.0,0.020322266966104507
104.0,0.019681958481669426
112.0,0.019148336723446846
120.0,0.018791351467370987
128.0,0.01834343932569027
144.0,0.017371000722050667
160.0,0.016622645780444145
176.0,0.016010720282793045
192.0,0.01534469984471798
208.0,0.014507207088172436
224.0,0.013845032081007957
240.0,0.013392217457294464
256.0,0.01291357446461916
288.0,0.012401619926095009
320.0,0.0110810911282897
352.0,0.009563754312694073
384.0,0.009273043833673
416.0,0.009389678947627544
448.0,0.009948057122528553
480.0,0.010129353031516075
512.0,0.0097850626334548
576.0,0.009726336225867271
640.0,0.009550870396196842
704.0,0.008271001279354095
768.0,0.006809319835156202
832.0,0.006190686486661434
896.0,0.005901050753891468
960.0,0.005754396785050631
1024.0,0.005852859001606703
1152.0,0.0063452585600316525
1280.0,0.005846261512488127
1408.0,0.005569473374634981
1536.0,0.006654452532529831
1664.0,0.006738975178450346
1792.0,0.00693479785695672
1920.0,0.004791021812707186
2048.0,0.004047825932502747
2304.0,0.007642539218068123
2560.0,0.00430397829040885
2816.0,0.004449894651770592
3072.0,0.003958587069064379
3328.0,0.005063067190349102
3584.0,0.0039370181038975716
3840.0,0.004129353910684586
4096.0,0.002937527373433113
4608.0,-0.0016508219996467233
5120.0,-9.902767487801611e-05
5632.0,-0.0009296335047110915
6144.0,-0.0014067776501178741
6656.0,0.00017009391740430146
7168.0,-0.003974958322942257
7680.0,-0.005166033748537302
8192.0,-0.009824754670262337
end
