version,3.0
numOfCh,1
type,point
parent_name,34766_0dot1-1dot0
ch_type,1_1
kcount,1
numberNandB,1
brightnessNandB,1
carpet pos,0
pc,0
Time (ms),CH1 Auto-Correlation
1.0,0.04354478791356087
2.0,0.04310976713895798
3.0,0.0427124910056591
4.0,0.04233763739466667
5.0,0.04198702052235603
6.0,0.041648466140031815
7.0,0.04131459444761276
8.0,0.040998831391334534
9.0,0.04068782553076744
10.0,0.04037505015730858
11.0,0.04006117582321167
12.0,0.039764899760484695
13.0,0.039478227496147156
14.0,0.039193253964185715
15.0,0.03889956697821617
16.0,0.03863361477851868
18.0,0.0381222739815712
20.0,0.03760140761733055
22.0,0.03711289167404175
24.0,0.036638423800468445
26.0,0.03619227185845375
28.0,0.0357821099460125
30.0,0.03538545221090317
32.0,0.03499196842312813
36.0,0.03425668552517891
40.0,0.033580005168914795
44.0,0.032909292727708817
48.0,0.03224676102399826
52.0,0.03159049153327942
56.0,0.030992964282631874
60.0,0.03037722408771515
64.0,0.029712339863181114
72.0,0.028551479801535606
80.0,0.027482975274324417
88.0,0.02650614082813263
96.0,0.02556578814983368
104.0,0.02461414597928524
112.0,0.023822173476219177
120.0,0.02315613441169262
128.0,0.02250787615776062
144.0,0.02123269997537136
160.0,0.020075581967830658
176.0,0.01927282102406025
192.0,0.018724601715803146
208.0,0.017915327101945877
224.0,0.017120083793997765
240.0,0.016244716942310333
256.0,0.015686159953475
288.0,0.014676855877041817
320.0,0.013263759203255177
352.0,0.012102684937417507
384.0,0.010996175929903984
416.0,0.01104374136775732
448.0,0.011441546492278576
480.0,0.01209152303636074
512.0,0.012301880866289139
576.0,0.012161582708358765
640.0,0.010790491476655006
704.0,0.009272056631743908
768.0,0.0064756968058645725
832.0,0.0029243824537843466
896.0,0.0003150674165226519
960.0,-0.0007057350594550371
1024.0,-0.0001897967595141381
1152.0,0.0003825770108960569
1280.0,0.002130099106580019
1408.0,-0.00016799962031655014
1536.0,-0.004813392646610737
1664.0,-0.007385173346847296
1792.0,-0.006363506428897381
1920.0,-0.006034836173057556
2048.0,-0.007255278527736664
2304.0,-0.012257354333996773
2560.0,-0.009959486313164234
2816.0,-0.010219292715191841
3072.0,-0.006621037144213915
3328.0,-0.0049173664301633835
3584.0,-0.0008444598643109202
3840.0,0.002718405332416296
4096.0,0.006458825431764126
4608.0,0.008392301388084888
5120.0,0.0050107333809137344
5632.0,0.006032855249941349
6144.0,0.002141093136742711
6656.0,-0.011538181453943253
7168.0,-0.01002070028334856
7680.0,-0.011475063860416412
8192.0,-0.005103523842990398
end
