version,3.0
numOfCh,1
type,point
parent_name,34766_0dot1-1dot0
ch_type,1_1
kcount,1
numberNandB,1
brightnessNandB,1
carpet pos,0
pc,0
Time (ms),CH1 Auto-Correlation
1.0,0.03501225635409355
2.0,0.03451953083276749
3.0,0.03408335521817207
4.0,0.03365786373615265
5.0,0.033266663551330566
6.0,0.03290587291121483
7.0,0.03253019601106644
8.0,0.032174307852983475
9.0,0.03181856870651245
10.0,0.03144718334078789
11.0,0.03107907436788082
12.0,0.030741984024643898
13.0,0.030392423272132874
14.0,0.030058881267905235
15.0,0.029727274551987648
16.0,0.02939818799495697
18.0,0.02879122644662857
20.0,0.02818719670176506
22.0,0.02760700136423111
24.0,0.027051931247115135
26.0,0.026493720710277557
28.0,0.02595052309334278
30.0,0.025427240878343582
32.0,0.02493072673678398
36.0,0.02397991716861725
40.0,0.023067260161042213
44.0,0.02225053496658802
48.0,0.021474944427609444
52.0,0.020731866359710693
56.0,0.0199813861399889
60.0,0.01929236203432083
64.0,0.018621765077114105
72.0,0.01732812263071537
80.0,0.016298724338412285
88.0,0.015563784167170525
96.0,0.01502428948879242
104.0,0.014535751193761826
112.0,0.014007658697664738
120.0,0.013400271534919739
128.0,0.012701923958957195
144.0,0.011057860217988491
160.0,0.00942699983716011
176.0,0.00843559205532074
192.0,0.007827198132872581
208.0,0.007312465459108353
224.0,0.006887820083647966
240.0,0.006380641832947731
256.0,0.005588297266513109
288.0,0.0043091606348752975
320.0,0.0031029125675559044
352.0,0.0018657183973118663
384.0,0.0008435972267761827
416.0,-0.00018239433120470494
448.0,-0.00041034386958926916
480.0,-0.0002906757581513375
512.0,-7.057469338178635e-05
576.0,-0.000925459957215935
640.0,-0.00045920428237877786
704.0,9.213366865878925e-05
768.0,0.0012522218748927116
832.0,0.0018471232615411282
896.0,0.003410299774259329
960.0,0.004002735484391451
1024.0,0.0028897998854517937
1152.0,0.0017964126309379935
1280.0,-0.0008013336337171495
1408.0,-7.723445742158219e-05
1536.0,0.0033328584395349026
1664.0,0.0027318005450069904
1792.0,0.001642633113078773
1920.0,-0.0005158443818800151
2048.0,-0.0020085605792701244
2304.0,-0.0031202207319438457
2560.0,0.0013883038191124797
2816.0,-0.0033064207527786493
3072.0,-0.0010579221416264772
3328.0,0.00020660612790379673
3584.0,0.002271246397867799
3840.0,-0.0024091526865959167
4096.0,-6.249512080103159e-05
4608.0,0.0009047379135154188
5120.0,-0.007111289072781801
5632.0,-0.0018583390628919005
6144.0,-0.0007440369809046388
6656.0,-0.0006682706880383193
7168.0,-0.0031674832571297884
7680.0,-0.0001454284501960501
8192.0,0.006424927152693272
end
