version,3.0
numOfCh,1
type,point
parent_name,34766_0dot1-1dot0
ch_type,1_1
kcount,1
numberNandB,1
brightnessNandB,1
carpet pos,0
pc,0
Time (ms),CH1 Auto-Correlation
1.0,0.03897315636277199
2.0,0.038503050804138184
3.0,0.03806304559111595
4.0,0.037652142345905304
5.0,0.03725631907582283
6.0,0.03687845915555954
7.0,0.03650980442762375
8.0,0.03615845739841461
9.0,0.0358167327940464
10.0,0.03547084704041481
11.0,0.03515380993485451
12.0,0.03483740612864494
13.0,0.03453332930803299
14.0,0.03422452136874199
15.0,0.03393130376935005
16.0,0.03365384414792061
18.0,0.03309772536158562
20.0,0.03253534808754921
22.0,0.031990837305784225
24.0,0.031486112624406815
26.0,0.030982472002506256
28.0,0.03046237863600254
30.0,0.02996932342648506
32.0,0.02949976548552513
36.0,0.028514288365840912
40.0,0.027608821168541908
44.0,0.026774795725941658
48.0,0.026021292433142662
52.0,0.025317849591374397
56.0,0.024677332490682602
60.0,0.024018635973334312
64.0,0.023419633507728577
72.0,0.022135242819786072
80.0,0.020758671686053276
88.0,0.019398756325244904
96.0,0.018048543483018875
104.0,0.01681208238005638
112.0,0.015887998044490814
120.0,0.015209577977657318
128.0,0.01464726123958826
144.0,0.01352805644273758
160.0,0.012396346777677536
176.0,0.01138152927160263
192.0,0.010492406785488129
208.0,0.009720170870423317
224.0,0.008820203132927418
240.0,0.007874762639403343
256.0,0.006854222621768713
288.0,0.005700708832591772
320.0,0.0051974281668663025
352.0,0.0050908480770885944
384.0,0.005107057746499777
416.0,0.005737328436225653
448.0,0.0052702962420880795
480.0,0.0044998060911893845
512.0,0.003919443115592003
576.0,0.0035297453869134188
640.0,0.0013296013930812478
704.0,-0.001368443830870092
768.0,-0.0033893627114593983
832.0,-0.005070901941508055
896.0,-0.0046034278348088264
960.0,-0.004319838713854551
1024.0,-0.0036961629521101713
1152.0,-0.0004724551981780678
1280.0,-0.0009825880406424403
1408.0,-0.0021936811972409487
1536.0,-0.0006194921443238854
1664.0,0.0030713104642927647
1792.0,0.004238152876496315
1920.0,0.002724672434851527
2048.0,0.0014478749362751842
2304.0,0.0013353234389796853
2560.0,-5.883261110284366e-05
2816.0,-0.0021660092752426863
3072.0,-0.003557204268872738
3328.0,-0.0032773304264992476
3584.0,-0.0014573256485164165
3840.0,-0.0010236112866550684
4096.0,-0.003731726435944438
4608.0,-0.006517424248158932
5120.0,-0.0038628652691841125
5632.0,-0.001473855460062623
6144.0,0.0009001401485875249
6656.0,-0.0010897181928157806
7168.0,-0.0032631116919219494
7680.0,0.0024659631308168173
8192.0,0.0034144865348935127
end
