version,3.0
numOfCh,1
type,point
parent_name,34766_0dot1-1dot0
ch_type,1_1
kcount,1
numberNandB,1
brightnessNandB,1
carpet pos,0
pc,0
Time (ms),CH1 Auto-Correlation
1.0,0.03661499172449112
2.0,0.036153048276901245
3.0,0.035719823092222214
4.0,0.03531450778245926
5.0,0.034932058304548264
6.0,0.03456612303853035
7.0,0.03421027213335037
8.0,0.0338582880795002
9.0,0.03352703899145126
10.0,0.03319360688328743
11.0,0.03286806493997574
12.0,0.032553430646657944
13.0,0.03223741427063942
14.0,0.031943660229444504
15.0,0.031653691083192825
16.0,0.0313667431473732
18.0,0.03078351356089115
20.0,0.030223634093999863
22.0,0.02968704327940941
24.0,0.029170094057917595
26.0,0.02868463471531868
28.0,0.028208650648593903
30.0,0.027759652584791183
32.0,0.027324359863996506
36.0,0.02643638290464878
40.0,0.025632496923208237
44.0,0.024843376129865646
48.0,0.02404572255909443
52.0,0.023227252066135406
56.0,0.022417720407247543
60.0,0.021740229800343513
64.0,0.021082142367959023
72.0,0.020015448331832886
80.0,0.01894545555114746
88.0,0.01794755831360817
96.0,0.016966335475444794
104.0,0.015930194407701492
112.0,0.015048437751829624
120.0,0.014370117336511612
128.0,0.013730043545365334
144.0,0.012280338443815708
160.0,0.010702410712838173
176.0,0.009091631509363651
192.0,0.007754018064588308
208.0,0.0067022196017205715
224.0,0.005960612092167139
240.0,0.005140505265444517
256.0,0.004540207330137491
288.0,0.0037120869383215904
320.0,0.0029829773120582104
352.0,0.0025673923082649708
384.0,0.002254006452858448
416.0,0.001538979820907116
448.0,0.001395485014654696
480.0,0.0019028338138014078
512.0,0.00286860391497612
576.0,0.0036344598047435284
640.0,0.002102546626701951
704.0,0.0009594394359737635
768.0,0.0007148192380554974
832.0,-0.0011435324558988214
896.0,-0.0029708603397011757
960.0,-0.003648489946499467
1024.0,-0.004223151598125696
1152.0,-0.006109385751187801
1280.0,-0.007508057169616222
1408.0,-0.006342487409710884
1536.0,-0.005769116338342428
1664.0,-0.004525491502135992
1792.0,-0.0015340420650318265
1920.0,-0.003006056183949113
2048.0,-0.0029668030329048634
2304.0,0.00010864179057534784
2560.0,0.0016979302745312452
2816.0,0.003915698267519474
3072.0,0.0020849884022027254
3328.0,0.0007029880653135478
3584.0,0.0005991710349917412
3840.0,0.0014204082544893026
4096.0,-0.0005094708176329732
4608.0,0.0010234403889626265
5120.0,0.0026957266964018345
5632.0,0.0002986321924254298
6144.0,-0.0011040150420740247
6656.0,-0.0033090191427618265
7168.0,-0.007926635444164276
7680.0,-0.0008832344319671392
8192.0,0.00552715128287673
end
