version,3.0
numOfCh,1
type,point
parent_name,34766_0dot1-1dot0
ch_type,1_1
kcount,1
numberNandB,1
brightnessNandB,1
carpet pos,0
pc,0
Time (ms),CH1 Auto-Correlation
1.0,0.03697868809103966
2.0,0.03648533672094345
3.0,0.03604708984494209
4.0,0.03563065454363823
5.0,0.03525342047214508
6.0,0.03488738834857941
7.0,0.03452333062887192
8.0,0.034177690744400024
9.0,0.03384143114089966
10.0,0.033502403646707535
11.0,0.03318178653717041
12.0,0.032869018614292145
13.0,0.03253404051065445
14.0,0.0322108156979084
15.0,0.03189413622021675
16.0,0.031582657247781754
18.0,0.03095533326268196
20.0,0.030364075675606728
22.0,0.029820697382092476
24.0,0.029289251193404198
26.0,0.02877749130129814
28.0,0.0282646082341671
30.0,0.02776387333869934
32.0,0.0273060891777277
36.0,0.026439061388373375
40.0,0.025612305849790573
44.0,0.024823438376188278
48.0,0.024030650034546852
52.0,0.02329503558576107
56.0,0.02254306524991989
60.0,0.02181393653154373
64.0,0.021118072792887688
72.0,0.019950827583670616
80.0,0.019020898267626762
88.0,0.018250569701194763
96.0,0.017420833930373192
104.0,0.016529714688658714
112.0,0.015583314001560211
120.0,0.014752581715583801
128.0,0.014146116562187672
144.0,0.013491134159266949
160.0,0.012876867316663265
176.0,0.012115622870624065
192.0,0.011387483216822147
208.0,0.010546879842877388
224.0,0.009750034660100937
240.0,0.009096886962652206
256.0,0.008496620692312717
288.0,0.007646739017218351
320.0,0.007160444278270006
352.0,0.006924987304955721
384.0,0.005423715338110924
416.0,0.0043191262520849705
448.0,0.003974374383687973
480.0,0.004215043503791094
512.0,0.005321599077433348
576.0,0.006419922690838575
640.0,0.005865138489753008
704.0,0.005770237650722265
768.0,0.005734709091484547
832.0,0.005333564709872007
896.0,0.004402294289320707
960.0,0.003672108519822359
1024.0,0.003491896204650402
1152.0,0.004740463104099035
1280.0,-0.000163388074724935
1408.0,-0.001200376427732408
1536.0,-0.0011423450196161866
1664.0,-8.653768600197509e-05
1792.0,0.0006250649457797408
1920.0,-0.0010534459725022316
2048.0,2.9242959499242716e-05
2304.0,0.00046386750182136893
2560.0,-0.0008517131791450083
2816.0,0.0032565617002546787
3072.0,-0.0005908888415433466
3328.0,-0.0048165228217840195
3584.0,-0.00014301732880994678
3840.0,-0.0013368282234296203
4096.0,-0.004110261332243681
4608.0,0.0008286014781333506
5120.0,-0.0010858775349333882
5632.0,-0.004194255452603102
6144.0,-0.008296651765704155
6656.0,-0.005863705184310675
7168.0,-0.004802962299436331
7680.0,-0.003282468765974045
8192.0,-0.003010972635820508
end
