version,3.0
numOfCh,1
type,point
parent_name,34766_0dot1-1dot0
ch_type,1_1
kcount,1
numberNandB,1
brightnessNandB,1
carpet pos,0
pc,0
Time (ms),CH1 Auto-Correlation
1.0,0.04083510488271713
2.0,0.0403449572622776
3.0,0.03990764915943146
4.0,0.03949720785021782
5.0,0.03909597918391228
6.0,0.038712069392204285
7.0,0.03832455351948738
8.0,0.03795883059501648
9.0,0.03760746493935585
10.0,0.03725888580083847
11.0,0.03692910820245743
12.0,0.03661903738975525
13.0,0.036324065178632736
14.0,0.0360410138964653
15.0,0.03575935214757919
16.0,0.03549123927950859
18.0,0.03495949134230614
20.0,0.034463636577129364
22.0,0.03400973603129387
24.0,0.03359956666827202
26.0,0.03320219740271568
28.0,0.0328008197247982
30.0,0.03240359574556351
32.0,0.031999967992305756
36.0,0.03121217153966427
40.0,0.030465681105852127
44.0,0.02968105487525463
48.0,0.028864694759249687
52.0,0.028085757046937943
56.0,0.02738359570503235
60.0,0.026701411232352257
64.0,0.026046542450785637
72.0,0.024722423404455185
80.0,0.02345285192131996
88.0,0.02240871451795101
96.0,0.021634230390191078
104.0,0.020841188728809357
112.0,0.019946996122598648
120.0,0.019075550138950348
128.0,0.018229946494102478
144.0,0.016520153731107712
160.0,0.014979093335568905
176.0,0.013873690739274025
192.0,0.013028315268456936
208.0,0.011998754926025867
224.0,0.011279147118330002
240.0,0.010409772396087646
256.0,0.009379567578434944
288.0,0.007618467789143324
320.0,0.005935830995440483
352.0,0.003871745429933071
384.0,0.0023070673923939466
416.0,0.001442877110093832
448.0,0.0010104593820869923
480.0,0.001140796928666532
512.0,0.0014918596716597676
576.0,0.0026749817188829184
640.0,0.001758906408213079
704.0,6.265466072363779e-05
768.0,-0.0016891791019588709
832.0,-0.002511944156140089
896.0,-0.004814647138118744
960.0,-0.007658060640096664
1024.0,-0.008462079800665379
1152.0,-0.007587945554405451
1280.0,-0.00499360216781497
1408.0,-0.005103491246700287
1536.0,-0.0027473571244627237
1664.0,-0.0014407829148694873
1792.0,0.00047160376561805606
1920.0,0.002448362298309803
2048.0,0.004178703296929598
2304.0,0.0065760803408920765
2560.0,-0.0015366444131359458
2816.0,-0.004057828802615404
3072.0,-0.0017725159414112568
3328.0,-0.004267121199518442
3584.0,-0.0035224801395088434
3840.0,-0.005939740687608719
4096.0,-0.0013546491973102093
4608.0,-0.0012005044845864177
5120.0,0.0007844658102840185
5632.0,-0.0006223556119948626
6144.0,-0.003423264715820551
6656.0,0.0046932753175497055
7168.0,0.0033964551985263824
7680.0,-0.0011447930010035634
8192.0,-0.0024144852068275213
end
