version,3.0
numOfCh,1
type,point
parent_name,34766_0dot1-1dot0
ch_type,1_1
kcount,1
numberNandB,1
brightnessNandB,1
carpet pos,0
pc,0
Time (ms),CH1 Auto-Correlation
1.0,0.04965871572494507
2.0,0.049199286848306656
3.0,0.04876016825437546
4.0,0.04835912212729454
5.0,0.04797627031803131
6.0,0.047605961561203
7.0,0.04722347483038902
8.0,0.04687429592013359
9.0,0.04652838781476021
10.0,0.04618234932422638
11.0,0.04584487900137901
12.0,0.045507147908210754
13.0,0.04517875611782074
14.0,0.04484454169869423
15.0,0.04453163594007492
16.0,0.0442255474627018
18.0,0.04362763464450836
20.0,0.0430360846221447
22.0,0.042456138879060745
24.0,0.04187821224331856
26.0,0.04131943732500076
28.0,0.04078581929206848
30.0,0.040271252393722534
32.0,0.03976878151297569
36.0,0.038802988827228546
40.0,0.037901248782873154
44.0,0.03703230246901512
48.0,0.03620500862598419
52.0,0.035454198718070984
56.0,0.03475257754325867
60.0,0.034049417823553085
64.0,0.03338630124926567
72.0,0.0321553573012352
80.0,0.031091947108507156
88.0,0.03014388307929039
96.0,0.02911437302827835
104.0,0.02808608114719391
112.0,0.027152221649885178
120.0,0.026166697964072227
128.0,0.02517848275601864
144.0,0.02344125509262085
160.0,0.021799921989440918
176.0,0.020552603527903557
192.0,0.019879119470715523
208.0,0.019206639379262924
224.0,0.018325677141547203
240.0,0.017602015286684036
256.0,0.01692638359963894
288.0,0.01712886616587639
320.0,0.017093569040298462
352.0,0.016643797978758812
384.0,0.015849288552999496
416.0,0.01500978134572506
448.0,0.01317294780164957
480.0,0.010765725746750832
512.0,0.008802925236523151
576.0,0.004834380466490984
640.0,0.0025489144027233124
704.0,0.001194824930280447
768.0,0.001507112756371498
832.0,0.0026454005856066942
896.0,0.0014210620429366827
960.0,0.0017343135550618172
1024.0,0.0016206694999709725
1152.0,0.0013008997775614262
1280.0,0.0007785111083649099
1408.0,-0.00011131535575259477
1536.0,-0.00426578801125288
1664.0,-0.007194323930889368
1792.0,-0.006247940938919783
1920.0,-0.0052620116621255875
2048.0,-0.006571665406227112
2304.0,-0.0042331162840127945
2560.0,-0.0026916973292827606
2816.0,-0.006359671708196402
3072.0,-0.009179665707051754
3328.0,-0.009038068354129791
3584.0,-0.011469131335616112
3840.0,-0.007968279533088207
4096.0,-0.006503000855445862
4608.0,-0.0031942036002874374
5120.0,0.0037063625641167164
5632.0,0.008850929327309132
6144.0,0.0023633588571101427
6656.0,0.003775916760787368
7168.0,-0.006388996262103319
7680.0,-0.0022440613247454166
8192.0,0.0032852941658347845
end
