version,3.0
numOfCh,1
type,point
parent_name,34766_0dot1-1dot0
ch_type,1_1
kcount,1
numberNandB,1
brightnessNandB,1
carpet pos,0
pc,0
Time (ms),CH1 Auto-Correlation
1.0,0.0400349386036396
2.0,0.03962500020861626
3.0,0.039239898324012756
4.0,0.038873929530382156
5.0,0.03851405903697014
6.0,0.03816337138414383
7.0,0.037821266800165176
8.0,0.037485670298337936
9.0,0.03714040294289589
10.0,0.03680050000548363
11.0,0.03647172451019287
12.0,0.03615569695830345
13.0,0.03584511578083038
14.0,0.035539936274290085
15.0,0.03522428497672081
16.0,0.03491557016968727
18.0,0.03435073047876358
20.0,0.033797264099121094
22.0,0.03327305242419243
24.0,0.03277247026562691
26.0,0.032318416982889175
28.0,0.03187457099556923
30.0,0.0314217135310173
32.0,0.030972953885793686
36.0,0.030049797147512436
40.0,0.029140638187527657
44.0,0.028344392776489258
48.0,0.027600271627306938
52.0,0.026872826740145683
56.0,0.02616439387202263
60.0,0.02545882947742939
64.0,0.024759693071246147
72.0,0.023612812161445618
80.0,0.022602390497922897
88.0,0.02175128646194935
96.0,0.020985223352909088
104.0,0.020202139392495155
112.0,0.01944362372159958
120.0,0.018962932750582695
128.0,0.018603239208459854
144.0,0.017917003482580185
160.0,0.017370572313666344
176.0,0.016422264277935028
192.0,0.015717627480626106
208.0,0.015022561885416508
224.0,0.014452393166720867
240.0,0.013961514458060265
256.0,0.013493858277797699
288.0,0.01290495041757822
320.0,0.012067832984030247
352.0,0.011916224844753742
384.0,0.011605110950767994
416.0,0.010859436355531216
448.0,0.010879100300371647
480.0,0.010610582306981087
512.0,0.010402708314359188
576.0,0.00983861181885004
640.0,0.009662753902375698
704.0,0.007761860266327858
768.0,0.007412024307996035
832.0,0.006813862826675177
896.0,0.0064414311200380325
960.0,0.006696860771626234
1024.0,0.007766826078295708
1152.0,0.005909456871449947
1280.0,0.003020551986992359
1408.0,0.0024371349718421698
1536.0,0.003170176176354289
1664.0,0.003165688132867217
1792.0,-4.9948139348998666e-05
1920.0,-0.002111690351739526
2048.0,-0.004213070496916771
2304.0,-0.004119373857975006
2560.0,-0.0036918730475008488
2816.0,-0.004656135570257902
3072.0,-0.002664735075086355
3328.0,-0.0032954278867691755
3584.0,-0.004789460450410843
3840.0,-0.004160451702773571
4096.0,-0.0039815353229641914
4608.0,-0.0028796459082514048
5120.0,-0.005792395677417517
5632.0,-0.0002482608542777598
6144.0,0.005330303683876991
6656.0,0.0018145678332075477
7168.0,0.005201562307775021
7680.0,0.0064406744204461575
8192.0,0.002013617195188999
end
