version,3.0
numOfCh,1
type,point
parent_name,34766_0dot1-1dot0
ch_type,1_1
kcount,1
numberNandB,1
brightnessNandB,1
carpet pos,0
pc,0
Time (ms),CH1 Auto-Correlation
1.0,0.03585927188396454
2.0,0.035349663347005844
3.0,0.034920934587717056
4.0,0.034501899033784866
5.0,0.03407756984233856
6.0,0.03367999568581581
7.0,0.03327970206737518
8.0,0.03289056569337845
9.0,0.032536204904317856
10.0,0.03219733387231827
11.0,0.031850025057792664
12.0,0.0315202996134758
13.0,0.03122716024518013
14.0,0.030894212424755096
15.0,0.030561676248908043
16.0,0.030254364013671875
18.0,0.029647089540958405
20.0,0.029072705656290054
22.0,0.02850501425564289
24.0,0.02795584127306938
26.0,0.027416475117206573
28.0,0.026893548667430878
30.0,0.02641071379184723
32.0,0.025936676189303398
36.0,0.024983776733279228
40.0,0.024062002077698708
44.0,0.023108700290322304
48.0,0.022178996354341507
52.0,0.02132529951632023
56.0,0.02055303193628788
60.0,0.019826609641313553
64.0,0.019092081114649773
72.0,0.017729567363858223
80.0,0.016484655439853668
88.0,0.01546697411686182
96.0,0.01437426172196865
104.0,0.01327341515570879
112.0,0.012122420594096184
120.0,0.01100162323564291
128.0,0.010066219605505466
144.0,0.008258061483502388
160.0,0.006823110859841108
176.0,0.005693194456398487
192.0,0.004794711712747812
208.0,0.0036827465519309044
224.0,0.0029856362380087376
240.0,0.0024213106371462345
256.0,0.0019327962072566152
288.0,0.0022858057636767626
320.0,0.002934316173195839
352.0,0.0024021146818995476
384.0,0.0011720341863110662
416.0,0.00048655972932465374
448.0,0.0008139864658005536
480.0,0.0014346485259011388
512.0,0.0011027483269572258
576.0,0.0005905996658839285
640.0,0.001086502568796277
704.0,-0.0003501462342683226
768.0,-0.002439517993479967
832.0,-0.0018507636850699782
896.0,-0.0012442789738997817
960.0,-0.0008723122882656753
1024.0,-0.002741666277870536
1152.0,-0.005119487177580595
1280.0,-0.0016693787183612585
1408.0,-0.0011665719794109464
1536.0,-0.002550305798649788
1664.0,0.00016718078404664993
1792.0,-0.0006740407552570105
1920.0,-0.0013346971245482564
2048.0,-0.0012621469795703888
2304.0,-0.000902291969396174
2560.0,0.0026557953096926212
2816.0,0.0025617610663175583
3072.0,-0.0007551404414698482
3328.0,-0.003763974644243717
3584.0,-0.002023309236392379
3840.0,0.0017173029482364655
4096.0,-0.0010788876097649336
4608.0,-0.0020147990435361862
5120.0,0.00016537187912035733
5632.0,-0.0020782204810529947
6144.0,-0.004224691074341536
6656.0,0.0021930024959146976
7168.0,-0.0005418905639089644
7680.0,0.0005298367468640208
8192.0,0.005870484281331301
end
