version,3.0
numOfCh,1
type,point
parent_name,34766_0dot1-1dot0
ch_type,1_1
kcount,1
numberNandB,1
brightnessNandB,1
carpet pos,0
pc,0
Time (ms),CH1 Auto-Correlation
1.0,0.04272511601448059
2.0,0.042252495884895325
3.0,0.041819095611572266
4.0,0.04141987860202789
5.0,0.04104971885681152
6.0,0.04068835452198982
7.0,0.040344446897506714
8.0,0.03999779745936394
9.0,0.039664193987846375
10.0,0.03932851552963257
11.0,0.03896872699260712
12.0,0.038632046431303024
13.0,0.038293834775686264
14.0,0.03797326236963272
15.0,0.037655461579561234
16.0,0.03735584020614624
18.0,0.036779243499040604
20.0,0.03623316437005997
22.0,0.035720132291316986
24.0,0.035258807241916656
26.0,0.03480524197220802
28.0,0.03434557467699051
30.0,0.033906202763319016
32.0,0.03346802666783333
36.0,0.032721374183893204
40.0,0.03200434148311615
44.0,0.03126652166247368
48.0,0.030543161556124687
52.0,0.029853390529751778
56.0,0.029263382777571678
60.0,0.028721576556563377
64.0,0.02814829908311367
72.0,0.027140919119119644
80.0,0.026139825582504272
88.0,0.02512635663151741
96.0,0.024207739159464836
104.0,0.02340587042272091
112.0,0.022619735449552536
120.0,0.021830296143889427
128.0,0.021045232191681862
144.0,0.019573703408241272
160.0,0.018221182748675346
176.0,0.017310528084635735
192.0,0.01660538837313652
208.0,0.015713341534137726
224.0,0.01503390446305275
240.0,0.014901713468134403
256.0,0.014682920649647713
288.0,0.014349627308547497
320.0,0.01393034216016531
352.0,0.013556196354329586
384.0,0.012398861348628998
416.0,0.01090342178940773
448.0,0.009701133705675602
480.0,0.008258931338787079
512.0,0.0072858333587646484
576.0,0.007261473219841719
640.0,0.006807825993746519
704.0,0.0057010953314602375
768.0,0.005635151639580727
832.0,0.006141522899270058
896.0,0.005716884043067694
960.0,0.006062453147023916
1024.0,0.004435702692717314
1152.0,0.0010174998315051198
1280.0,0.001228967565111816
1408.0,0.0033749511931091547
1536.0,0.00460444763302803
1664.0,0.00686171418055892
1792.0,0.007367468439042568
1920.0,0.008885311894118786
2048.0,0.010125932283699512
2304.0,0.008080110885202885
2560.0,0.006081650499254465
2816.0,0.005699940025806427
3072.0,0.004276679828763008
3328.0,-0.004018594976514578
3584.0,-0.008800475858151913
3840.0,-0.0061050402000546455
4096.0,-0.0026979101821780205
4608.0,-0.002964490093290806
5120.0,0.0012125549837946892
5632.0,-0.009450397454202175
6144.0,-0.007903115823864937
6656.0,-0.009880063124001026
7168.0,-0.001243249629624188
7680.0,-0.0018520838348194957
8192.0,-0.0029668952338397503
end
