version,3.0
numOfCh,1
type,point
parent_name,34766_0dot1-1dot0
ch_type,1_1
kcount,1
numberNandB,1
brightnessNandB,1
carpet pos,0
pc,0
Time (ms),CH1 Auto-Correlation
1.0,0.04207621514797211
2.0,0.04160157963633537
3.0,0.04115656390786171
4.0,0.04074358940124512
5.0,0.0403539203107357
6.0,0.039984382688999176
7.0,0.03960417956113815
8.0,0.0392252653837204
9.0,0.03886100649833679
10.0,0.038500670343637466
11.0,0.03815469518303871
12.0,0.037822019308805466
13.0,0.0374884232878685
14.0,0.037183985114097595
15.0,0.036891352385282516
16.0,0.03660568967461586
18.0,0.036036547273397446
20.0,0.0354805625975132
22.0,0.0349452830851078
24.0,0.03440730646252632
26.0,0.0338544026017189
28.0,0.033312827348709106
30.0,0.032785214483737946
32.0,0.032284945249557495
36.0,0.031350065022706985
40.0,0.03048187680542469
44.0,0.02965071238577366
48.0,0.028858844190835953
52.0,0.028141815215349197
56.0,0.027405159547924995
60.0,0.02675343118607998
64.0,0.026185786351561546
72.0,0.02520967274904251
80.0,0.024451185017824173
88.0,0.023733802139759064
96.0,0.02311168797314167
104.0,0.022504495456814766
112.0,0.021927010267972946
120.0,0.02136196568608284
128.0,0.02082168124616146
144.0,0.020009223371744156
160.0,0.01912718452513218
176.0,0.018106428906321526
192.0,0.017115304246544838
208.0,0.016335539519786835
224.0,0.01570631004869938
240.0,0.0152818588539958
256.0,0.01456577517092228
288.0,0.01298424694687128
320.0,0.011645345017313957
352.0,0.011274190619587898
384.0,0.01135758776217699
416.0,0.010598809458315372
448.0,0.009113335981965065
480.0,0.008268047124147415
512.0,0.007053239271044731
576.0,0.005086496472358704
640.0,0.004360003862529993
704.0,0.00619061104953289
768.0,0.008524791337549686
832.0,0.008377564139664173
896.0,0.008655601181089878
960.0,0.009772359393537045
1024.0,0.010443908162415028
1152.0,0.011042661033570766
1280.0,0.009646681137382984
1408.0,0.004842969123274088
1536.0,0.00379745289683342
1664.0,0.0030611110851168633
1792.0,0.0013742923038080335
1920.0,0.0020299360621720552
2048.0,0.0016646746080368757
2304.0,0.00227782572619617
2560.0,0.002377955475822091
2816.0,-0.0011130223283544183
3072.0,-0.003905198536813259
3328.0,-0.0033440564293414354
3584.0,-0.0025426289066672325
3840.0,-0.008052336052060127
4096.0,-0.013325844891369343
4608.0,-0.006699266377836466
5120.0,-0.011148598976433277
5632.0,-0.008058713749051094
6144.0,-0.011421453207731247
6656.0,-0.0025597268249839544
7168.0,-0.0015782391419634223
7680.0,-0.0005066463490948081
8192.0,0.005214349832385778
end
