version,3.0
numOfCh,1
type,point
parent_name,34766_0dot1-1dot0
ch_type,1_1
kcount,1
numberNandB,1
brightnessNandB,1
carpet pos,0
pc,0
Time (ms),CH1 Auto-Correlation
1.0,0.043090108782052994
2.0,0.04257078468799591
3.0,0.04206240922212601
4.0,0.04159775748848915
5.0,0.04116886854171753
6.0,0.04076192528009415
7.0,0.04036211222410202
8.0,0.039982087910175323
9.0,0.03961729258298874
10.0,0.03925907239317894
11.0,0.03889762610197067
12.0,0.038533709943294525
13.0,0.03818582370877266
14.0,0.03785744309425354
15.0,0.03752485662698746
16.0,0.037196800112724304
18.0,0.03653871268033981
20.0,0.035911671817302704
22.0,0.03530944138765335
24.0,0.03476523607969284
26.0,0.03427465632557869
28.0,0.03380454704165459
30.0,0.0333130806684494
32.0,0.032809652388095856
36.0,0.031803373247385025
40.0,0.03087828867137432
44.0,0.0300404392182827
48.0,0.029189582914114
52.0,0.028337663039565086
56.0,0.027491535991430283
60.0,0.02674938552081585
64.0,0.02601126953959465
72.0,0.02471858821809292
80.0,0.02361302264034748
88.0,0.022555386647582054
96.0,0.021482346579432487
104.0,0.020588573068380356
112.0,0.01993437297642231
120.0,0.01939365081489086
128.0,0.018880095332860947
144.0,0.017552992329001427
160.0,0.016433095559477806
176.0,0.015264100395143032
192.0,0.014222994446754456
208.0,0.013154036365449429
224.0,0.012500103563070297
240.0,0.011946256272494793
256.0,0.011627023108303547
288.0,0.011538179591298103
320.0,0.01127653568983078
352.0,0.010068068280816078
384.0,0.008096268400549889
416.0,0.008020356297492981
448.0,0.007486533373594284
480.0,0.0067902617156505585
512.0,0.006837225519120693
576.0,0.00847735907882452
640.0,0.008562847040593624
704.0,0.007528580259531736
768.0,0.006605440750718117
832.0,0.006884947884827852
896.0,0.004746659658849239
960.0,0.003592556808143854
1024.0,0.0013144082622602582
1152.0,-0.0009280715021304786
1280.0,-0.0019027242669835687
1408.0,-0.003720169886946678
1536.0,-0.00411854637786746
1664.0,-0.004077751189470291
1792.0,-0.0070787579752504826
1920.0,-0.008169508539140224
2048.0,-0.005995390936732292
2304.0,-0.009150782600045204
2560.0,-0.010366625152528286
2816.0,-0.008461492136120796
3072.0,-0.005882893223315477
3328.0,-0.000171844003489241
3584.0,0.0019357666606083512
3840.0,0.0012891530059278011
4096.0,0.00274309772066772
4608.0,0.003166534937918186
5120.0,-0.00048537596012465656
5632.0,-0.006782179232686758
6144.0,-0.008154202252626419
6656.0,-0.006478496361523867
7168.0,-0.0004700481367763132
7680.0,0.007162630092352629
8192.0,0.013350123539566994
end
