version,3.0
numOfCh,1
type,point
parent_name,34766_0dot1-1dot0
ch_type,1_1
kcount,1
numberNandB,1
brightnessNandB,1
carpet pos,0
pc,0
Time (ms),CH1 Auto-Correlation
1.0,0.04172671586275101
2.0,0.041285257786512375
3.0,0.04085901752114296
4.0,0.04044365510344505
5.0,0.040046803653240204
6.0,0.03966949135065079
7.0,0.0393083393573761
8.0,0.03894777595996857
9.0,0.03860410302877426
10.0,0.03826165944337845
11.0,0.0379171259701252
12.0,0.037581540644168854
13.0,0.03723909333348274
14.0,0.03689365088939667
15.0,0.036563508212566376
16.0,0.0362287200987339
18.0,0.035553496330976486
20.0,0.03488614037632942
22.0,0.03425143286585808
24.0,0.033662695437669754
26.0,0.033108942210674286
28.0,0.03254467993974686
30.0,0.03196851164102554
32.0,0.03139796108007431
36.0,0.030369631946086884
40.0,0.029441405087709427
44.0,0.028542978689074516
48.0,0.027681555598974228
52.0,0.02687852457165718
56.0,0.026163890957832336
60.0,0.025483712553977966
64.0,0.024866584688425064
72.0,0.02366930991411209
80.0,0.02269381284713745
88.0,0.021802322939038277
96.0,0.021018119528889656
104.0,0.02015301026403904
112.0,0.01943374052643776
120.0,0.018778229132294655
128.0,0.01809592731297016
144.0,0.016979973763227463
160.0,0.015771953389048576
176.0,0.014418278820812702
192.0,0.012758373282849789
208.0,0.011070644482970238
224.0,0.009260967373847961
240.0,0.007557831704616547
256.0,0.006213817745447159
288.0,0.003965985495597124
320.0,0.002325206995010376
352.0,0.00046897021820768714
384.0,-0.00035007932456210256
416.0,0.00031322549330070615
448.0,0.0010236395755782723
480.0,0.0010621703695505857
512.0,0.00021593645215034485
576.0,-0.0011021284153684974
640.0,-0.00046150325215421617
704.0,-0.0019803426694124937
768.0,-0.004444244783371687
832.0,-0.006396554876118898
896.0,-0.007993821986019611
960.0,-0.007060708943754435
1024.0,-0.00591951934620738
1152.0,-0.003631634172052145
1280.0,-0.0014150214847177267
1408.0,-0.002637832658365369
1536.0,-0.0021349764429032803
1664.0,-0.00013473960279952735
1792.0,0.00019763228192459792
1920.0,-0.00018863521108869463
2048.0,-0.0010195141658186913
2304.0,-0.0011892389738932252
2560.0,-0.0034026294015347958
2816.0,-0.004671233240514994
3072.0,-0.0014233849942684174
3328.0,-0.003717286279425025
3584.0,-0.002614533295854926
3840.0,-0.001959711080417037
4096.0,0.0008323893998749554
4608.0,0.005296546500176191
5120.0,-0.004382417071610689
5632.0,0.0002788715937640518
6144.0,0.002546892734244466
6656.0,0.003993465565145016
7168.0,-0.0011005711276084185
7680.0,0.004833281971514225
8192.0,0.002400484401732683
end
