version,3.0
numOfCh,1
type,point
parent_name,34766_0dot1-1dot0
ch_type,1_1
kcount,1
numberNandB,1
brightnessNandB,1
carpet pos,0
pc,0
Time (ms),CH1 Auto-Correlation
1.0,0.048959434032440186
2.0,0.04840090498328209
3.0,0.047876086086034775
4.0,0.04739305377006531
5.0,0.04693904146552086
6.0,0.04651342332363129
7.0,0.04609318822622299
8.0,0.04570586979389191
9.0,0.045330725610256195
10.0,0.04493633285164833
11.0,0.04455649480223656
12.0,0.04418681561946869
13.0,0.04383868724107742
14.0,0.043481744825839996
15.0,0.04314468428492546
16.0,0.042792484164237976
18.0,0.042136237025260925
20.0,0.04153940826654434
22.0,0.04094197228550911
24.0,0.040386948734521866
26.0,0.03979206457734108
28.0,0.03925050422549248
30.0,0.03874165192246437
32.0,0.038259394466876984
36.0,0.03732031211256981
40.0,0.036357052624225616
44.0,0.03543258085846901
48.0,0.03453435003757477
52.0,0.03371695429086685
56.0,0.03293019160628319
60.0,0.032166384160518646
64.0,0.0314028300344944
72.0,0.029995586723089218
80.0,0.02879679575562477
88.0,0.02749669924378395
96.0,0.02629229426383972
104.0,0.025306835770606995
112.0,0.024518277496099472
120.0,0.02373853325843811
128.0,0.02296963334083557
144.0,0.021549377590417862
160.0,0.020092858001589775
176.0,0.019047178328037262
192.0,0.018245289102196693
208.0,0.01731356792151928
224.0,0.01596502587199211
240.0,0.014599595218896866
256.0,0.01372891291975975
288.0,0.012244489043951035
320.0,0.011406606063246727
352.0,0.010193124413490295
384.0,0.008932664059102535
416.0,0.008464628830552101
448.0,0.007016683463007212
480.0,0.004872067831456661
512.0,0.002134162001311779
576.0,-0.0016670904587954283
640.0,-0.0030721579678356647
704.0,-0.004638816229999065
768.0,-0.0057412488386034966
832.0,-0.006153803318738937
896.0,-0.005852434318512678
960.0,-0.005683249328285456
1024.0,-0.005318820010870695
1152.0,-0.004437743686139584
1280.0,-0.005143928807228804
1408.0,-0.0055973585695028305
1536.0,-0.002479405840858817
1664.0,0.00016186348511837423
1792.0,0.0027239597402513027
1920.0,0.006499777548015118
2048.0,0.00743643194437027
2304.0,0.004005852155387402
2560.0,0.0010408594971522689
2816.0,-0.002335663652047515
3072.0,-0.005577260162681341
3328.0,-0.007428898476064205
3584.0,-0.002370464149862528
3840.0,0.005411863327026367
4096.0,0.0035354222636669874
4608.0,-0.0016645063878968358
5120.0,0.0013064215891063213
5632.0,-0.005182469729334116
6144.0,-0.003496879944577813
6656.0,0.002521105110645294
7168.0,0.005189128685742617
7680.0,0.0011272192932665348
8192.0,-0.010300789959728718
end
