version,3.0
numOfCh,1
type,point
parent_name,34766_0dot1-1dot0
ch_type,1_1
kcount,1
numberNandB,1
brightnessNandB,1
carpet pos,0
pc,0
Time (ms),CH1 Auto-Correlation
1.0,0.0394270196557045
2.0,0.03892989829182625
3.0,0.038471631705760956
4.0,0.038034796714782715
5.0,0.03763461112976074
6.0,0.037260908633470535
7.0,0.03692419081926346
8.0,0.03659877926111221
9.0,0.03627481684088707
10.0,0.03593800961971283
11.0,0.03560913726687431
12.0,0.03529273346066475
13.0,0.03498917445540428
14.0,0.034662604331970215
15.0,0.034336455166339874
16.0,0.03404003009200096
18.0,0.033418215811252594
20.0,0.032812442630529404
22.0,0.03225191682577133
24.0,0.03173571452498436
26.0,0.031226443126797676
28.0,0.030731692910194397
30.0,0.03024909272789955
32.0,0.029767487198114395
36.0,0.028759988024830818
40.0,0.027849527075886726
44.0,0.026932595297694206
48.0,0.02602722868323326
52.0,0.02527388371527195
56.0,0.024523843079805374
60.0,0.023813212290406227
64.0,0.02314840629696846
72.0,0.021939335390925407
80.0,0.0208261851221323
88.0,0.01970490999519825
96.0,0.01874949224293232
104.0,0.01787653937935829
112.0,0.01715729385614395
120.0,0.016418226063251495
128.0,0.015864837914705276
144.0,0.01485670916736126
160.0,0.013758748769760132
176.0,0.01262855064123869
192.0,0.011566810309886932
208.0,0.011141962371766567
224.0,0.010680032894015312
240.0,0.01020739134401083
256.0,0.010104082524776459
288.0,0.009855689480900764
320.0,0.009264010936021805
352.0,0.007888016290962696
384.0,0.006437611300498247
416.0,0.005487981252372265
448.0,0.004073344636708498
480.0,0.0026728096418082714
512.0,0.001350331585854292
576.0,0.001500376034528017
640.0,0.0017924968851730227
704.0,0.003308622632175684
768.0,0.004234149120748043
832.0,0.00369023228995502
896.0,0.002263033762574196
960.0,0.0019228102173656225
1024.0,0.004349851980805397
1152.0,0.005544373299926519
1280.0,0.00475974241271615
1408.0,0.006231693085283041
1536.0,0.0036026379093527794
1664.0,0.0008424855186603963
1792.0,-0.0008941892883740366
1920.0,-0.0007105096010491252
2048.0,0.002067416673526168
2304.0,-0.0002596094273030758
2560.0,-0.0035619733389467
2816.0,-0.00693119689822197
3072.0,-0.008329100906848907
3328.0,-0.007162107620388269
3584.0,-0.0046021584421396255
3840.0,-0.006007605232298374
4096.0,-0.008205918595194817
4608.0,-0.004030815325677395
5120.0,-0.005304218735545874
5632.0,-0.00438322639092803
6144.0,0.0030475016683340073
6656.0,0.0027514887042343616
7168.0,0.007127312943339348
7680.0,0.0037535622250288725
8192.0,0.006587672512978315
end
