version,3.0
numOfCh,1
type,point
parent_name,34766_0dot1-1dot0
ch_type,1_1
kcount,1
numberNandB,1
brightnessNandB,1
carpet pos,0
pc,0
Time (ms),CH1 Auto-Correlation
1.0,0.04000753536820412
2.0,0.03955092653632164
3.0,0.03913413733243942
4.0,0.038728080689907074
5.0,0.038309454917907715
6.0,0.03791504353284836
7.0,0.03752598538994789
8.0,0.03715120628476143
9.0,0.03678455948829651
10.0,0.03643382713198662
11.0,0.036098696291446686
12.0,0.035765331238508224
13.0,0.03542882576584816
14.0,0.035100243985652924
15.0,0.034774959087371826
16.0,0.03444452956318855
18.0,0.03381446748971939
20.0,0.033231403678655624
22.0,0.032675135880708694
24.0,0.0321643240749836
26.0,0.03165120258927345
28.0,0.031133554875850677
30.0,0.030595527961850166
32.0,0.030061762779951096
36.0,0.029048951342701912
40.0,0.028094319626688957
44.0,0.027192646637558937
48.0,0.026263050734996796
52.0,0.025348376482725143
56.0,0.024441158398985863
60.0,0.0235332902520895
64.0,0.02261120080947876
72.0,0.02088778093457222
80.0,0.019342796877026558
88.0,0.017972558736801147
96.0,0.01666758954524994
104.0,0.015375155955553055
112.0,0.014160143211483955
120.0,0.012980548664927483
128.0,0.011967763304710388
144.0,0.009972961619496346
160.0,0.008320385590195656
176.0,0.006966680288314819
192.0,0.005885214079171419
208.0,0.004771384410560131
224.0,0.0037979334592819214
240.0,0.0029975527431815863
256.0,0.002642157720401883
288.0,0.002624100772663951
320.0,0.0023184262681752443
352.0,0.0016357711283490062
384.0,0.0014477585209533572
416.0,0.0016412542900070548
448.0,0.0018107077339664102
480.0,0.002528273966163397
512.0,0.0023613623343408108
576.0,0.0013172433245927095
640.0,0.0009651678265072405
704.0,0.0017522387206554413
768.0,0.00253605586476624
832.0,0.0016443468630313873
896.0,0.00034195207990705967
960.0,0.0015737628564238548
1024.0,0.003856149036437273
1152.0,0.007401568349450827
1280.0,0.006886075250804424
1408.0,0.0004323917964939028
1536.0,-0.0005314256413839757
1664.0,-0.0001859026524471119
1792.0,1.7260616004932672e-05
1920.0,-0.002379097044467926
2048.0,-0.003302733413875103
2304.0,0.0008951820200309157
2560.0,9.339900861959904e-05
2816.0,-0.00329322530888021
3072.0,-0.0013161516981199384
3328.0,-0.00590666476637125
3584.0,9.613212023396045e-05
3840.0,0.002226528013125062
4096.0,-0.003171232296153903
4608.0,-0.0014147667679935694
5120.0,-0.0017633837414905429
5632.0,-0.0023094622883945704
6144.0,-0.004390951246023178
6656.0,0.000314369477564469
7168.0,-0.003221659455448389
7680.0,-0.0014901135582476854
8192.0,0.002479114104062319
end
