version,3.0
numOfCh,1
type,point
parent_name,34766_0dot1-1dot0
ch_type,1_1
kcount,1
numberNandB,1
brightnessNandB,1
carpet pos,0
pc,0
Time (ms),CH1 Auto-Correlation
1.0,0.03815200924873352
2.0,0.03770068287849426
3.0,0.037271998822689056
4.0,0.03685200586915016
5.0,0.03644691780209541
6.0,0.036034632474184036
7.0,0.03562718257308006
8.0,0.03523894026875496
9.0,0.034858014434576035
10.0,0.03448830172419548
11.0,0.034133099019527435
12.0,0.033787649124860764
13.0,0.033449046313762665
14.0,0.0331110917031765
15.0,0.03278017044067383
16.0,0.03245806321501732
18.0,0.03183746710419655
20.0,0.031238358467817307
22.0,0.030672039836645126
24.0,0.03013685904443264
26.0,0.029641959816217422
28.0,0.029176998883485794
30.0,0.02874053828418255
32.0,0.028298597782850266
36.0,0.02740406058728695
40.0,0.026526914909482002
44.0,0.025702644139528275
48.0,0.024947423487901688
52.0,0.024282358586788177
56.0,0.023641541600227356
60.0,0.023048533126711845
64.0,0.02252241037786007
72.0,0.021336033940315247
80.0,0.019999338313937187
88.0,0.018875522539019585
96.0,0.017975563183426857
104.0,0.01697135716676712
112.0,0.01599031314253807
120.0,0.015188873745501041
128.0,0.014266636222600937
144.0,0.01228404138237238
160.0,0.010676638223230839
176.0,0.009964360855519772
192.0,0.009331128560006618
208.0,0.008708414621651173
224.0,0.008164196275174618
240.0,0.00732911704108119
256.0,0.006315266713500023
288.0,0.005509995389729738
320.0,0.0053108809515833855
352.0,0.004873376339673996
384.0,0.0045632594265043736
416.0,0.005280723329633474
448.0,0.005452312994748354
480.0,0.004278892185539007
512.0,0.0019272270146757364
576.0,-0.0009850646601989865
640.0,-0.0009880515281111002
704.0,0.00014649017248302698
768.0,0.0026119782123714685
832.0,0.0035130183678120375
896.0,0.004285682924091816
960.0,0.002629335969686508
1024.0,0.0021813956554979086
1152.0,0.003439375665038824
1280.0,0.0012076543644070625
1408.0,-0.0013415907742455602
1536.0,-0.0031620217487215996
1664.0,0.00010945531539618969
1792.0,0.0013665705919265747
1920.0,0.0021964965853840113
2048.0,0.0018869071500375867
2304.0,-0.00016958014748524874
2560.0,-0.002842654474079609
2816.0,-4.3209387513343245e-05
3072.0,-0.0008859739755280316
3328.0,-0.0009792802156880498
3584.0,0.00477046612650156
3840.0,0.0070287687703967094
4096.0,0.00607160571962595
4608.0,-0.0017424054676666856
5120.0,-0.0011146216420456767
5632.0,-0.0021783302072435617
6144.0,-0.009179182350635529
6656.0,-0.007795089855790138
7168.0,-0.0054046595469117165
7680.0,0.0006649444112554193
8192.0,0.0002408138389000669
end
