version,3.0
numOfCh,1
type,point
parent_name,34766_0dot1-1dot0
ch_type,1_1
kcount,1
numberNandB,1
brightnessNandB,1
carpet pos,0
pc,0
Time (ms),CH1 Auto-Correlation
1.0,0.04042433202266693
2.0,0.03986038640141487
3.0,0.03935040906071663
4.0,0.038870710879564285
5.0,0.03842897713184357
6.0,0.03798297047615051
7.0,0.03753490746021271
8.0,0.03710683807730675
9.0,0.036711063235998154
10.0,0.036329738795757294
11.0,0.03597443923354149
12.0,0.03561102971434593
13.0,0.03525746986269951
14.0,0.034910887479782104
15.0,0.034552499651908875
16.0,0.034205883741378784
18.0,0.03353185951709747
20.0,0.03292085975408554
22.0,0.03237231820821762
24.0,0.03185437619686127
26.0,0.031329669058322906
28.0,0.03085389733314514
30.0,0.030353734269738197
32.0,0.029862700030207634
36.0,0.028961841017007828
40.0,0.028071066364645958
44.0,0.02718476392328739
48.0,0.02635858952999115
52.0,0.02555258758366108
56.0,0.0247001014649868
60.0,0.02390269935131073
64.0,0.023115552961826324
72.0,0.021473240107297897
80.0,0.019938871264457703
88.0,0.018395505845546722
96.0,0.016928598284721375
104.0,0.015585294924676418
112.0,0.014421719126403332
120.0,0.013379507698118687
128.0,0.012538369745016098
144.0,0.011013250797986984
160.0,0.009597822092473507
176.0,0.008861366659402847
192.0,0.008098688907921314
208.0,0.007244273088872433
224.0,0.006386139430105686
240.0,0.005820315796881914
256.0,0.0054051619954407215
288.0,0.004510390572249889
320.0,0.003355215536430478
352.0,0.0013339404249563813
384.0,-0.0010817809961736202
416.0,-0.002208953257650137
448.0,-0.0027522083837538958
480.0,-0.0032132724300026894
512.0,-0.0032833132427185774
576.0,-0.003751093987375498
640.0,-0.004048712085932493
704.0,-0.0015383473364636302
768.0,0.0006062121829017997
832.0,0.0014043760020285845
896.0,0.0021568904630839825
960.0,0.002088346052914858
1024.0,0.0006211966974660754
1152.0,-0.000867774710059166
1280.0,-0.005189418792724609
1408.0,-0.008611084893345833
1536.0,-0.007372310385107994
1664.0,-0.004216158762574196
1792.0,-0.001021794625557959
1920.0,-0.0006544071366079152
2048.0,-0.0015696375630795956
2304.0,0.0021422510035336018
2560.0,0.002511067781597376
2816.0,6.08534028287977e-05
3072.0,-0.00019537903426680714
3328.0,0.0015577392186969519
3584.0,-0.0017391465371474624
3840.0,-0.0006686057313345373
4096.0,0.0012666917173191905
4608.0,-0.00010529252904234454
5120.0,-0.002389614935964346
5632.0,0.000796267413534224
6144.0,-0.004191766958683729
6656.0,-0.0016092028236016631
7168.0,0.0005862502148374915
7680.0,-0.0023512819316238165
8192.0,0.0017801515059545636
end
