version,3.0
numOfCh,1
type,point
parent_name,34766_0dot1-1dot0
ch_type,1_1
kcount,1
numberNandB,1
brightnessNandB,1
carpet pos,0
pc,0
Time (ms),CH1 Auto-Correlation
1.0,0.044926103204488754
2.0,0.04443950951099396
3.0,0.043983519077301025
4.0,0.043563831597566605
5.0,0.043154675513505936
6.0,0.04277387261390686
7.0,0.04241091012954712
8.0,0.042073123157024384
9.0,0.041733235120773315
10.0,0.041413839906454086
11.0,0.041108857840299606
12.0,0.04078848659992218
13.0,0.040466826409101486
14.0,0.040149539709091187
15.0,0.039827339351177216
16.0,0.03951285034418106
18.0,0.03890596702694893
20.0,0.038321271538734436
22.0,0.03775641322135925
24.0,0.037237498909235
26.0,0.036729078739881516
28.0,0.03621349111199379
30.0,0.03573137894272804
32.0,0.03528093546628952
36.0,0.03439559414982796
40.0,0.03346502408385277
44.0,0.032590944319963455
48.0,0.031756170094013214
52.0,0.03086506947875023
56.0,0.0300111286342144
60.0,0.0291821900755167
64.0,0.02846534177660942
72.0,0.027115074917674065
80.0,0.02598102018237114
88.0,0.02491479553282261
96.0,0.02381017617881298
104.0,0.022651463747024536
112.0,0.021560484543442726
120.0,0.020572682842612267
128.0,0.019639380276203156
144.0,0.01778152585029602
160.0,0.015817731618881226
176.0,0.014133619144558907
192.0,0.01255286019295454
208.0,0.011351900175213814
224.0,0.01052006334066391
240.0,0.009608888067305088
256.0,0.008922729641199112
288.0,0.007733184844255447
320.0,0.006785182747989893
352.0,0.006204145960509777
384.0,0.006120641715824604
416.0,0.0062454212456941605
448.0,0.005450815428048372
480.0,0.004363636486232281
512.0,0.0039891996420919895
576.0,0.002373208524659276
640.0,0.002462933771312237
704.0,0.0023669374641031027
768.0,0.002665415406227112
832.0,0.001774532487615943
896.0,0.0007551691960543394
960.0,0.002152232686057687
1024.0,0.003235461190342903
1152.0,0.004642965737730265
1280.0,0.002440627897158265
1408.0,0.0020391023717820644
1536.0,0.0027069493662565947
1664.0,5.6503922678530216e-05
1792.0,-0.0006335961516015232
1920.0,-6.754013884346932e-05
2048.0,-0.004301801789551973
2304.0,-0.008613462559878826
2560.0,-0.0046800184063613415
2816.0,-0.002282247180119157
3072.0,-0.003079519374296069
3328.0,-0.0015777380904182792
3584.0,-0.0052497005090117455
3840.0,-0.0053828414529562
4096.0,-0.0037029378581792116
4608.0,-0.002580083440989256
5120.0,0.0020289744716137648
5632.0,-0.007374859880656004
6144.0,0.0010904782684519887
6656.0,0.003528736298903823
7168.0,0.0010627831798046827
7680.0,0.007593728601932526
8192.0,0.004131397232413292
end
