version,3.0
numOfCh,1
type,point
parent_name,34766_0dot1-1dot0
ch_type,1_1
kcount,1
numberNandB,1
brightnessNandB,1
carpet pos,0
pc,0
Time (ms),CH1 Auto-Correlation
1.0,0.045505497604608536
2.0,0.044984303414821625
3.0,0.04449031874537468
4.0,0.04405323043465614
5.0,0.04364914074540138
6.0,0.0432591587305069
7.0,0.04289105907082558
8.0,0.04254676401615143
9.0,0.04223019629716873
10.0,0.041922859847545624
11.0,0.04162624850869179
12.0,0.0413200668990612
13.0,0.04102335870265961
14.0,0.04072045534849167
15.0,0.04041639715433121
16.0,0.040137503296136856
18.0,0.03959517553448677
20.0,0.039069171994924545
22.0,0.03854360431432724
24.0,0.03802325576543808
26.0,0.03754008561372757
28.0,0.037077438086271286
30.0,0.03663668408989906
32.0,0.036204107105731964
36.0,0.03532800078392029
40.0,0.03440229222178459
44.0,0.03353454917669296
48.0,0.03278054669499397
52.0,0.03211043030023575
56.0,0.03142467886209488
60.0,0.03078126348555088
64.0,0.03014984354376793
72.0,0.02901996672153473
80.0,0.02789938822388649
88.0,0.027098488062620163
96.0,0.026427756994962692
104.0,0.025663435459136963
112.0,0.024883421137928963
120.0,0.024189645424485207
128.0,0.0235183946788311
144.0,0.021996259689331055
160.0,0.0204040315002203
176.0,0.01873527467250824
192.0,0.016978494822978973
208.0,0.015740051865577698
224.0,0.015010621398687363
240.0,0.014187461696565151
256.0,0.012813940644264221
288.0,0.01041896641254425
320.0,0.008486422710120678
352.0,0.006698539946228266
384.0,0.005198003724217415
416.0,0.0035533520858734846
448.0,0.002037524478510022
480.0,0.001229238579981029
512.0,0.0008477506344206631
576.0,0.0004643186694011092
640.0,0.0009407452889718115
704.0,0.002693580463528633
768.0,0.0034623940009623766
832.0,0.002684785984456539
896.0,0.0009595539886504412
960.0,0.00047831799020059407
1024.0,0.0011699682800099254
1152.0,0.0014431553427129984
1280.0,-0.00028091296553611755
1408.0,0.0008801662479527295
1536.0,0.004360718186944723
1664.0,0.0091707119718194
1792.0,0.009665892459452152
1920.0,0.0078656654804945
2048.0,0.00323405466042459
2304.0,-0.0010143911931663752
2560.0,-0.0022142392117530107
2816.0,-0.00032760491012595594
3072.0,-0.0008522886200807989
3328.0,-0.0012995883589610457
3584.0,-0.0007658292888663709
3840.0,-0.006045852787792683
4096.0,-0.008479040116071701
4608.0,-0.010638030245900154
5120.0,-0.0062172431498765945
5632.0,-0.01001850888133049
6144.0,-0.0036729169078171253
6656.0,-0.003201144514605403
7168.0,-0.00483325868844986
7680.0,0.00017321633640676737
8192.0,0.006554133724421263
end
