version,3.0
numOfCh,1
type,point
parent_name,34766_0dot1-1dot0
ch_type,1_1
kcount,1
numberNandB,1
brightnessNandB,1
carpet pos,0
pc,0
Time (ms),CH1 Auto-Correlation
1.0,0.03860829025506973
2.0,0.03810856491327286
3.0,0.03764631226658821
4.0,0.03722092881798744
5.0,0.03683982044458389
6.0,0.03649239242076874
7.0,0.036130037158727646
8.0,0.0357823446393013
9.0,0.035441916435956955
10.0,0.03510216251015663
11.0,0.034775715321302414
12.0,0.034471891820430756
13.0,0.03418297320604324
14.0,0.03389681503176689
15.0,0.03361557051539421
16.0,0.03333640843629837
18.0,0.032787736505270004
20.0,0.03223871812224388
22.0,0.03173043951392174
24.0,0.03122633509337902
26.0,0.030736912041902542
28.0,0.030267484486103058
30.0,0.02978634461760521
32.0,0.02934252843260765
36.0,0.02852051891386509
40.0,0.027731627225875854
44.0,0.026939939707517624
48.0,0.026201117783784866
52.0,0.025566615164279938
56.0,0.025024954229593277
60.0,0.024533670395612717
64.0,0.024045947939157486
72.0,0.02288399450480938
80.0,0.021731995046138763
88.0,0.02069365233182907
96.0,0.0200340636074543
104.0,0.01963922381401062
112.0,0.019126545637845993
120.0,0.018644440919160843
128.0,0.01809893362224102
144.0,0.017408760264515877
160.0,0.016691943630576134
176.0,0.016376152634620667
192.0,0.015471266582608223
208.0,0.015082592144608498
224.0,0.014796949923038483
240.0,0.014046814292669296
256.0,0.013030074536800385
288.0,0.011515839025378227
320.0,0.010153046809136868
352.0,0.009260003454983234
384.0,0.008846267126500607
416.0,0.008062142878770828
448.0,0.006856955122202635
480.0,0.006128970999270678
512.0,0.006054468918591738
576.0,0.007386446930468082
640.0,0.008953113108873367
704.0,0.00877770222723484
768.0,0.008415416814386845
832.0,0.008369012735784054
896.0,0.006850749719887972
960.0,0.006337684113532305
1024.0,0.0052640400826931
1152.0,0.0037587808910757303
1280.0,0.0022003622725605965
1408.0,0.000953726761508733
1536.0,0.002095701638609171
1664.0,0.0030216085724532604
1792.0,0.005108339712023735
1920.0,0.005805217660963535
2048.0,0.007939442060887814
2304.0,0.003319025272503495
2560.0,-0.000508804980199784
2816.0,0.0009880083380267024
3072.0,-0.0057370588183403015
3328.0,-0.006892853416502476
3584.0,-0.006751273758709431
3840.0,-0.007728147320449352
4096.0,-0.006669051479548216
4608.0,-0.00869739055633545
5120.0,-0.012258799746632576
5632.0,-0.00904952920973301
6144.0,-0.005675171036273241
6656.0,-0.0001384864008286968
7168.0,-0.0026810583658516407
7680.0,-0.005781355779618025
8192.0,0.0019407583167776465
end
