version,3.0
numOfCh,1
type,point
parent_name,34766_0dot1-1dot0
ch_type,1_1
kcount,1
numberNandB,1
brightnessNandB,1
carpet pos,0
pc,0
Time (ms),CH1 Auto-Correlation
1.0,0.03828258812427521
2.0,0.03779666870832443
3.0,0.037361957132816315
4.0,0.03694268688559532
5.0,0.03656664863228798
6.0,0.03616907447576523
7.0,0.035805728286504745
8.0,0.03545046225190163
9.0,0.03511840105056763
10.0,0.03482648357748985
11.0,0.03451365604996681
12.0,0.03421356901526451
13.0,0.03391697630286217
14.0,0.033596307039260864
15.0,0.033279482275247574
16.0,0.032969310879707336
18.0,0.032346852123737335
20.0,0.03173438459634781
22.0,0.031135844066739082
24.0,0.03055023029446602
26.0,0.029951823875308037
28.0,0.029357945546507835
30.0,0.02879146672785282
32.0,0.028224550187587738
36.0,0.027260426431894302
40.0,0.02636561542749405
44.0,0.025509323924779892
48.0,0.024641340598464012
52.0,0.023819509893655777
56.0,0.023066872730851173
60.0,0.022292152047157288
64.0,0.02149849385023117
72.0,0.020147329196333885
80.0,0.018854323774576187
88.0,0.017806565389037132
96.0,0.0169318076223135
104.0,0.016205262392759323
112.0,0.015622543171048164
120.0,0.01508000772446394
128.0,0.014726589433848858
144.0,0.014242983423173428
160.0,0.013986680656671524
176.0,0.013612715527415276
192.0,0.013098521158099174
208.0,0.012621352449059486
224.0,0.012167002074420452
240.0,0.011393784545361996
256.0,0.010591325350105762
288.0,0.008511148393154144
320.0,0.007096868008375168
352.0,0.0061025009490549564
384.0,0.005273417104035616
416.0,0.0043097371235489845
448.0,0.004431995563209057
480.0,0.00448598200455308
512.0,0.00333220767788589
576.0,0.0012786913430318236
640.0,0.0019175794441252947
704.0,0.0031253027264028788
768.0,0.0025953962467610836
832.0,0.001918476540595293
896.0,0.0017898601945489645
960.0,0.0012550499523058534
1024.0,-0.0003265177656430751
1152.0,-0.0007734979153610766
1280.0,-0.002958767581731081
1408.0,-0.003886721096932888
1536.0,-0.00010660410043783486
1664.0,0.0012602966744452715
1792.0,0.0009247916168533266
1920.0,0.0006661866209469736
2048.0,0.0003423476009629667
2304.0,-0.00017545814625918865
2560.0,0.001230577821843326
2816.0,0.005992815364152193
3072.0,0.008455959148705006
3328.0,0.00769652146846056
3584.0,0.004491675179451704
3840.0,0.005026392173022032
4096.0,0.0008380832150578499
4608.0,-0.003755962708964944
5120.0,-0.0012209754204377532
5632.0,-0.0036756866611540318
6144.0,-0.0032386216334998608
6656.0,0.004064936190843582
7168.0,0.0009268823196180165
7680.0,-0.0058179269544780254
8192.0,-0.007074276451021433
end
