version,3.0
numOfCh,1
type,point
parent_name,34766_0dot1-1dot0
ch_type,1_1
kcount,1
numberNandB,1
brightnessNandB,1
carpet pos,0
pc,0
Time (ms),CH1 Auto-Correlation
1.0,0.039840489625930786
2.0,0.03937240689992905
3.0,0.03894537687301636
4.0,0.038546688854694366
5.0,0.038150642067193985
6.0,0.03776765242218971
7.0,0.03739465773105621
8.0,0.03704514354467392
9.0,0.036702338606119156
10.0,0.03638643026351929
11.0,0.036072712391614914
12.0,0.03577037900686264
13.0,0.03548246994614601
14.0,0.03519843891263008
15.0,0.03491872921586037
16.0,0.03465951606631279
18.0,0.03417295590043068
20.0,0.033673085272312164
22.0,0.03316369652748108
24.0,0.032666195183992386
26.0,0.03216370567679405
28.0,0.0316552072763443
30.0,0.031152378767728806
32.0,0.030678296461701393
36.0,0.029817678034305573
40.0,0.028950531035661697
44.0,0.028154633939266205
48.0,0.027425887063145638
52.0,0.02678614854812622
56.0,0.026125559583306313
60.0,0.02543269842863083
64.0,0.02476661093533039
72.0,0.023598933592438698
80.0,0.02272898145020008
88.0,0.022002169862389565
96.0,0.021286901086568832
104.0,0.0205853171646595
112.0,0.019945554435253143
120.0,0.01943071559071541
128.0,0.018818886950612068
144.0,0.017719557508826256
160.0,0.01670064404606819
176.0,0.015662064775824547
192.0,0.014971831813454628
208.0,0.014528551138937473
224.0,0.014225746504962444
240.0,0.014275675639510155
256.0,0.0142513457685709
288.0,0.013200636021792889
320.0,0.012460853904485703
352.0,0.011275778524577618
384.0,0.011074364185333252
416.0,0.010976908728480339
448.0,0.009850763715803623
480.0,0.009233742021024227
512.0,0.009244206361472607
576.0,0.010372339747846127
640.0,0.010210785083472729
704.0,0.008860195986926556
768.0,0.006702845450490713
832.0,0.005110817961394787
896.0,0.004832161124795675
960.0,0.005309303756803274
1024.0,0.005867992993444204
1152.0,0.005319620948284864
1280.0,0.005979881621897221
1408.0,0.004114075563848019
1536.0,0.0026664070319384336
1664.0,0.003284985665231943
1792.0,0.0011084727011620998
1920.0,0.0017730839317664504
2048.0,0.000386017287382856
2304.0,-0.0010298432316631079
2560.0,-0.0015655267052352428
2816.0,-0.00041758434963412583
3072.0,-0.0020485608838498592
3328.0,-0.0012858979171141982
3584.0,-0.002022665226832032
3840.0,-0.005272547248750925
4096.0,-0.0027198190800845623
4608.0,-0.0013524893438443542
5120.0,-0.005452088546007872
5632.0,-0.0014649819349870086
6144.0,0.002549517899751663
6656.0,0.0012468356871977448
7168.0,0.006141485180705786
7680.0,0.005966012366116047
8192.0,-0.0004098392091691494
end
