version,3.0
numOfCh,1
type,point
parent_name,34766_0dot1-1dot0
ch_type,1_1
kcount,1
numberNandB,1
brightnessNandB,1
carpet pos,0
pc,0
Time (ms),CH1 Auto-Correlation
1.0,0.037921663373708725
2.0,0.03751322999596596
3.0,0.03712862357497215
4.0,0.03675241768360138
5.0,0.03638525679707527
6.0,0.03603711351752281
7.0,0.035700783133506775
8.0,0.03536422550678253
9.0,0.03503442928195
10.0,0.034706976264715195
11.0,0.0343928188085556
12.0,0.03407743573188782
13.0,0.03376426547765732
14.0,0.033458687365055084
15.0,0.03316082805395126
16.0,0.032868642359972
18.0,0.03232073783874512
20.0,0.03178786486387253
22.0,0.03126252442598343
24.0,0.03074876219034195
26.0,0.030265051871538162
28.0,0.029800482094287872
30.0,0.029358692467212677
32.0,0.02892139181494713
36.0,0.02808426134288311
40.0,0.02728150598704815
44.0,0.02646087296307087
48.0,0.025692423805594444
52.0,0.024970943108201027
56.0,0.024333201348781586
60.0,0.023800620809197426
64.0,0.023286370560526848
72.0,0.022309890016913414
80.0,0.021242616698145866
88.0,0.020218273624777794
96.0,0.019382329657673836
104.0,0.018737612292170525
112.0,0.018219076097011566
120.0,0.017668554559350014
128.0,0.017050327733159065
144.0,0.01567969284951687
160.0,0.014251998625695705
176.0,0.013512056320905685
192.0,0.012708371505141258
208.0,0.011658200062811375
224.0,0.010455830954015255
240.0,0.009267645888030529
256.0,0.008540185168385506
288.0,0.007900161668658257
320.0,0.007688458077609539
352.0,0.007486180867999792
384.0,0.007384037133306265
416.0,0.007629434112459421
448.0,0.007277408614754677
480.0,0.006522962357848883
512.0,0.005806916859000921
576.0,0.005334584042429924
640.0,0.005390311125665903
704.0,0.0044494615867733955
768.0,0.0028065049555152655
832.0,0.0016549028223380446
896.0,0.0002796793996822089
960.0,-0.0018567746737971902
1024.0,-2.4470053176628426e-05
1152.0,-0.00024056824622675776
1280.0,-0.0012858568225055933
1408.0,-0.0033047690521925688
1536.0,-0.00492434948682785
1664.0,-0.004844757728278637
1792.0,-0.003282667603343725
1920.0,-0.0025978516787290573
2048.0,-0.005053503904491663
2304.0,-0.0018853412475436926
2560.0,-0.0026910537853837013
2816.0,-0.004286586306989193
3072.0,-0.002628051210194826
3328.0,-0.0032660411670804024
3584.0,-0.003340955590829253
3840.0,0.001458098297007382
4096.0,-0.0023225152399390936
4608.0,-0.001668993616476655
5120.0,-0.0056591033935546875
5632.0,-0.002457889961078763
6144.0,0.0029946702998131514
6656.0,0.006014266517013311
7168.0,0.007962114177644253
7680.0,0.0030352375470101833
8192.0,-0.003923801239579916
end
