version,3.0
numOfCh,1
type,point
parent_name,34a6d_0dot4-0dot01
ch_type,1_1
kcount,1
numberNandB,1
brightnessNandB,1
carpet pos,0
pc,0
Time (ms),CH1 Auto-Correlation
1.0,0.03405531123280525
2.0,0.032833028584718704
3.0,0.03169935569167137
4.0,0.030629439279437065
5.0,0.029611192643642426
6.0,0.0286311786621809
7.0,0.02775096707046032
8.0,0.02691897377371788
9.0,0.026131069287657738
10.0,0.025381505489349365
11.0,0.024667706340551376
12.0,0.02398061193525791
13.0,0.02332102507352829
14.0,0.02268153801560402
15.0,0.022095609456300735
16.0,0.021530700847506523
18.0,0.020565325394272804
20.0,0.019722504541277885
22.0,0.0189533531665802
24.0,0.018280167132616043
26.0,0.01771213486790657
28.0,0.01717892661690712
30.0,0.01668909564614296
32.0,0.016219377517700195
36.0,0.015259284526109695
40.0,0.01443914882838726
44.0,0.013749529607594013
48.0,0.013154368847608566
52.0,0.01253753062337637
56.0,0.012011109851300716
60.0,0.01160639151930809
64.0,0.01122411247342825
72.0,0.01022547297179699
80.0,0.009236861020326614
88.0,0.008659468032419682
96.0,0.008138427510857582
104.0,0.00766143761575222
112.0,0.007289848756045103
120.0,0.006886665243655443
128.0,0.006159419193863869
144.0,0.004684479907155037
160.0,0.003981736022979021
176.0,0.003135539358481765
192.0,0.0032496387138962746
208.0,0.0035834950394928455
224.0,0.0037770785856992006
240.0,0.0038963183760643005
256.0,0.0045725018717348576
288.0,0.0043884385377168655
320.0,0.0034662627149373293
352.0,0.0022370449732989073
384.0,0.002389664528891444
416.0,0.0021696987096220255
448.0,0.0023203236050903797
480.0,0.0019481050549075007
512.0,0.0010778151918202639
576.0,-0.0005664261989295483
640.0,-0.002337164245545864
704.0,-0.0012145371874794364
768.0,-0.00014762493083253503
832.0,0.001712266355752945
896.0,0.00040949697722680867
960.0,0.002153468783944845
1024.0,0.0020817783661186695
1152.0,-0.0005005245911888778
1280.0,-0.0014434255426749587
1408.0,-0.003226710017770529
1536.0,-0.0036683091893792152
1664.0,-0.0038792823906987906
1792.0,-0.0009719675872474909
1920.0,-0.0007811380783095956
2048.0,-0.0007612287299707532
2304.0,0.0006989153334870934
2560.0,-2.208113255619537e-05
2816.0,0.00032357004238292575
3072.0,0.0006485137273557484
3328.0,0.00034497235901653767
3584.0,0.0005381680675782263
3840.0,0.0022031471598893404
4096.0,0.002399454591795802
4608.0,4.4948315917281434e-05
5120.0,-0.0037153761368244886
5632.0,-0.0019393431721255183
6144.0,-0.0010731157381087542
6656.0,0.0019701775163412094
7168.0,-0.0008415806223638356
7680.0,-0.0019031725823879242
8192.0,-0.005762716289609671
end
