version,3.0
numOfCh,1
type,point
parent_name,34a6d_0dot4-0dot01
ch_type,1_1
kcount,1
numberNandB,1
brightnessNandB,1
carpet pos,0
pc,0
Time (ms),CH1 Auto-Correlation
1.0,0.0789748951792717
2.0,0.07765266299247742
3.0,0.07635258138179779
4.0,0.07515953481197357
5.0,0.07396141439676285
6.0,0.0728360265493393
7.0,0.07176531106233597
8.0,0.07076999545097351
9.0,0.06980200856924057
10.0,0.06891582906246185
11.0,0.06804639846086502
12.0,0.06716631352901459
13.0,0.06633885204792023
14.0,0.06555913388729095
15.0,0.06477173417806625
16.0,0.06393799185752869
18.0,0.06242749094963074
20.0,0.06096573546528816
22.0,0.05971371382474899
24.0,0.0585552416741848
26.0,0.05741551145911217
28.0,0.05628941208124161
30.0,0.055317673832178116
32.0,0.054394662380218506
36.0,0.05228440836071968
40.0,0.050399299710989
44.0,0.04888838157057762
48.0,0.04750048741698265
52.0,0.04611645266413689
56.0,0.04464520514011383
60.0,0.04344401881098747
64.0,0.042435068637132645
72.0,0.040492210537195206
80.0,0.03910644352436066
88.0,0.03767013922333717
96.0,0.03646272048354149
104.0,0.03528869152069092
112.0,0.03366978466510773
120.0,0.032017532736063004
128.0,0.030673399567604065
144.0,0.02869080752134323
160.0,0.02735624834895134
176.0,0.025758279487490654
192.0,0.024635331705212593
208.0,0.025383103638887405
224.0,0.02723022736608982
240.0,0.027248186990618706
256.0,0.025885529816150665
288.0,0.024361126124858856
320.0,0.02393118105828762
352.0,0.02233385294675827
384.0,0.021607307717204094
416.0,0.016692116856575012
448.0,0.013849657960236073
480.0,0.012747303582727909
512.0,0.00979541800916195
576.0,0.007002681959420443
640.0,0.0030292291194200516
704.0,-0.0011293879942968488
768.0,-0.0050154319033026695
832.0,-0.008894172497093678
896.0,-0.012773575261235237
960.0,-0.013384507037699223
1024.0,-0.012639524415135384
1152.0,-0.01089276559650898
1280.0,-0.007696840446442366
1408.0,-0.012216649018228054
1536.0,-0.007260315120220184
1664.0,-0.0031187175773084164
1792.0,-0.004271892365068197
1920.0,-0.005836961325258017
2048.0,-0.010295436717569828
2304.0,-0.014601350761950016
2560.0,-0.021584248170256615
2816.0,-0.02011714316904545
3072.0,-0.008832867257297039
3328.0,-0.00021091495000291616
3584.0,0.01410897821187973
3840.0,0.022990744560956955
4096.0,0.0196685753762722
4608.0,0.004186649341136217
5120.0,0.0018227441469207406
5632.0,0.00618718471378088
6144.0,-0.0023892277386039495
6656.0,-0.010538440197706223
7168.0,-0.009762070141732693
7680.0,-0.0036976642441004515
8192.0,0.00012618897017091513
end
