version,3.0
numOfCh,1
type,point
parent_name,34a6d_0dot4-0dot01
ch_type,1_1
kcount,1
numberNandB,1
brightnessNandB,1
carpet pos,0
pc,0
Time (ms),CH1 Auto-Correlation
1.0,0.03295440971851349
2.0,0.03173905238509178
3.0,0.030594494193792343
4.0,0.02953219600021839
5.0,0.028542008250951767
6.0,0.027635134756565094
7.0,0.026781046763062477
8.0,0.025961173698306084
9.0,0.025177545845508575
10.0,0.024452758952975273
11.0,0.023749254643917084
12.0,0.023070527240633965
13.0,0.02243923582136631
14.0,0.021822752431035042
15.0,0.021229997277259827
16.0,0.020635711029171944
18.0,0.01956079714000225
20.0,0.018633803352713585
22.0,0.017808061093091965
24.0,0.017018018290400505
26.0,0.016235483810305595
28.0,0.01559604611247778
30.0,0.015044348314404488
32.0,0.014559408649802208
36.0,0.013721171766519547
40.0,0.012980623170733452
44.0,0.01233256421983242
48.0,0.011806241236627102
52.0,0.011219862848520279
56.0,0.010562215931713581
60.0,0.009914970025420189
64.0,0.009308394975960255
72.0,0.00859157182276249
80.0,0.008163231424987316
88.0,0.007716548629105091
96.0,0.007028883323073387
104.0,0.0062096077017486095
112.0,0.005744605790823698
120.0,0.005427084863185883
128.0,0.004937194287776947
144.0,0.004079470876604319
160.0,0.0030868242029100657
176.0,0.0026598693802952766
192.0,0.0024502945598214865
208.0,0.0018790174508467317
224.0,0.0013411121908575296
240.0,0.0005859110970050097
256.0,-0.00031817660783417523
288.0,-0.00012396526290103793
320.0,-0.0009009240893647075
352.0,-0.0016219347016885877
384.0,-0.0025715655647218227
416.0,-0.0024069934152066708
448.0,-0.0011800900101661682
480.0,-0.0016111352015286684
512.0,-0.001855759066529572
576.0,-0.0024431527126580477
640.0,-0.0019847231451421976
704.0,-0.0022804904729127884
768.0,-0.001885141129605472
832.0,0.0002517281973268837
896.0,0.00162625836674124
960.0,0.004077825229614973
1024.0,0.002662983722984791
1152.0,0.001375593594275415
1280.0,0.0014759507030248642
1408.0,0.0005173280951566994
1536.0,0.0010858583264052868
1664.0,0.001429527415893972
1792.0,0.002770300954580307
1920.0,0.0032819644547998905
2048.0,0.0022799496073275805
2304.0,-0.0008641885360702872
2560.0,-0.001507677254267037
2816.0,0.0015756706707179546
3072.0,-0.0001576344366185367
3328.0,-0.00045919380499981344
3584.0,0.0006274164188653231
3840.0,0.0008079363615252078
4096.0,-0.0010017408058047295
4608.0,-0.0003250481968279928
5120.0,-0.00023454209440387785
5632.0,-0.0007570567540824413
6144.0,0.0007721529109403491
6656.0,-0.0008791739819571376
7168.0,-0.0010426726657897234
7680.0,0.0012428120244294405
8192.0,-0.00046399745042435825
end
