version,3.0
numOfCh,1
type,point
parent_name,34a6d_0dot4-0dot01
ch_type,1_1
kcount,1
numberNandB,1
brightnessNandB,1
carpet pos,0
pc,0
Time (ms),CH1 Auto-Correlation
1.0,0.04642853885889053
2.0,0.04525597766041756
3.0,0.04415930062532425
4.0,0.043108921498060226
5.0,0.0421396940946579
6.0,0.041247982531785965
7.0,0.04041142016649246
8.0,0.03961259126663208
9.0,0.03886766731739044
10.0,0.03819091618061066
11.0,0.03757573664188385
12.0,0.036985669285058975
13.0,0.036396726965904236
14.0,0.035847220569849014
15.0,0.035318177193403244
16.0,0.034781791269779205
18.0,0.033821187913417816
20.0,0.032918158918619156
22.0,0.03204895928502083
24.0,0.031230496242642403
26.0,0.030411239713430405
28.0,0.029709530994296074
30.0,0.029045114293694496
32.0,0.028401393443346024
36.0,0.027222424745559692
40.0,0.026077019050717354
44.0,0.02494167350232601
48.0,0.02411002852022648
52.0,0.02329132705926895
56.0,0.022564321756362915
60.0,0.022003142163157463
64.0,0.02151612564921379
72.0,0.020719828084111214
80.0,0.019716063514351845
88.0,0.018911894410848618
96.0,0.01787368208169937
104.0,0.017047125846147537
112.0,0.016319379210472107
120.0,0.015605236403644085
128.0,0.01505614910274744
144.0,0.015504363924264908
160.0,0.01565074734389782
176.0,0.014721347019076347
192.0,0.013609549961984158
208.0,0.013235853984951973
224.0,0.013168876059353352
240.0,0.011872067116200924
256.0,0.011408933438360691
288.0,0.01249324344098568
320.0,0.014184433035552502
352.0,0.014294549822807312
384.0,0.01256738230586052
416.0,0.010405098088085651
448.0,0.009332794696092606
480.0,0.010688786394894123
512.0,0.0126037010923028
576.0,0.009052288718521595
640.0,0.010049361735582352
704.0,0.011844245716929436
768.0,0.009128881618380547
832.0,0.008878122083842754
896.0,0.008940027095377445
960.0,0.009346280246973038
1024.0,0.012965526431798935
1152.0,0.01250114943832159
1280.0,0.007656211499124765
1408.0,0.005544746294617653
1536.0,0.004219497554004192
1664.0,0.0070587447844445705
1792.0,0.004790258128196001
1920.0,0.007948635146021843
2048.0,0.00726417638361454
2304.0,0.0036789593286812305
2560.0,-0.0029102740809321404
2816.0,-0.004150528460741043
3072.0,-0.006043652538210154
3328.0,-0.006727293133735657
3584.0,-0.01247012335807085
3840.0,-0.010604052804410458
4096.0,-0.009635766968131065
4608.0,-0.01244900282472372
5120.0,-0.013933665119111538
5632.0,-0.012547586113214493
6144.0,-0.008295467123389244
6656.0,-0.003331756917759776
7168.0,-0.003897486487403512
7680.0,0.000979006290435791
8192.0,0.0037916351575404406
end
