version,3.0
numOfCh,1
type,point
parent_name,34a6d_0dot4-0dot01
ch_type,1_1
kcount,1
numberNandB,1
brightnessNandB,1
carpet pos,0
pc,0
Time (ms),CH1 Auto-Correlation
1.0,0.061813704669475555
2.0,0.060523100197315216
3.0,0.05932082608342171
4.0,0.05824897810816765
5.0,0.057226721197366714
6.0,0.05622970685362816
7.0,0.05527155101299286
8.0,0.054360270500183105
9.0,0.053461622446775436
10.0,0.052582036703825
11.0,0.0517258420586586
12.0,0.05091917887330055
13.0,0.050184160470962524
14.0,0.04948831722140312
15.0,0.04882827401161194
16.0,0.04821915924549103
18.0,0.047194402664899826
20.0,0.04613891988992691
22.0,0.04511769860982895
24.0,0.04422520473599434
26.0,0.04331216961145401
28.0,0.04238508641719818
30.0,0.041504740715026855
32.0,0.040725093334913254
36.0,0.039260122925043106
40.0,0.03780262544751167
44.0,0.03652114048600197
48.0,0.0354665145277977
52.0,0.03473230451345444
56.0,0.03392864018678665
60.0,0.03324279189109802
64.0,0.03262705355882645
72.0,0.03152242302894592
80.0,0.030343540012836456
88.0,0.029041316360235214
96.0,0.027823224663734436
104.0,0.026627613231539726
112.0,0.025817908346652985
120.0,0.02506718970835209
128.0,0.02422286756336689
144.0,0.023707857355475426
160.0,0.023710720241069794
176.0,0.023955898359417915
192.0,0.024362539872527122
208.0,0.024082737043499947
224.0,0.023501882329583168
240.0,0.022820113226771355
256.0,0.02322494611144066
288.0,0.0248266514390707
320.0,0.02518954686820507
352.0,0.024988451972603798
384.0,0.023744778707623482
416.0,0.022078456357121468
448.0,0.020942868664860725
480.0,0.020525341853499413
512.0,0.021262792870402336
576.0,0.021301766857504845
640.0,0.02045830897986889
704.0,0.018550178036093712
768.0,0.013884502463042736
832.0,0.013224487192928791
896.0,0.014965536072850227
960.0,0.016095532104372978
1024.0,0.016764530912041664
1152.0,0.010783822275698185
1280.0,0.009015051648020744
1408.0,0.008372345939278603
1536.0,0.006607867777347565
1664.0,0.0041001602075994015
1792.0,0.003544656792655587
1920.0,0.003804550040513277
2048.0,0.004569473210722208
2304.0,0.0031060632318258286
2560.0,0.003992777783423662
2816.0,0.0017930367030203342
3072.0,0.0031237523071467876
3328.0,0.004198215901851654
3584.0,0.003885609330609441
3840.0,0.0014546782476827502
4096.0,0.0022580039221793413
4608.0,-0.00416127173230052
5120.0,-0.010580388829112053
5632.0,-0.012995006516575813
6144.0,-0.0168765839189291
6656.0,-0.01475509162992239
7168.0,-0.019113505259156227
7680.0,-0.024299785494804382
8192.0,-0.02668847143650055
end
