version,3.0
numOfCh,1
type,point
parent_name,34a6d_0dot4-0dot01
ch_type,1_1
kcount,1
numberNandB,1
brightnessNandB,1
carpet pos,0
pc,0
Time (ms),CH1 Auto-Correlation
1.0,0.06298747658729553
2.0,0.06178726255893707
3.0,0.06065601482987404
4.0,0.05954790860414505
5.0,0.05844227597117424
6.0,0.05737796425819397
7.0,0.05640669912099838
8.0,0.05552094429731369
9.0,0.054672710597515106
10.0,0.05387508124113083
11.0,0.05309780314564705
12.0,0.05238894373178482
13.0,0.05169341713190079
14.0,0.05098973959684372
15.0,0.05031933635473251
16.0,0.04968570917844772
18.0,0.04840085655450821
20.0,0.04720442369580269
22.0,0.04612233489751816
24.0,0.04515400901436806
26.0,0.0443042553961277
28.0,0.043469782918691635
30.0,0.042656149715185165
32.0,0.04183551296591759
36.0,0.0402199849486351
40.0,0.03875649347901344
44.0,0.0376286506652832
48.0,0.03661360964179039
52.0,0.035517334938049316
56.0,0.034303098917007446
60.0,0.03328173980116844
64.0,0.032309871166944504
72.0,0.030344126746058464
80.0,0.028573645278811455
88.0,0.027305634692311287
96.0,0.0258176252245903
104.0,0.025024501606822014
112.0,0.024437785148620605
120.0,0.023722399026155472
128.0,0.0230328980833292
144.0,0.022002127021551132
160.0,0.021758077666163445
176.0,0.02110716886818409
192.0,0.019875675439834595
208.0,0.017948510125279427
224.0,0.01592688076198101
240.0,0.013541657477617264
256.0,0.0108272023499012
288.0,0.00913154985755682
320.0,0.008305084891617298
352.0,0.008283723145723343
384.0,0.007477462291717529
416.0,0.005678233224898577
448.0,0.0028700344264507294
480.0,0.0006335392827168107
512.0,-7.951879524625838e-05
576.0,-0.001613169675692916
640.0,-0.0025507991667836905
704.0,-0.002643057145178318
768.0,-0.0064098588190972805
832.0,-0.0084877023473382
896.0,-0.008931196294724941
960.0,-0.01169202383607626
1024.0,-0.010706606321036816
1152.0,-0.00828894879668951
1280.0,-0.009690489619970322
1408.0,-0.008696535602211952
1536.0,-0.004841648042201996
1664.0,-0.0013870568946003914
1792.0,0.0011703678173944354
1920.0,0.001972789876163006
2048.0,0.0039229197427630424
2304.0,0.0007709841011092067
2560.0,0.002806067233905196
2816.0,0.0033360496163368225
3072.0,0.0005534800002351403
3328.0,-0.004130247049033642
3584.0,-0.005959170870482922
3840.0,-0.006169866770505905
4096.0,-0.006705237086862326
4608.0,-0.008314301259815693
5120.0,0.006883201655000448
5632.0,0.006071945186704397
6144.0,0.0048174127005040646
6656.0,-0.006425293628126383
7168.0,-0.0014284380013123155
7680.0,0.004371177405118942
8192.0,0.009795737452805042
end
