version,3.0
numOfCh,1
type,point
parent_name,34a6d_0dot4-0dot01
ch_type,1_1
kcount,1
numberNandB,1
brightnessNandB,1
carpet pos,0
pc,0
Time (ms),CH1 Auto-Correlation
1.0,0.03463377058506012
2.0,0.03346119448542595
3.0,0.03238390013575554
4.0,0.03136839717626572
5.0,0.030390338972210884
6.0,0.02944963239133358
7.0,0.028578761965036392
8.0,0.027747729793190956
9.0,0.026948286220431328
10.0,0.026189787313342094
11.0,0.02545875310897827
12.0,0.02479712665081024
13.0,0.024153325706720352
14.0,0.023506272584199905
15.0,0.02288728579878807
16.0,0.022311558946967125
18.0,0.02127065137028694
20.0,0.020290903747081757
22.0,0.019332468509674072
24.0,0.018461108207702637
26.0,0.017682591453194618
28.0,0.01701211929321289
30.0,0.016363264992833138
32.0,0.015836035832762718
36.0,0.014887484721839428
40.0,0.014028006233274937
44.0,0.013155356980860233
48.0,0.012318957597017288
52.0,0.011541484855115414
56.0,0.010869937017560005
60.0,0.01034592092037201
64.0,0.009887059219181538
72.0,0.008898245170712471
80.0,0.008028837852180004
88.0,0.006772482302039862
96.0,0.0055292509496212006
104.0,0.004647072870284319
112.0,0.004167383536696434
120.0,0.004013929516077042
128.0,0.0032802685163915157
144.0,0.0022065758239477873
160.0,0.0016681496053934097
176.0,0.0009457817650400102
192.0,0.0007374108536168933
208.0,0.00043425968033261597
224.0,0.0007511609001085162
240.0,0.0015362666454166174
256.0,0.0017003187676891685
288.0,0.0015599291073158383
320.0,0.0008932528435252607
352.0,0.0015451258514076471
384.0,0.00036780262598767877
416.0,-0.000883215107023716
448.0,-0.0008964036242105067
480.0,-0.00168683344963938
512.0,-0.0024815849028527737
576.0,-0.0014951243065297604
640.0,2.1064166503492743e-05
704.0,-0.001065266435034573
768.0,-0.0016417051665484905
832.0,0.00013458289322443306
896.0,0.0008650589152239263
960.0,0.0008307792595587671
1024.0,-0.001106221112422645
1152.0,-0.0035045193508267403
1280.0,0.00017814819875638932
1408.0,-0.0007742097368463874
1536.0,-0.002257618587464094
1664.0,0.0012610325356945395
1792.0,0.00011608172644628212
1920.0,0.00026892501045949757
2048.0,-9.844452870311216e-05
2304.0,0.002126482082530856
2560.0,0.0011636094423010945
2816.0,-0.00034013664117082953
3072.0,-0.0007898129406385124
3328.0,-0.00021596903388854116
3584.0,-0.0016950294375419617
3840.0,-0.00046809265040792525
4096.0,-0.0009455073159188032
4608.0,0.0022536329925060272
5120.0,0.0004966360866092145
5632.0,-0.002773775951936841
6144.0,-0.0005034171626903117
6656.0,0.0006682121311314404
7168.0,0.001799900783225894
7680.0,-0.0031156945042312145
8192.0,-0.00327631295658648
end
