version,3.0
numOfCh,1
type,point
parent_name,34a6d_0dot4-0dot01
ch_type,1_1
kcount,1
numberNandB,1
brightnessNandB,1
carpet pos,0
pc,0
Time (ms),CH1 Auto-Correlation
1.0,0.03164013847708702
2.0,0.030447615310549736
3.0,0.029309023171663284
4.0,0.028230570256710052
5.0,0.027283646166324615
6.0,0.026377225294709206
7.0,0.02554277516901493
8.0,0.024799464270472527
9.0,0.024095650762319565
10.0,0.023438815027475357
11.0,0.022807275876402855
12.0,0.022213876247406006
13.0,0.021595589816570282
14.0,0.021015837788581848
15.0,0.02051589824259281
16.0,0.020033061504364014
18.0,0.019126273691654205
20.0,0.018243541941046715
22.0,0.017393533140420914
24.0,0.01655275747179985
26.0,0.01572468690574169
28.0,0.015035833232104778
30.0,0.014447255991399288
32.0,0.013888629153370857
36.0,0.012954414822161198
40.0,0.012132897041738033
44.0,0.011395239271223545
48.0,0.010772145353257656
52.0,0.010222661308944225
56.0,0.009587883949279785
60.0,0.00897566694766283
64.0,0.008442995138466358
72.0,0.007664522621780634
80.0,0.0075925434939563274
88.0,0.00780652929097414
96.0,0.007909500040113926
104.0,0.0076309009455144405
112.0,0.0070675695315003395
120.0,0.006790468469262123
128.0,0.006731436587870121
144.0,0.006354116834700108
160.0,0.005361214745789766
176.0,0.0045983754098415375
192.0,0.0033431299962103367
208.0,0.0022596782073378563
224.0,0.0026850379072129726
240.0,0.003131912089884281
256.0,0.0030376180075109005
288.0,0.0034752527717500925
320.0,0.0026450809091329575
352.0,0.003093051491305232
384.0,0.004010118544101715
416.0,0.0037453763652592897
448.0,0.0027663279324769974
480.0,0.0016246280865743756
512.0,0.0015490256482735276
576.0,0.000810381374321878
640.0,-0.0019434142159298062
704.0,-0.0021333314944058657
768.0,-0.0018374945502728224
832.0,-0.0018126508221030235
896.0,-0.002161184558644891
960.0,-0.0032700335141271353
1024.0,-0.004733260255306959
1152.0,-0.004878548439592123
1280.0,-0.0034298922400921583
1408.0,-0.0028360714204609394
1536.0,-0.0025826054625213146
1664.0,-0.0015019845450296998
1792.0,-0.00035542697878554463
1920.0,-0.00028908177046105266
2048.0,0.0012322301045060158
2304.0,0.003218520199880004
2560.0,0.0023057893849909306
2816.0,-0.0016651250189170241
3072.0,-0.0013002550695091486
3328.0,-0.0011717036832123995
3584.0,-0.001042512129060924
3840.0,8.554506348446012e-05
4096.0,-8.497783710481599e-05
4608.0,0.0011928288731724024
5120.0,-0.0007714230450801551
5632.0,-0.0006204573437571526
6144.0,-0.00016303171287290752
6656.0,0.0006156620802357793
7168.0,0.0020614557433873415
7680.0,0.00017354806186631322
8192.0,6.755626964149997e-05
end
