version,3.0
numOfCh,1
type,point
parent_name,34a6d_0dot4-0dot01
ch_type,1_1
kcount,1
numberNandB,1
brightnessNandB,1
carpet pos,0
pc,0
Time (ms),CH1 Auto-Correlation
1.0,0.03961032256484032
2.0,0.038425225764513016
3.0,0.03726869076490402
4.0,0.036217398941516876
5.0,0.03524575009942055
6.0,0.03436063602566719
7.0,0.0335066057741642
8.0,0.03265582025051117
9.0,0.03184165060520172
10.0,0.031040769070386887
11.0,0.03025938756763935
12.0,0.029535923153162003
13.0,0.028865184634923935
14.0,0.028238072991371155
15.0,0.027627212926745415
16.0,0.02705310471355915
18.0,0.02589907869696617
20.0,0.02484315261244774
22.0,0.023872356861829758
24.0,0.02292438969016075
26.0,0.02207898534834385
28.0,0.021326174959540367
30.0,0.020648594945669174
32.0,0.020085830241441727
36.0,0.019038740545511246
40.0,0.01814110204577446
44.0,0.01736603118479252
48.0,0.016569562256336212
52.0,0.01572117768228054
56.0,0.014781943522393703
60.0,0.013873925432562828
64.0,0.013028222136199474
72.0,0.011476773768663406
80.0,0.010465296916663647
88.0,0.009949445724487305
96.0,0.009475648403167725
104.0,0.00892253965139389
112.0,0.008552294224500656
120.0,0.008270242251455784
128.0,0.007964919321238995
144.0,0.0070301564410328865
160.0,0.006231882609426975
176.0,0.005774540361016989
192.0,0.005017826333642006
208.0,0.004520395305007696
224.0,0.0038738935254514217
240.0,0.003735482459887862
256.0,0.0035324764903634787
288.0,0.002698408905416727
320.0,0.003530335146933794
352.0,0.004565278068184853
384.0,0.005102638620883226
416.0,0.006082239095121622
448.0,0.006523812189698219
480.0,0.006117061246186495
512.0,0.005743260961025953
576.0,0.0035993887577205896
640.0,0.0033335271291434765
704.0,0.0022393180988729
768.0,0.0019184204284101725
832.0,0.0018608786631375551
896.0,0.0012308096047490835
960.0,0.001737250597216189
1024.0,0.004790072329342365
1152.0,0.005535517819225788
1280.0,0.002258571097627282
1408.0,0.0019213699270039797
1536.0,0.0022877093870192766
1664.0,0.00017707367078401148
1792.0,-0.0004558793152682483
1920.0,0.0017851334996521473
2048.0,-0.0007146468851715326
2304.0,0.0033752848394215107
2560.0,0.0016164419939741492
2816.0,0.0014115612721070647
3072.0,-0.0005505863227881491
3328.0,-0.001256516552530229
3584.0,-0.002262912690639496
3840.0,-0.001269519329071045
4096.0,0.0006772892083972692
4608.0,-5.7584791647968814e-05
5120.0,0.0015916399424895644
5632.0,0.0011967022437602282
6144.0,-0.00013966477126814425
6656.0,0.0006344420835375786
7168.0,0.0013182058464735746
7680.0,0.0004173539928160608
8192.0,0.0005100049893371761
end
