version,3.0
numOfCh,1
type,point
parent_name,34a6d_0dot4-0dot01
ch_type,1_1
kcount,1
numberNandB,1
brightnessNandB,1
carpet pos,0
pc,0
Time (ms),CH1 Auto-Correlation
1.0,0.07395999133586884
2.0,0.07284960150718689
3.0,0.07177817821502686
4.0,0.07074590027332306
5.0,0.06979606300592422
6.0,0.06886313110589981
7.0,0.06794346123933792
8.0,0.06704442948102951
9.0,0.06619760394096375
10.0,0.06540591269731522
11.0,0.06465427577495575
12.0,0.0639481469988823
13.0,0.06322579830884933
14.0,0.0625075101852417
15.0,0.06179315224289894
16.0,0.0611676387488842
18.0,0.060042377561330795
20.0,0.058995526283979416
22.0,0.05788886919617653
24.0,0.056732818484306335
26.0,0.05555246025323868
28.0,0.05444673076272011
30.0,0.05340869352221489
32.0,0.052405234426259995
36.0,0.05056286230683327
40.0,0.048781149089336395
44.0,0.047191958874464035
48.0,0.04556497186422348
52.0,0.043867096304893494
56.0,0.04226181283593178
60.0,0.04096269980072975
64.0,0.03966351971030235
72.0,0.037590350955724716
80.0,0.03554527834057808
88.0,0.03370695188641548
96.0,0.03155858442187309
104.0,0.029726382344961166
112.0,0.028186170384287834
120.0,0.026574455201625824
128.0,0.02509392984211445
144.0,0.021829061210155487
160.0,0.019558900967240334
176.0,0.01793758198618889
192.0,0.018165595829486847
208.0,0.018495921045541763
224.0,0.017386266961693764
240.0,0.015100247226655483
256.0,0.012668633833527565
288.0,0.010723416693508625
320.0,0.01105692982673645
352.0,0.010926932096481323
384.0,0.007475121878087521
416.0,0.004647225607186556
448.0,0.003364698262885213
480.0,0.002751361345872283
512.0,0.002405587350949645
576.0,0.004579485394060612
640.0,0.007920326665043831
704.0,0.012078643776476383
768.0,0.010546227917075157
832.0,0.005327471066266298
896.0,-0.0003635059983935207
960.0,0.0004504823300521821
1024.0,0.002872704528272152
1152.0,0.0007388773956336081
1280.0,-0.0004817527369596064
1408.0,0.00683837104588747
1536.0,0.011110690422356129
1664.0,0.014912144280970097
1792.0,0.009660379029810429
1920.0,-0.001657897955738008
2048.0,-0.006839421112090349
2304.0,0.004250652156770229
2560.0,-0.0018095795530825853
2816.0,-0.009730377234518528
3072.0,-0.01419378537684679
3328.0,-0.009982259012758732
3584.0,-0.015671085566282272
3840.0,-0.007956892251968384
4096.0,-0.008348842151463032
4608.0,-0.00856190174818039
5120.0,-0.013587544672191143
5632.0,-0.009031359106302261
6144.0,0.0011099849361926317
6656.0,0.0059237186796963215
7168.0,-0.003444127971306443
7680.0,-0.0005227932706475258
8192.0,0.008056088350713253
end
