version,3.0
numOfCh,1
type,point
parent_name,34a6d_0dot4-0dot01
ch_type,1_1
kcount,1
numberNandB,1
brightnessNandB,1
carpet pos,0
pc,0
Time (ms),CH1 Auto-Correlation
1.0,0.045959603041410446
2.0,0.0447654165327549
3.0,0.043674979358911514
4.0,0.04264741390943527
5.0,0.041647471487522125
6.0,0.04072105139493942
7.0,0.03982565551996231
8.0,0.0389656201004982
9.0,0.03813164681196213
10.0,0.03735709190368652
11.0,0.036668840795755386
12.0,0.03599782660603523
13.0,0.03537815809249878
14.0,0.03480732813477516
15.0,0.03427741676568985
16.0,0.03373207524418831
18.0,0.03278883546590805
20.0,0.03191669285297394
22.0,0.031088732182979584
24.0,0.03029499761760235
26.0,0.02961239404976368
28.0,0.029028717428445816
30.0,0.028421049937605858
32.0,0.027865929529070854
36.0,0.026818417012691498
40.0,0.025863919407129288
44.0,0.02496488206088543
48.0,0.024189796298742294
52.0,0.023455537855625153
56.0,0.02274314872920513
60.0,0.022111885249614716
64.0,0.021410565823316574
72.0,0.01988981105387211
80.0,0.01846044510602951
88.0,0.017265887930989265
96.0,0.016406375914812088
104.0,0.01555259246379137
112.0,0.014858035370707512
120.0,0.013924434781074524
128.0,0.013034970499575138
144.0,0.01185463648289442
160.0,0.010508779436349869
176.0,0.00862142164260149
192.0,0.0070740594528615475
208.0,0.006350105628371239
224.0,0.004975918214768171
240.0,0.0040932404808700085
256.0,0.0037293345667421818
288.0,0.003678250126540661
320.0,0.004422174300998449
352.0,0.0030702839139848948
384.0,0.0026034086477011442
416.0,0.00026848382549360394
448.0,-0.0009641686920076609
480.0,-0.0014304734067991376
512.0,-0.0010361570166423917
576.0,-0.0013859989121556282
640.0,-0.0021379254758358
704.0,-0.0018544245976954699
768.0,-0.0015497799031436443
832.0,-0.0011448811274021864
896.0,0.0003688256547320634
960.0,-0.0013599004596471786
1024.0,-0.0035542917903512716
1152.0,-0.004543004557490349
1280.0,-0.003683054121211171
1408.0,-1.5008548871264793e-05
1536.0,-0.001094855135306716
1664.0,-0.0004343849723227322
1792.0,-0.0005697572487406433
1920.0,-0.001959595363587141
2048.0,-0.000876968028023839
2304.0,0.001792987110093236
2560.0,0.00356374797411263
2816.0,0.00184798298869282
3072.0,-0.0014760491903871298
3328.0,-0.002576894825324416
3584.0,-0.00016982603119686246
3840.0,-0.0017868044087663293
4096.0,-0.004297231789678335
4608.0,-3.981598979407863e-07
5120.0,0.0013886147644370794
5632.0,-0.00205749343149364
6144.0,-0.004318631254136562
6656.0,-0.003204197622835636
7168.0,0.0038246766198426485
7680.0,-0.00038486375706270337
8192.0,-0.0021393713541328907
end
