version,3.0
numOfCh,1
type,point
parent_name,34a6d_0dot4-0dot01
ch_type,1_1
kcount,1
numberNandB,1
brightnessNandB,1
carpet pos,0
pc,0
Time (ms),CH1 Auto-Correlation
1.0,0.03707152605056763
2.0,0.035867031663656235
3.0,0.034779246896505356
4.0,0.033780306577682495
5.0,0.032862599939107895
6.0,0.03197199106216431
7.0,0.03112903982400894
8.0,0.03032866306602955
9.0,0.029540985822677612
10.0,0.028817100450396538
11.0,0.028148138895630836
12.0,0.02750341221690178
13.0,0.026888979598879814
14.0,0.02629699558019638
15.0,0.025730010122060776
16.0,0.02519317902624607
18.0,0.024145960807800293
20.0,0.023190459236502647
22.0,0.022329971194267273
24.0,0.02150997519493103
26.0,0.020752044394612312
28.0,0.02009241096675396
30.0,0.019441118463873863
32.0,0.018791111186146736
36.0,0.017611579969525337
40.0,0.016618721187114716
44.0,0.01588810794055462
48.0,0.015144607052206993
52.0,0.014320542104542255
56.0,0.013594573363661766
60.0,0.012933950871229172
64.0,0.01231430284678936
72.0,0.011343494988977909
80.0,0.010529962368309498
88.0,0.0100094648078084
96.0,0.009233839809894562
104.0,0.00853121466934681
112.0,0.007899436168372631
120.0,0.007685448043048382
128.0,0.007241151761263609
144.0,0.006598002277314663
160.0,0.005926245357841253
176.0,0.004979321733117104
192.0,0.004766986705362797
208.0,0.0050802710466086864
224.0,0.004876127932220697
240.0,0.0044021266512572765
256.0,0.0038904803805053234
288.0,0.004196940455585718
320.0,0.0028954828158020973
352.0,0.002460925607010722
384.0,0.004521291237324476
416.0,0.004295514430850744
448.0,0.003695692401379347
480.0,0.002362737897783518
512.0,0.002480161376297474
576.0,0.002554641803726554
640.0,0.0031994024757295847
704.0,0.0033997660502791405
768.0,0.002514490857720375
832.0,0.003414074657484889
896.0,0.0003227860725019127
960.0,0.001429749303497374
1024.0,0.004562705755233765
1152.0,0.003595493035390973
1280.0,0.0026870439760386944
1408.0,0.0030141405295580626
1536.0,0.0029323457274585962
1664.0,0.004525692667812109
1792.0,0.0027102776803076267
1920.0,0.0012118679005652666
2048.0,0.003434516256675124
2304.0,0.002322722226381302
2560.0,-0.0002210927923442796
2816.0,0.0005374585743993521
3072.0,0.0002534911036491394
3328.0,-0.0010801178868860006
3584.0,-0.0022590812295675278
3840.0,-0.002251997124403715
4096.0,-0.0038651542272418737
4608.0,-0.003160059219226241
5120.0,-0.0027701356448233128
5632.0,-0.0040304455906152725
6144.0,-0.003785929176956415
6656.0,-0.0038320168387144804
7168.0,-0.003461631713435054
7680.0,-0.005356064066290855
8192.0,-0.0038988455198705196
end
