version,3.0
numOfCh,1
type,point
parent_name,34a6d_0dot4-0dot01
ch_type,1_1
kcount,1
numberNandB,1
brightnessNandB,1
carpet pos,0
pc,0
Time (ms),CH1 Auto-Correlation
1.0,0.03574397787451744
2.0,0.03459063172340393
3.0,0.03355201706290245
4.0,0.03257731720805168
5.0,0.03165943920612335
6.0,0.030762657523155212
7.0,0.029922353103756905
8.0,0.029113171622157097
9.0,0.0283773485571146
10.0,0.02769000269472599
11.0,0.027012968435883522
12.0,0.026385754346847534
13.0,0.02575281448662281
14.0,0.02513638138771057
15.0,0.024577833712100983
16.0,0.024029524996876717
18.0,0.02297716587781906
20.0,0.022085383534431458
22.0,0.021244654431939125
24.0,0.02047121152281761
26.0,0.019678877666592598
28.0,0.018901703879237175
30.0,0.018205171450972557
32.0,0.017545955255627632
36.0,0.016500072553753853
40.0,0.015591184608638287
44.0,0.0146967563778162
48.0,0.013757088221609592
52.0,0.012791609391570091
56.0,0.011871689930558205
60.0,0.01104864664375782
64.0,0.010343263857066631
72.0,0.00940657313913107
80.0,0.008555914275348186
88.0,0.008026668801903725
96.0,0.00747824227437377
104.0,0.006848941557109356
112.0,0.006574829109013081
120.0,0.006668210029602051
128.0,0.006681821309030056
144.0,0.006770816631615162
160.0,0.006147610489279032
176.0,0.005327679682523012
192.0,0.005161181092262268
208.0,0.004402203485369682
224.0,0.003392596496269107
240.0,0.0021906965412199497
256.0,0.0008770974818617105
288.0,0.0010998660000041127
320.0,0.0007772521930746734
352.0,0.00023398258781526238
384.0,-0.0007572696777060628
416.0,-0.0015710520092397928
448.0,-0.0007273387163877487
480.0,0.00025543119409121573
512.0,0.0005950740305706859
576.0,0.0007787672802805901
640.0,0.0004976867348887026
704.0,0.0030170681420713663
768.0,0.0017483140109106898
832.0,0.001795600401237607
896.0,0.0005593833047896624
960.0,-0.00030021427664905787
1024.0,0.00048547625192441046
1152.0,-0.001258188858628273
1280.0,3.7982095818733796e-05
1408.0,-6.390377529896796e-05
1536.0,0.002057526493445039
1664.0,0.0013791300589218736
1792.0,-8.330538548761979e-05
1920.0,-0.0030525962356477976
2048.0,-0.001602369244210422
2304.0,-0.0014501974219456315
2560.0,-0.001983452355489135
2816.0,-0.002128675812855363
3072.0,0.00035800630575977266
3328.0,0.0021552250254899263
3584.0,-0.0027700341306626797
3840.0,-0.00033782885293476284
4096.0,-0.0033505086321383715
4608.0,0.0018823668360710144
5120.0,-0.0005562020814977586
5632.0,-0.0006489392253570259
6144.0,0.0002809073484968394
6656.0,0.0008464604616165161
7168.0,-0.0026654547546058893
7680.0,0.0028281048871576786
8192.0,0.0021825265139341354
end
