version,3.0
numOfCh,1
type,point
parent_name,34a6d_0dot4-0dot01
ch_type,1_1
kcount,1
numberNandB,1
brightnessNandB,1
carpet pos,0
pc,0
Time (ms),CH1 Auto-Correlation
1.0,0.04744866490364075
2.0,0.04629228264093399
3.0,0.045211900025606155
4.0,0.044223085045814514
5.0,0.04329155385494232
6.0,0.04240857809782028
7.0,0.04154707491397858
8.0,0.04074649140238762
9.0,0.039952587336301804
10.0,0.03922929987311363
11.0,0.03852703049778938
12.0,0.0378376729786396
13.0,0.037138164043426514
14.0,0.03649511560797691
15.0,0.03588739037513733
16.0,0.03531188890337944
18.0,0.034239113330841064
20.0,0.03328991308808327
22.0,0.032453473657369614
24.0,0.03168957307934761
26.0,0.03097112663090229
28.0,0.03028341941535473
30.0,0.029616475105285645
32.0,0.029037801548838615
36.0,0.027788907289505005
40.0,0.026568196713924408
44.0,0.02540631592273712
48.0,0.024296754971146584
52.0,0.023306798189878464
56.0,0.022242555394768715
60.0,0.021179188042879105
64.0,0.020274993032217026
72.0,0.018702490255236626
80.0,0.017421046271920204
88.0,0.016707971692085266
96.0,0.016385018825531006
104.0,0.016195664182305336
112.0,0.016208115965127945
120.0,0.01590920425951481
128.0,0.015571466647088528
144.0,0.014877398498356342
160.0,0.014141533523797989
176.0,0.012310554273426533
192.0,0.009829431772232056
208.0,0.007221074774861336
224.0,0.0050916001200675964
240.0,0.0034797554835677147
256.0,0.0023237173445522785
288.0,0.002645587082952261
320.0,0.0029516173526644707
352.0,0.003449288895353675
384.0,0.0018100609304383397
416.0,0.0014246095670387149
448.0,0.0018283394165337086
480.0,0.0030924752354621887
512.0,0.00411771796643734
576.0,0.0029015573672950268
640.0,0.0030723928939551115
704.0,0.0027284719981253147
768.0,0.0020857753697782755
832.0,0.0015094891423359513
896.0,0.0017574633238837123
960.0,0.002668055472895503
1024.0,0.0005932169733569026
1152.0,-0.001985036302357912
1280.0,-0.0016359318979084492
1408.0,5.8656398323364556e-05
1536.0,-0.00035751680843532085
1664.0,-0.00025259164976887405
1792.0,0.0027549522928893566
1920.0,0.006551850587129593
2048.0,0.0026178699918091297
2304.0,0.0011474546045064926
2560.0,0.002339723752811551
2816.0,-0.0014393932651728392
3072.0,-0.006145119667053223
3328.0,-0.0029200869612395763
3584.0,0.001799499150365591
3840.0,0.0017733096610754728
4096.0,0.0029347327072173357
4608.0,0.003278648015111685
5120.0,-0.003203260712325573
5632.0,-0.001595017034560442
6144.0,0.0006885752081871033
6656.0,0.002519255969673395
7168.0,0.004093232564628124
7680.0,-0.005957040004432201
8192.0,-0.0027266917750239372
end
