version,3.0
numOfCh,1
type,point
parent_name,34a6d_0dot4-0dot01
ch_type,1_1
kcount,1
numberNandB,1
brightnessNandB,1
carpet pos,0
pc,0
Time (ms),CH1 Auto-Correlation
1.0,0.031836170703172684
2.0,0.030609730631113052
3.0,0.029450060799717903
4.0,0.028354700654745102
5.0,0.027331475168466568
6.0,0.026383034884929657
7.0,0.02550348825752735
8.0,0.02466060221195221
9.0,0.02388579770922661
10.0,0.023153474554419518
11.0,0.022492405027151108
12.0,0.021840456873178482
13.0,0.02124471217393875
14.0,0.020671257749199867
15.0,0.02011924795806408
16.0,0.019595252349972725
18.0,0.01866156794130802
20.0,0.0177823044359684
22.0,0.01697424426674843
24.0,0.016242949292063713
26.0,0.015592205338180065
28.0,0.015009120106697083
30.0,0.014488980174064636
32.0,0.01404673233628273
36.0,0.013207441195845604
40.0,0.012410749681293964
44.0,0.011631166562438011
48.0,0.01079582143574953
52.0,0.010166395455598831
56.0,0.009661521762609482
60.0,0.009221953339874744
64.0,0.00879238173365593
72.0,0.007954338565468788
80.0,0.00739674549549818
88.0,0.007361481431871653
96.0,0.007224330212920904
104.0,0.0069783092476427555
112.0,0.006977665703743696
120.0,0.006659951992332935
128.0,0.006166061386466026
144.0,0.005467461887747049
160.0,0.004679759498685598
176.0,0.0039854287169873714
192.0,0.002831338904798031
208.0,0.0019509225385263562
224.0,0.0013281970750540495
240.0,0.00047351812827400863
256.0,0.0003490379895083606
288.0,0.000698329764418304
320.0,0.0013527487171813846
352.0,0.0021772158797830343
384.0,0.001899892813526094
416.0,0.001959021668881178
448.0,0.0024936713743954897
480.0,0.0018787435255944729
512.0,0.00028856558492407203
576.0,0.0006149378605186939
640.0,0.0009818007238209248
704.0,0.0002158596907975152
768.0,0.001176556688733399
832.0,-0.0004452923603821546
896.0,-0.002350955968722701
960.0,-0.0021957065910100937
1024.0,-0.0012944129994139075
1152.0,0.0002213583211414516
1280.0,0.000618066405877471
1408.0,0.0010073796147480607
1536.0,0.002582819201052189
1664.0,0.001325316377915442
1792.0,2.5690629627206363e-05
1920.0,-0.0008810689905658364
2048.0,-0.0021246077958494425
2304.0,-0.0002666269429028034
2560.0,-0.001901884563267231
2816.0,0.0011445434065535665
3072.0,0.002732726978138089
3328.0,0.0013449721736833453
3584.0,-0.00022008473752066493
3840.0,0.002310696290805936
4096.0,-0.0006522205658257008
4608.0,-0.0005722842761315405
5120.0,0.000966509513091296
5632.0,-0.00045338409836404026
6144.0,-0.0018236435716971755
6656.0,0.0006141187623143196
7168.0,0.0011378206545487046
7680.0,-0.002601240761578083
8192.0,0.0004087246779818088
end
