version,3.0
numOfCh,1
type,point
parent_name,34a6d_0dot4-0dot01
ch_type,1_1
kcount,1
numberNandB,1
brightnessNandB,1
carpet pos,0
pc,0
Time (ms),CH1 Auto-Correlation
1.0,0.030271759256720543
2.0,0.02912370301783085
3.0,0.028044763952493668
4.0,0.027000002562999725
5.0,0.026042940095067024
6.0,0.025159234181046486
7.0,0.024334415793418884
8.0,0.023547805845737457
9.0,0.022778047248721123
10.0,0.02206306904554367
11.0,0.02132578007876873
12.0,0.020640520378947258
13.0,0.019986888393759727
14.0,0.019376486539840698
15.0,0.018774401396512985
16.0,0.018217872828245163
18.0,0.017178697511553764
20.0,0.016243649646639824
22.0,0.015455332584679127
24.0,0.014736139215528965
26.0,0.014021411538124084
28.0,0.01343942154198885
30.0,0.012964772991836071
32.0,0.012564275413751602
36.0,0.011694183573126793
40.0,0.0106770358979702
44.0,0.00977565348148346
48.0,0.008864913135766983
52.0,0.007876944728195667
56.0,0.007084130309522152
60.0,0.006503911688923836
64.0,0.005948459263890982
72.0,0.0051993089728057384
80.0,0.00479331286624074
88.0,0.00402772706001997
96.0,0.0034197436179965734
104.0,0.002974092960357666
112.0,0.002982109086588025
120.0,0.0028947473037987947
128.0,0.002610570751130581
144.0,0.0016792536480352283
160.0,0.0016811013920232654
176.0,0.0022841182071715593
192.0,0.002204370452091098
208.0,0.0015573441050946712
224.0,0.0011476860381662846
240.0,0.0017924656858667731
256.0,0.0020542715210467577
288.0,0.0019940247293561697
320.0,0.0005600684671662748
352.0,-0.00014234484115149826
384.0,-0.0005130690988153219
416.0,-0.00015578446618746966
448.0,-0.0005933218635618687
480.0,-0.0001331852690782398
512.0,-0.00038456343463622034
576.0,0.0008884768467396498
640.0,0.0012454235693439841
704.0,0.0016489668050780892
768.0,0.0012152063427492976
832.0,0.002342341933399439
896.0,0.0010326089104637504
960.0,-0.0010432079434394836
1024.0,-0.002003918867558241
1152.0,-0.0008561195572838187
1280.0,-0.0008076262311078608
1408.0,-0.0014455928467214108
1536.0,0.000420587690314278
1664.0,-0.0011713734129443765
1792.0,-0.0005613694665953517
1920.0,-0.0006285379640758038
2048.0,-4.662776063923957e-06
2304.0,-0.0005232605035416782
2560.0,-0.0014755327720195055
2816.0,0.0007222038111649454
3072.0,-0.0009037532727234066
3328.0,-0.0010209737811237574
3584.0,0.0005053777131251991
3840.0,0.0014892418403178453
4096.0,-0.0005150628858245909
4608.0,0.00077605847036466
5120.0,0.0015994891291484237
5632.0,0.001419905456714332
6144.0,-0.00038557546213269234
6656.0,-0.0015977007569745183
7168.0,-0.003394711297005415
7680.0,-0.0009569970425218344
8192.0,-0.0009516767458990216
end
