version,3.0
numOfCh,1
type,point
parent_name,34a6d_0dot4-0dot01
ch_type,1_1
kcount,1
numberNandB,1
brightnessNandB,1
carpet pos,0
pc,0
Time (ms),CH1 Auto-Correlation
1.0,0.04684215411543846
2.0,0.04546549543738365
3.0,0.0441749170422554
4.0,0.04294710233807564
5.0,0.0417729876935482
6.0,0.040612127631902695
7.0,0.039454057812690735
8.0,0.0383509136736393
9.0,0.03730890154838562
10.0,0.03653090074658394
11.0,0.03576841950416565
12.0,0.0350307896733284
13.0,0.03435488045215607
14.0,0.033690616488456726
15.0,0.03303975984454155
16.0,0.032464269548654556
18.0,0.031371887773275375
20.0,0.030339602380990982
22.0,0.02936197817325592
24.0,0.028523825109004974
26.0,0.0277867391705513
28.0,0.027105312794446945
30.0,0.02650611661374569
32.0,0.025993401184678078
36.0,0.025101032108068466
40.0,0.024324122816324234
44.0,0.023564977571368217
48.0,0.022793596610426903
52.0,0.022040871903300285
56.0,0.021347498521208763
60.0,0.02086915262043476
64.0,0.02039029262959957
72.0,0.01954588294029236
80.0,0.01882099360227585
88.0,0.0178154855966568
96.0,0.016407931223511696
104.0,0.014919670298695564
112.0,0.014022567309439182
120.0,0.013146642595529556
128.0,0.012631815858185291
144.0,0.011980167590081692
160.0,0.011077187955379486
176.0,0.009568717330694199
192.0,0.008744780905544758
208.0,0.008433306589722633
224.0,0.008324016816914082
240.0,0.007305161561816931
256.0,0.006124577950686216
288.0,0.005967855453491211
320.0,0.004668983165174723
352.0,0.005304428283125162
384.0,0.006693536881357431
416.0,0.009322014637291431
448.0,0.010947979055345058
480.0,0.009923247620463371
512.0,0.008313050493597984
576.0,0.0061083631590008736
640.0,0.005756328348070383
704.0,0.004922319203615189
768.0,0.00400655809789896
832.0,0.003761210246011615
896.0,0.0050934553146362305
960.0,0.004684388637542725
1024.0,0.00605470035225153
1152.0,0.005783706903457642
1280.0,0.00536162918433547
1408.0,0.006519774906337261
1536.0,0.002341414103284478
1664.0,-0.003255984513089061
1792.0,-0.002178567461669445
1920.0,-0.0025685220025479794
2048.0,-0.0028218470979481936
2304.0,-0.003111470490694046
2560.0,-0.0011001859093084931
2816.0,-0.006220879964530468
3072.0,-0.005063182208687067
3328.0,-0.008060154505074024
3584.0,-0.004555822815746069
3840.0,-0.008117963559925556
4096.0,-0.0027551648672670126
4608.0,-0.005258867517113686
5120.0,-0.007151016499847174
5632.0,-0.004979236051440239
6144.0,-0.0037869149819016457
6656.0,-0.0005862253019586205
7168.0,0.003914486151188612
7680.0,0.0010190230095759034
8192.0,0.007586207706481218
end
