version,3.0
numOfCh,1
type,point
parent_name,34a6d_0dot4-0dot01
ch_type,1_1
kcount,1
numberNandB,1
brightnessNandB,1
carpet pos,0
pc,0
Time (ms),CH1 Auto-Correlation
1.0,0.18656975030899048
2.0,0.18546858429908752
3.0,0.18442167341709137
4.0,0.18340620398521423
5.0,0.18239663541316986
6.0,0.18140114843845367
7.0,0.18049046397209167
8.0,0.17958946526050568
9.0,0.17864148318767548
10.0,0.1776794046163559
11.0,0.17668473720550537
12.0,0.17573601007461548
13.0,0.17480340600013733
14.0,0.17392925918102264
15.0,0.17302563786506653
16.0,0.17211245000362396
18.0,0.17051954567432404
20.0,0.16897207498550415
22.0,0.16747082769870758
24.0,0.16597944498062134
26.0,0.16445904970169067
28.0,0.16302525997161865
30.0,0.16163931787014008
32.0,0.1602407842874527
36.0,0.15748067200183868
40.0,0.15481558442115784
44.0,0.15230688452720642
48.0,0.14999838173389435
52.0,0.14750540256500244
56.0,0.14488907158374786
60.0,0.14212952554225922
64.0,0.1392638385295868
72.0,0.13426220417022705
80.0,0.12979020178318024
88.0,0.12518316507339478
96.0,0.12069359421730042
104.0,0.11676917225122452
112.0,0.11312166601419449
120.0,0.10954809188842773
128.0,0.10675918310880661
144.0,0.10176222771406174
160.0,0.09684456884860992
176.0,0.09168160706758499
192.0,0.0866701528429985
208.0,0.08203090727329254
224.0,0.07773169130086899
240.0,0.07340104877948761
256.0,0.06928098946809769
288.0,0.06236196681857109
320.0,0.056504350155591965
352.0,0.052868764847517014
384.0,0.048095591366291046
416.0,0.043104980140924454
448.0,0.0388699434697628
480.0,0.032339420169591904
512.0,0.02760467305779457
576.0,0.021157223731279373
640.0,0.024043196812272072
704.0,0.02563469298183918
768.0,0.02452389895915985
832.0,0.026948126032948494
896.0,0.030390851199626923
960.0,0.03132542967796326
1024.0,0.025208530947566032
1152.0,0.0028609202709048986
1280.0,-0.007228631526231766
1408.0,-0.016173867508769035
1536.0,-0.031508833169937134
1664.0,-0.04151129350066185
1792.0,-0.047832343727350235
1920.0,-0.049178581684827805
2048.0,-0.059087999165058136
2304.0,-0.03556603193283081
2560.0,-0.05227595195174217
2816.0,-0.06725279986858368
3072.0,-0.052043184638023376
3328.0,-0.03021991066634655
3584.0,-0.014323705807328224
3840.0,-0.001558105694130063
4096.0,0.00782881211489439
4608.0,0.027031347155570984
5120.0,0.06399533152580261
5632.0,0.060385413467884064
6144.0,0.0211936105042696
6656.0,-0.028597360476851463
7168.0,-0.05017802491784096
7680.0,-0.03231597691774368
8192.0,-0.04211222380399704
end
