version,3.0
numOfCh,1
type,point
parent_name,34a6d_0dot4-0dot01
ch_type,1_1
kcount,1
numberNandB,1
brightnessNandB,1
carpet pos,0
pc,0
Time (ms),CH1 Auto-Correlation
1.0,0.06687787175178528
2.0,0.06567724794149399
3.0,0.06452705711126328
4.0,0.06339649111032486
5.0,0.06230532005429268
6.0,0.061304181814193726
7.0,0.06034248694777489
8.0,0.0594625398516655
9.0,0.058627739548683167
10.0,0.057820484042167664
11.0,0.057025425136089325
12.0,0.056274473667144775
13.0,0.05551859363913536
14.0,0.054798536002635956
15.0,0.05411313474178314
16.0,0.05340144410729408
18.0,0.052039798349142075
20.0,0.05080343410372734
22.0,0.04959020018577576
24.0,0.04843036085367203
26.0,0.0473862886428833
28.0,0.04636402800679207
30.0,0.04535706713795662
32.0,0.04451053962111473
36.0,0.043255772441625595
40.0,0.04230387136340141
44.0,0.04133238643407822
48.0,0.040449369698762894
52.0,0.039681799709796906
56.0,0.038796454668045044
60.0,0.03764287382364273
64.0,0.03643562272191048
72.0,0.03368960693478584
80.0,0.031069312244653702
88.0,0.029141884297132492
96.0,0.028178267180919647
104.0,0.02760215476155281
112.0,0.02714253030717373
120.0,0.026297854259610176
128.0,0.02476632408797741
144.0,0.022711750119924545
160.0,0.021151265129446983
176.0,0.01998768374323845
192.0,0.018640782684087753
208.0,0.0181202944368124
224.0,0.018129965290427208
240.0,0.017114657908678055
256.0,0.01456320658326149
288.0,0.010008351877331734
320.0,0.008037677966058254
352.0,0.007873725146055222
384.0,0.0064883120357990265
416.0,0.00372637202963233
448.0,0.0031357198022305965
480.0,0.004400481469929218
512.0,0.006287675816565752
576.0,0.007653262931853533
640.0,0.006400055717676878
704.0,0.00028906777151860297
768.0,-0.00019700593838933855
832.0,0.0004216326342429966
896.0,-0.004256411921232939
960.0,-0.00858840998262167
1024.0,-0.008639819920063019
1152.0,-0.006047479808330536
1280.0,-0.005007644649595022
1408.0,-0.003309410298243165
1536.0,7.694314990658313e-05
1664.0,0.00025620151427574456
1792.0,-0.0022912321146577597
1920.0,-0.0021692276932299137
2048.0,0.0031966017559170723
2304.0,-0.0011932171182706952
2560.0,-0.003874349407851696
2816.0,-0.0015476049156859517
3072.0,0.0008791520376689732
3328.0,-0.004802560433745384
3584.0,-0.006185300648212433
3840.0,-0.004382331855595112
4096.0,-0.0069557251408696175
4608.0,-0.0025088214315474033
5120.0,-0.006989853456616402
5632.0,-0.017583465203642845
6144.0,-0.0031298790127038956
6656.0,0.011921621859073639
7168.0,0.01907031238079071
7680.0,0.009970218874514103
8192.0,0.001607714220881462
end
