version,3.0
numOfCh,1
type,point
parent_name,34a6d_0dot4-0dot01
ch_type,1_1
kcount,1
numberNandB,1
brightnessNandB,1
carpet pos,0
pc,0
Time (ms),CH1 Auto-Correlation
1.0,0.034654565155506134
2.0,0.03345215693116188
3.0,0.03236600384116173
4.0,0.03134965896606445
5.0,0.03039148636162281
6.0,0.029453448951244354
7.0,0.028581833466887474
8.0,0.027717117220163345
9.0,0.026888318359851837
10.0,0.02609015814960003
11.0,0.025333307683467865
12.0,0.024618277326226234
13.0,0.023950951173901558
14.0,0.023326249793171883
15.0,0.022707462310791016
16.0,0.022152289748191833
18.0,0.021155692636966705
20.0,0.02031107433140278
22.0,0.01957103982567787
24.0,0.018894938752055168
26.0,0.018254606053233147
28.0,0.017663918435573578
30.0,0.017109941691160202
32.0,0.016655363142490387
36.0,0.01568986475467682
40.0,0.014854171313345432
44.0,0.014125088229775429
48.0,0.013286245055496693
52.0,0.012566362507641315
56.0,0.011968420818448067
60.0,0.011269125156104565
64.0,0.010593956336379051
72.0,0.00922325812280178
80.0,0.008142349310219288
88.0,0.0077577452175319195
96.0,0.007239969912916422
104.0,0.00686968257650733
112.0,0.006548414938151836
120.0,0.0064279623329639435
128.0,0.006351717747747898
144.0,0.006317008752375841
160.0,0.005608251318335533
176.0,0.0049822451546788216
192.0,0.004601364955306053
208.0,0.005039665848016739
224.0,0.005001972429454327
240.0,0.0045518833212554455
256.0,0.0046994308941066265
288.0,0.005200929939746857
320.0,0.004436600022017956
352.0,0.0042460463009774685
384.0,0.00446361443027854
416.0,0.005002130754292011
448.0,0.004821504931896925
480.0,0.004736266098916531
512.0,0.00382583262398839
576.0,0.0017253074329346418
640.0,0.0021936565171927214
704.0,0.0029181300196796656
768.0,0.002940499922260642
832.0,0.0001904457894852385
896.0,-5.708847311325371e-05
960.0,0.00045298022450879216
1024.0,0.0018798628589138389
1152.0,0.0017598714912310243
1280.0,0.002069283276796341
1408.0,0.0012761416146531701
1536.0,0.0009051761007867754
1664.0,0.0013712369836866856
1792.0,0.0030719249043613672
1920.0,-8.281313057523221e-05
2048.0,-0.0004414212889969349
2304.0,0.0002585792972240597
2560.0,-0.00010799739538924769
2816.0,-0.0009465363691560924
3072.0,0.000574508449062705
3328.0,-0.00045101396972313523
3584.0,-0.001854411093518138
3840.0,-0.0017789164558053017
4096.0,-0.001880091498605907
4608.0,-0.0047337147407233715
5120.0,-0.003637684276327491
5632.0,-0.0025917126331478357
6144.0,-0.0005229154485277832
6656.0,-3.50350710505154e-05
7168.0,-0.0013203878188505769
7680.0,-0.0026535203214734793
8192.0,-0.0002504563017282635
end
