version,3.0
numOfCh,1
type,point
parent_name,34a6d_0dot4-0dot01
ch_type,1_1
kcount,1
numberNandB,1
brightnessNandB,1
carpet pos,0
pc,0
Time (ms),CH1 Auto-Correlation
1.0,0.033568091690540314
2.0,0.03242455795407295
3.0,0.031326230615377426
4.0,0.03027316741645336
5.0,0.02930992841720581
6.0,0.028391946107149124
7.0,0.027548199519515038
8.0,0.02673129178583622
9.0,0.025972208008170128
10.0,0.02523176744580269
11.0,0.02453346736729145
12.0,0.023890439420938492
13.0,0.023237070068717003
14.0,0.02265191823244095
15.0,0.022077351808547974
16.0,0.021561771631240845
18.0,0.02067474275827408
20.0,0.01993454247713089
22.0,0.01921946555376053
24.0,0.01852940209209919
26.0,0.01776818372309208
28.0,0.017036058008670807
30.0,0.016351090744137764
32.0,0.01568891853094101
36.0,0.014420047402381897
40.0,0.01349981315433979
44.0,0.012697704136371613
48.0,0.011775512248277664
52.0,0.010803231038153172
56.0,0.010004034265875816
60.0,0.009338121861219406
64.0,0.008777344599366188
72.0,0.008039877749979496
80.0,0.006790855433791876
88.0,0.0054080905392766
96.0,0.0037773912772536278
104.0,0.002474955515936017
112.0,0.00205748388543725
120.0,0.0019390523666515946
128.0,0.0016804415499791503
144.0,0.00149844354018569
160.0,0.000959404744207859
176.0,0.000577964645344764
192.0,0.000854424259159714
208.0,0.001165413879789412
224.0,0.001661140937358141
240.0,0.0021712863817811012
256.0,0.002704030368477106
288.0,0.003380609443411231
320.0,0.0038790374528616667
352.0,0.004314764868468046
384.0,0.0038283392786979675
416.0,0.00121637515258044
448.0,0.00015847776376176625
480.0,-0.0008130791829898953
512.0,-0.0008679322199895978
576.0,0.0014518434181809425
640.0,0.001729525625705719
704.0,0.0017433346947655082
768.0,0.0005739870830439031
832.0,0.0005168562638573349
896.0,1.9394365153857507e-06
960.0,0.0013765519252046943
1024.0,0.00254248408600688
1152.0,0.000422208133386448
1280.0,0.0012842227006331086
1408.0,0.0004736225528176874
1536.0,0.00018430774798616767
1664.0,-0.0010423788335174322
1792.0,-0.0015082056634128094
1920.0,-0.0030232220888137817
2048.0,-0.0010478890035301447
2304.0,0.0003774921642616391
2560.0,0.00028442704933695495
2816.0,-0.00032827246468514204
3072.0,0.00032409586128778756
3328.0,-0.00012115552090108395
3584.0,-0.00012749998131766915
3840.0,0.0002733186411205679
4096.0,-0.0003947919176425785
4608.0,-0.0006008553900755942
5120.0,0.0007533065509051085
5632.0,0.0013667911989614367
6144.0,-0.00040681398240849376
6656.0,0.0008133973460644484
7168.0,0.0005250819376669824
7680.0,-0.0016244762809947133
8192.0,-0.0017439553048461676
end
