version,3.0
numOfCh,1
type,point
parent_name,34a6d_0dot4-0dot01
ch_type,1_1
kcount,1
numberNandB,1
brightnessNandB,1
carpet pos,0
pc,0
Time (ms),CH1 Auto-Correlation
1.0,0.054109930992126465
2.0,0.053028933703899384
3.0,0.05201004073023796
4.0,0.051060229539871216
5.0,0.0501643605530262
6.0,0.04934719204902649
7.0,0.04859393835067749
8.0,0.047874774783849716
9.0,0.0471692830324173
10.0,0.046483539044857025
11.0,0.045810651034116745
12.0,0.04519704356789589
13.0,0.044626664370298386
14.0,0.044103093445301056
15.0,0.043618783354759216
16.0,0.04316218942403793
18.0,0.042281944304704666
20.0,0.04143200069665909
22.0,0.0406343936920166
24.0,0.03988119214773178
26.0,0.03919370844960213
28.0,0.03859998285770416
30.0,0.038102712482213974
32.0,0.03772692009806633
36.0,0.03713788464665413
40.0,0.03649500012397766
44.0,0.035951919853687286
48.0,0.035401441156864166
52.0,0.03486085310578346
56.0,0.03428543731570244
60.0,0.03389635682106018
64.0,0.03356228396296501
72.0,0.032848384231328964
80.0,0.03210553526878357
88.0,0.03121878392994404
96.0,0.0302432831376791
104.0,0.02946043573319912
112.0,0.028343476355075836
120.0,0.02706480771303177
128.0,0.02591029554605484
144.0,0.024728592485189438
160.0,0.02390662208199501
176.0,0.02296604961156845
192.0,0.021899009123444557
208.0,0.020965861156582832
224.0,0.020471926778554916
240.0,0.020535340532660484
256.0,0.020886452868580818
288.0,0.02104238234460354
320.0,0.020762072876095772
352.0,0.021526388823986053
384.0,0.01997964084148407
416.0,0.01804565079510212
448.0,0.0161141324788332
480.0,0.014570829458534718
512.0,0.013588499277830124
576.0,0.010874534025788307
640.0,0.010633870027959347
704.0,0.012024627067148685
768.0,0.011286458000540733
832.0,0.008142680861055851
896.0,0.005217008292675018
960.0,0.003953341394662857
1024.0,0.0041007730178534985
1152.0,0.0035691310185939074
1280.0,0.0019873124547302723
1408.0,-0.002102128230035305
1536.0,-0.005193630699068308
1664.0,-0.0059301708824932575
1792.0,-0.005702055059373379
1920.0,-0.003890614490956068
2048.0,-0.0019986971747130156
2304.0,-0.0020631030201911926
2560.0,-0.0005253626150079072
2816.0,-0.0018534071277827024
3072.0,-0.00034263095585629344
3328.0,-0.004727377090603113
3584.0,-0.007809601258486509
3840.0,-0.004705345723778009
4096.0,-0.007312331348657608
4608.0,-0.004731368739157915
5120.0,-0.0003136822779197246
5632.0,0.003331861225888133
6144.0,0.008905919268727303
6656.0,0.00122825987637043
7168.0,-0.004481839016079903
7680.0,-0.01698962040245533
8192.0,-0.016528967767953873
end
