version,3.0
numOfCh,1
type,point
parent_name,34a6d_0dot4-0dot01
ch_type,1_1
kcount,1
numberNandB,1
brightnessNandB,1
carpet pos,0
pc,0
Time (ms),CH1 Auto-Correlation
1.0,0.05788902938365936
2.0,0.05674397945404053
3.0,0.05564631149172783
4.0,0.054591093212366104
5.0,0.05362289771437645
6.0,0.05269966274499893
7.0,0.0518294982612133
8.0,0.050995513796806335
9.0,0.05023176595568657
10.0,0.049516212195158005
11.0,0.04885975271463394
12.0,0.04821297526359558
13.0,0.047582898288965225
14.0,0.04700064659118652
15.0,0.046418897807598114
16.0,0.045837633311748505
18.0,0.04475875943899155
20.0,0.043702587485313416
22.0,0.04270647093653679
24.0,0.04187600687146187
26.0,0.04112529382109642
28.0,0.04038159176707268
30.0,0.03965846449136734
32.0,0.03889664635062218
36.0,0.037575315684080124
40.0,0.03631084784865379
44.0,0.03518389165401459
48.0,0.03412957116961479
52.0,0.03321130946278572
56.0,0.03227659687399864
60.0,0.031423695385456085
64.0,0.030563808977603912
72.0,0.02903296984732151
80.0,0.0276655163615942
88.0,0.026433464139699936
96.0,0.02561766467988491
104.0,0.02504144050180912
112.0,0.02452736720442772
120.0,0.02416645549237728
128.0,0.02375204488635063
144.0,0.02318628318607807
160.0,0.022671988233923912
176.0,0.02164302207529545
192.0,0.020569544285535812
208.0,0.018921777606010437
224.0,0.016538001596927643
240.0,0.01505307573825121
256.0,0.014122006483376026
288.0,0.01390975620597601
320.0,0.012960672378540039
352.0,0.012103286571800709
384.0,0.010676691308617592
416.0,0.008476880379021168
448.0,0.007536725606769323
480.0,0.008660854771733284
512.0,0.00860764179378748
576.0,0.003959037363529205
640.0,0.0021760480012744665
704.0,0.0003292905748821795
768.0,4.911445648758672e-05
832.0,0.0006634017918258905
896.0,0.0011325620580464602
960.0,0.0013160144444555044
1024.0,0.002684122184291482
1152.0,0.0063991849310696125
1280.0,0.0064076525159180164
1408.0,0.0026728303637355566
1536.0,0.0028779602143913507
1664.0,0.0011751489946618676
1792.0,0.0022545894607901573
1920.0,0.001318430295214057
2048.0,-0.0022653797641396523
2304.0,-0.0032577794045209885
2560.0,-0.0019391793757677078
2816.0,0.0010717035038396716
3072.0,0.0011348493862897158
3328.0,-0.000251130637479946
3584.0,-0.0033664521761238575
3840.0,-0.009979023598134518
4096.0,-0.014147521927952766
4608.0,-0.013652225956320763
5120.0,-0.012134921737015247
5632.0,-0.0071289194747805595
6144.0,0.00021735121845267713
6656.0,0.0034211641177535057
7168.0,-0.0004903535009361804
7680.0,0.0013584630796685815
8192.0,0.008368127979338169
end
