version,3.0
numOfCh,1
type,point
parent_name,34a6d_0dot4-0dot01
ch_type,1_1
kcount,1
numberNandB,1
brightnessNandB,1
carpet pos,0
pc,0
Time (ms),CH1 Auto-Correlation
1.0,0.08153380453586578
2.0,0.08025284856557846
3.0,0.07901690900325775
4.0,0.07784309983253479
5.0,0.07671385258436203
6.0,0.07565045356750488
7.0,0.07459962368011475
8.0,0.07363811880350113
9.0,0.07271945476531982
10.0,0.07180913537740707
11.0,0.07087131589651108
12.0,0.06995780020952225
13.0,0.06913899630308151
14.0,0.06833042204380035
15.0,0.06759091466665268
16.0,0.06691055744886398
18.0,0.06556981801986694
20.0,0.06420779228210449
22.0,0.0629410371184349
24.0,0.061778474599123
26.0,0.06067914888262749
28.0,0.059611521661281586
30.0,0.05868847295641899
32.0,0.05781526863574982
36.0,0.056252725422382355
40.0,0.054918933659791946
44.0,0.05379022657871246
48.0,0.05269409343600273
52.0,0.05174344778060913
56.0,0.05102013796567917
60.0,0.049973901361227036
64.0,0.0491655133664608
72.0,0.047719892114400864
80.0,0.046034373342990875
88.0,0.045079004019498825
96.0,0.04420396313071251
104.0,0.04318913817405701
112.0,0.04267660900950432
120.0,0.0418580025434494
128.0,0.04106780141592026
144.0,0.04058002308011055
160.0,0.03989475965499878
176.0,0.03867141157388687
192.0,0.03691643849015236
208.0,0.03491421788930893
224.0,0.03344837576150894
240.0,0.032683465629816055
256.0,0.032754190266132355
288.0,0.03250120207667351
320.0,0.033059652894735336
352.0,0.0348651297390461
384.0,0.036048151552677155
416.0,0.03635471314191818
448.0,0.03420098498463631
480.0,0.034861449152231216
512.0,0.03585634380578995
576.0,0.029960528016090393
640.0,0.021974630653858185
704.0,0.0207704845815897
768.0,0.020108748227357864
832.0,0.022380081936717033
896.0,0.024779057130217552
960.0,0.024516895413398743
1024.0,0.019391607493162155
1152.0,0.01185340154916048
1280.0,0.01031775027513504
1408.0,0.013387373648583889
1536.0,0.0063982619903981686
1664.0,0.002318335697054863
1792.0,-0.0003692602040246129
1920.0,0.0017067240551114082
2048.0,-0.007755715399980545
2304.0,-0.006195479072630405
2560.0,-0.010233202017843723
2816.0,-0.006934396922588348
3072.0,-0.012425986118614674
3328.0,-0.013254583813250065
3584.0,-0.027351336553692818
3840.0,-0.03308882936835289
4096.0,-0.03371470794081688
4608.0,-0.026812152937054634
5120.0,-0.01871560886502266
5632.0,-0.005735628306865692
6144.0,0.0025768259074538946
6656.0,-0.0015011319192126393
7168.0,-0.003207999747246504
7680.0,0.002618408063426614
8192.0,0.004703407175838947
end
