version,3.0
numOfCh,1
type,point
parent_name,34766_0dot069-1dot0
ch_type,1_1
kcount,1
numberNandB,1
brightnessNandB,1
carpet pos,0
pc,0
Time (ms),CH1 Auto-Correlation
1.0,0.08221936970949173
2.0,0.08110824972391129
3.0,0.08000259846448898
4.0,0.07907471060752869
5.0,0.07826779037714005
6.0,0.07750052958726883
7.0,0.07674220204353333
8.0,0.07607106864452362
9.0,0.07541563361883163
10.0,0.07480119168758392
11.0,0.07424359768629074
12.0,0.07370501756668091
13.0,0.07322614639997482
14.0,0.07272035628557205
15.0,0.07230471074581146
16.0,0.07184670120477676
18.0,0.0709410011768341
20.0,0.07007871568202972
22.0,0.06920944899320602
24.0,0.06834151595830917
26.0,0.06747668981552124
28.0,0.06661403179168701
30.0,0.06581875681877136
32.0,0.06512570381164551
36.0,0.06403621286153793
40.0,0.06296747177839279
44.0,0.061862848699092865
48.0,0.06087546795606613
52.0,0.059683576226234436
56.0,0.05832919105887413
60.0,0.057315949350595474
64.0,0.05650709196925163
72.0,0.05484261363744736
80.0,0.05310877412557602
88.0,0.05128014460206032
96.0,0.0493905283510685
104.0,0.047650955617427826
112.0,0.04602085053920746
120.0,0.04425695538520813
128.0,0.04250305891036987
144.0,0.03913571313023567
160.0,0.035205110907554626
176.0,0.031535468995571136
192.0,0.029106134548783302
208.0,0.026618560776114464
224.0,0.02450593374669552
240.0,0.0222582146525383
256.0,0.019817881286144257
288.0,0.016889508813619614
320.0,0.013394525274634361
352.0,0.01144091971218586
384.0,0.010159802623093128
416.0,0.00980420783162117
448.0,0.009894615970551968
480.0,0.00923147238790989
512.0,0.008443069644272327
576.0,0.007379236631095409
640.0,0.006919558625668287
704.0,0.006834834348410368
768.0,0.00567190395668149
832.0,0.004518277943134308
896.0,0.003742657136172056
960.0,0.00011562108556972817
1024.0,-0.003603051882237196
1152.0,-0.0009830081835389137
1280.0,0.005989910569041967
1408.0,0.010898219421505928
1536.0,0.01509352307766676
1664.0,0.010081217624247074
1792.0,0.0037555359303951263
1920.0,0.0014020341914147139
2048.0,0.00018255466420669109
2304.0,-0.00035505075356923044
2560.0,-0.010766335763037205
2816.0,-0.011669437400996685
3072.0,-0.002285607857629657
3328.0,-0.009142660535871983
3584.0,-0.005704057868570089
3840.0,-0.0028483045753091574
4096.0,-0.016263026744127274
4608.0,0.003917228430509567
5120.0,0.010425727814435959
5632.0,0.0011411734158173203
6144.0,0.011662138625979424
6656.0,0.009300810284912586
7168.0,0.002224833471700549
7680.0,0.002976315328851342
8192.0,-0.0075845918618142605
end
