version,3.0
numOfCh,1
type,point
parent_name,34766_0dot069-1dot0
ch_type,1_1
kcount,1
numberNandB,1
brightnessNandB,1
carpet pos,0
pc,0
Time (ms),CH1 Auto-Correlation
1.0,0.07663701474666595
2.0,0.07592317461967468
3.0,0.07525227218866348
4.0,0.07457796484231949
5.0,0.07397540658712387
6.0,0.07339371740818024
7.0,0.07282108813524246
8.0,0.07228792458772659
9.0,0.07180875539779663
10.0,0.07130007445812225
11.0,0.07086287438869476
12.0,0.07041135430335999
13.0,0.06995998322963715
14.0,0.06952221691608429
15.0,0.06906470656394958
16.0,0.06858771294355392
18.0,0.0677170678973198
20.0,0.06687221676111221
22.0,0.06601353734731674
24.0,0.065143883228302
26.0,0.0643278956413269
28.0,0.06351183354854584
30.0,0.06272957473993301
32.0,0.0619986355304718
36.0,0.06061422824859619
40.0,0.059145376086235046
44.0,0.057690735906362534
48.0,0.056345824152231216
52.0,0.055109165608882904
56.0,0.05397948622703552
60.0,0.05294184386730194
64.0,0.05200896039605141
72.0,0.05028824135661125
80.0,0.048654135316610336
88.0,0.047086622565984726
96.0,0.04547792673110962
104.0,0.043776631355285645
112.0,0.04227069020271301
120.0,0.04060469940304756
128.0,0.03892603516578674
144.0,0.03572797775268555
160.0,0.03310759738087654
176.0,0.03100094571709633
192.0,0.028940090909600258
208.0,0.027022961527109146
224.0,0.02553635649383068
240.0,0.023723924532532692
256.0,0.022309444844722748
288.0,0.020664118230342865
320.0,0.01894455961883068
352.0,0.016562748700380325
384.0,0.015003401786088943
416.0,0.01428406871855259
448.0,0.012293785810470581
480.0,0.010573159903287888
512.0,0.009307855740189552
576.0,0.008793935179710388
640.0,0.009332017973065376
704.0,0.009290422312915325
768.0,0.009350421838462353
832.0,0.010640956461429596
896.0,0.014297000132501125
960.0,0.01591026410460472
1024.0,0.014827181585133076
1152.0,0.005414075683802366
1280.0,-0.0017809005221351981
1408.0,-0.006912657991051674
1536.0,-0.01062660850584507
1664.0,-0.014096949249505997
1792.0,-0.009287501685321331
1920.0,0.0008304338552989066
2048.0,0.0022762580774724483
2304.0,-0.007285476662218571
2560.0,-0.01401340402662754
2816.0,-0.00428773881867528
3072.0,0.002681029960513115
3328.0,0.0008450709865428507
3584.0,0.0004653903597500175
3840.0,0.0007527511916123331
4096.0,0.002251621801406145
4608.0,-0.01851247437298298
5120.0,-0.02490328438580036
5632.0,-0.015316084958612919
6144.0,-0.005199817009270191
6656.0,0.0017244078917428851
7168.0,0.00870942510664463
7680.0,0.007391891907900572
8192.0,-0.003053727326914668
end
