version,3.0
numOfCh,1
type,point
parent_name,34766_0dot069-1dot0
ch_type,1_1
kcount,1
numberNandB,1
brightnessNandB,1
carpet pos,0
pc,0
Time (ms),CH1 Auto-Correlation
1.0,0.09649451076984406
2.0,0.0955713763833046
3.0,0.09471433609724045
4.0,0.09397905319929123
5.0,0.093233622610569
6.0,0.09247845411300659
7.0,0.09182153642177582
8.0,0.09125548601150513
9.0,0.09070165455341339
10.0,0.09007161855697632
11.0,0.08948910236358643
12.0,0.08889351785182953
13.0,0.08829596638679504
14.0,0.08780129998922348
15.0,0.08727647364139557
16.0,0.08681318908929825
18.0,0.08584126085042953
20.0,0.08488957583904266
22.0,0.0840151458978653
24.0,0.08321297913789749
26.0,0.08248753845691681
28.0,0.08171536028385162
30.0,0.08090024441480637
32.0,0.08013647049665451
36.0,0.07874860614538193
40.0,0.07749016582965851
44.0,0.07628560066223145
48.0,0.07516732811927795
52.0,0.07411614060401917
56.0,0.07298380881547928
60.0,0.07191091775894165
64.0,0.07089058309793472
72.0,0.06879314035177231
80.0,0.06697149574756622
88.0,0.06517203897237778
96.0,0.06373089551925659
104.0,0.06255422532558441
112.0,0.06154979020357132
120.0,0.06053592264652252
128.0,0.05948978662490845
144.0,0.058233607560396194
160.0,0.05675407499074936
176.0,0.05452176183462143
192.0,0.05217175930738449
208.0,0.05012383684515953
224.0,0.048144612461328506
240.0,0.0464526005089283
256.0,0.045118894428014755
288.0,0.04248756542801857
320.0,0.03968259319663048
352.0,0.037345100194215775
384.0,0.03331228345632553
416.0,0.029363326728343964
448.0,0.026048969477415085
480.0,0.022793803364038467
512.0,0.020160194486379623
576.0,0.015880990773439407
640.0,0.01521940715610981
704.0,0.012242229655385017
768.0,0.01062016561627388
832.0,0.008385069668293
896.0,0.005149938631802797
960.0,0.008121144957840443
1024.0,0.00877019576728344
1152.0,0.003510286333039403
1280.0,-0.0008635403937660158
1408.0,0.002660529688000679
1536.0,0.003847146639600396
1664.0,0.007443425245583057
1792.0,0.003120103385299444
1920.0,-0.0009482549503445625
2048.0,-0.0001345892669633031
2304.0,-0.0015875179087743163
2560.0,-0.010588250122964382
2816.0,-0.02734486013650894
3072.0,-0.029260490089654922
3328.0,-0.016803402453660965
3584.0,-0.014231234788894653
3840.0,-0.013436841778457165
4096.0,-0.008684788830578327
4608.0,-0.011924682185053825
5120.0,-0.017040841281414032
5632.0,-0.01657981611788273
6144.0,-0.019109709188342094
6656.0,-0.015818852931261063
7168.0,0.009761521592736244
7680.0,0.015879951417446136
8192.0,0.01823446899652481
end
