version,3.0
numOfCh,1
type,point
parent_name,34766_0dot069-1dot0
ch_type,1_1
kcount,1
numberNandB,1
brightnessNandB,1
carpet pos,0
pc,0
Time (ms),CH1 Auto-Correlation
1.0,0.07266306132078171
2.0,0.07160774618387222
3.0,0.07071006298065186
4.0,0.06984544545412064
5.0,0.06904271990060806
6.0,0.06833646446466446
7.0,0.06759756803512573
8.0,0.0668923631310463
9.0,0.06625965982675552
10.0,0.06556092947721481
11.0,0.06492868810892105
12.0,0.06428941339254379
13.0,0.06369616091251373
14.0,0.06312369555234909
15.0,0.06256559491157532
16.0,0.06197741627693176
18.0,0.06080343946814537
20.0,0.059728268533945084
22.0,0.05871041864156723
24.0,0.05768357962369919
26.0,0.05668332800269127
28.0,0.05572239309549332
30.0,0.054862625896930695
32.0,0.05406215041875839
36.0,0.05268852412700653
40.0,0.051544006913900375
44.0,0.05031987279653549
48.0,0.04897496849298477
52.0,0.04769077152013779
56.0,0.04640459641814232
60.0,0.045000165700912476
64.0,0.04371050372719765
72.0,0.0412527434527874
80.0,0.03896861895918846
88.0,0.03698699176311493
96.0,0.03526202589273453
104.0,0.03382051736116409
112.0,0.03238210082054138
120.0,0.03086189366877079
128.0,0.029439684003591537
144.0,0.026853302493691444
160.0,0.023259362205863
176.0,0.020564351230859756
192.0,0.018163295462727547
208.0,0.015631331130862236
224.0,0.013886886648833752
240.0,0.011906360276043415
256.0,0.010383060202002525
288.0,0.007961586117744446
320.0,0.007643949240446091
352.0,0.006443976890295744
384.0,0.0038332322146743536
416.0,0.0005682723713107407
448.0,-0.0015944336773827672
480.0,-0.0034087589010596275
512.0,-0.002385516883805394
576.0,0.0002826569543685764
640.0,0.0012334397761151195
704.0,0.003963833674788475
768.0,0.005206416826695204
832.0,0.00692567927762866
896.0,0.009169017896056175
960.0,0.009305627085268497
1024.0,0.0067823901772499084
1152.0,0.0054785339161753654
1280.0,0.003484018612653017
1408.0,0.004814563784748316
1536.0,0.003448990872129798
1664.0,-0.0015026264591142535
1792.0,-0.0072486670687794685
1920.0,-0.006970188580453396
2048.0,-0.002890330273658037
2304.0,0.002232697792351246
2560.0,-0.0013351684901863337
2816.0,-0.0060416474007070065
3072.0,-0.002731062239035964
3328.0,-0.004619881976395845
3584.0,-0.007652552332729101
3840.0,-0.004857706371694803
4096.0,-0.0006939300219528377
4608.0,-0.00045497313840314746
5120.0,0.012710977345705032
5632.0,0.005022644996643066
6144.0,0.0024071044754236937
6656.0,-0.001627156394533813
7168.0,-0.010598761960864067
7680.0,-0.005797792226076126
8192.0,-0.006041142623871565
end
