version,3.0
numOfCh,1
type,point
parent_name,34766_0dot069-1dot0
ch_type,1_1
kcount,1
numberNandB,1
brightnessNandB,1
carpet pos,0
pc,0
Time (ms),CH1 Auto-Correlation
1.0,0.1391664743423462
2.0,0.13793502748012543
3.0,0.13701701164245605
4.0,0.13618317246437073
5.0,0.1353430151939392
6.0,0.13457371294498444
7.0,0.13398458063602448
8.0,0.1333504170179367
9.0,0.13277657330036163
10.0,0.13224296271800995
11.0,0.1317213922739029
12.0,0.13124032318592072
13.0,0.13071654736995697
14.0,0.13020369410514832
15.0,0.12974944710731506
16.0,0.12932415306568146
18.0,0.12832988798618317
20.0,0.12737591564655304
22.0,0.12646950781345367
24.0,0.12566900253295898
26.0,0.12494166940450668
28.0,0.12425390630960464
30.0,0.12350093573331833
32.0,0.12277957797050476
36.0,0.12131420522928238
40.0,0.11990968137979507
44.0,0.11846919357776642
48.0,0.11716891825199127
52.0,0.11611353605985641
56.0,0.11501837521791458
60.0,0.11392617225646973
64.0,0.11297252774238586
72.0,0.11081971228122711
80.0,0.10873324424028397
88.0,0.10625994950532913
96.0,0.10418736934661865
104.0,0.10177427530288696
112.0,0.09946709126234055
120.0,0.09738396853208542
128.0,0.09559109807014465
144.0,0.09305174648761749
160.0,0.09131883829832077
176.0,0.08950233459472656
192.0,0.0879913866519928
208.0,0.086331307888031
224.0,0.08505186438560486
240.0,0.08465708792209625
256.0,0.08455602079629898
288.0,0.08498804271221161
320.0,0.08500858396291733
352.0,0.08396071940660477
384.0,0.08192194253206253
416.0,0.07935712486505508
448.0,0.07751167565584183
480.0,0.07615498453378677
512.0,0.07536077499389648
576.0,0.07304169982671738
640.0,0.06976242363452911
704.0,0.0677897110581398
768.0,0.06566950678825378
832.0,0.062014155089855194
896.0,0.0587223581969738
960.0,0.05799843370914459
1024.0,0.05756029859185219
1152.0,0.05159224197268486
1280.0,0.04663051664829254
1408.0,0.03601511940360069
1536.0,0.018312912434339523
1664.0,0.007100793067365885
1792.0,-0.0020611670333892107
1920.0,-0.009527182206511497
2048.0,-0.01747860200703144
2304.0,-0.027828803285956383
2560.0,-0.03838234767317772
2816.0,-0.055827796459198
3072.0,-0.06631099432706833
3328.0,-0.07799329608678818
3584.0,-0.08111269026994705
3840.0,-0.07888421416282654
4096.0,-0.07202835381031036
4608.0,-0.05797993019223213
5120.0,-0.025634335353970528
5632.0,0.002381781814619899
6144.0,0.029505982995033264
6656.0,0.05672423541545868
7168.0,0.0696847140789032
7680.0,0.06872192025184631
8192.0,0.0428706556558609
end
