version,3.0
numOfCh,1
type,point
parent_name,34766_0dot069-1dot0
ch_type,1_1
kcount,1
numberNandB,1
brightnessNandB,1
carpet pos,0
pc,0
Time (ms),CH1 Auto-Correlation
1.0,0.0714648962020874
2.0,0.07013627886772156
3.0,0.06902085989713669
4.0,0.06837212294340134
5.0,0.06775382161140442
6.0,0.067200668156147
7.0,0.0665530413389206
8.0,0.06599067896604538
9.0,0.06548197567462921
10.0,0.06497372686862946
11.0,0.06452004611492157
12.0,0.0640852302312851
13.0,0.06353539228439331
14.0,0.06308124959468842
15.0,0.06265293061733246
16.0,0.06220231577754021
18.0,0.06124310567975044
20.0,0.06033440679311752
22.0,0.059478357434272766
24.0,0.05851346626877785
26.0,0.05763750523328781
28.0,0.0567457340657711
30.0,0.055717833340168
32.0,0.05480591952800751
36.0,0.05319192260503769
40.0,0.05159750208258629
44.0,0.050181977450847626
48.0,0.04864666983485222
52.0,0.04723590239882469
56.0,0.04566643759608269
60.0,0.04431184008717537
64.0,0.04311675578355789
72.0,0.040292445570230484
80.0,0.03773405775427818
88.0,0.03553834930062294
96.0,0.03349943086504936
104.0,0.031661760061979294
112.0,0.029759317636489868
120.0,0.027750587090849876
128.0,0.02581886202096939
144.0,0.022476213052868843
160.0,0.019828643649816513
176.0,0.01754382625222206
192.0,0.01562701165676117
208.0,0.013425546698272228
224.0,0.011912472546100616
240.0,0.011304360814392567
256.0,0.010858201421797276
288.0,0.009828323498368263
320.0,0.008742701262235641
352.0,0.006789163686335087
384.0,0.003486515488475561
416.0,0.0005787076079286635
448.0,-0.0019272706704214215
480.0,-0.004481358919292688
512.0,-0.004680640529841185
576.0,-0.002381800441071391
640.0,0.002303925110027194
704.0,0.006643230561167002
768.0,0.00932355411350727
832.0,0.011158937588334084
896.0,0.01173560693860054
960.0,0.012320810928940773
1024.0,0.014996441081166267
1152.0,0.010013421066105366
1280.0,0.0007999107474461198
1408.0,-0.001732217613607645
1536.0,0.0038204416632652283
1664.0,0.009886172600090504
1792.0,0.013873155228793621
1920.0,0.014601688832044601
2048.0,0.008779722265899181
2304.0,0.006893443875014782
2560.0,0.002967611188068986
2816.0,0.002298510167747736
3072.0,0.00588433351367712
3328.0,0.00911174900829792
3584.0,0.006507153622806072
3840.0,0.006640992127358913
4096.0,0.00032612221548333764
4608.0,-0.005798103753477335
5120.0,-0.009229307062923908
5632.0,-0.0026364424265921116
6144.0,-0.010321581736207008
6656.0,-0.004094946663826704
7168.0,-0.006388249807059765
7680.0,-0.010559124872088432
8192.0,-0.01262472104281187
end
