version,3.0
numOfCh,1
type,point
parent_name,34766_0dot069-1dot0
ch_type,1_1
kcount,1
numberNandB,1
brightnessNandB,1
carpet pos,0
pc,0
Time (ms),CH1 Auto-Correlation
1.0,0.07140267640352249
2.0,0.07046117633581161
3.0,0.06966584920883179
4.0,0.068989098072052
5.0,0.06832920014858246
6.0,0.06767523288726807
7.0,0.06705638021230698
8.0,0.0664796382188797
9.0,0.06587963551282883
10.0,0.0652487725019455
11.0,0.0646677017211914
12.0,0.06409280747175217
13.0,0.0635819211602211
14.0,0.06306571513414383
15.0,0.06253845989704132
16.0,0.06199949234724045
18.0,0.06096527352929115
20.0,0.05996746942400932
22.0,0.05897773057222366
24.0,0.058039113879203796
26.0,0.057183802127838135
28.0,0.05635387822985649
30.0,0.055486634373664856
32.0,0.054694678634405136
36.0,0.05319525673985481
40.0,0.051673226058483124
44.0,0.05019158869981766
48.0,0.04877173900604248
52.0,0.047350622713565826
56.0,0.04598419740796089
60.0,0.04473062604665756
64.0,0.04358445480465889
72.0,0.041523277759552
80.0,0.039818763732910156
88.0,0.038354963064193726
96.0,0.03695158287882805
104.0,0.035793744027614594
112.0,0.034552641212940216
120.0,0.033313486725091934
128.0,0.03219093009829521
144.0,0.030015822499990463
160.0,0.027078375220298767
176.0,0.024354662746191025
192.0,0.022487808018922806
208.0,0.021015528589487076
224.0,0.019432133063673973
240.0,0.018151922151446342
256.0,0.016401343047618866
288.0,0.01230662502348423
320.0,0.008713982068002224
352.0,0.006164501886814833
384.0,0.004580697510391474
416.0,0.0022383714094758034
448.0,0.0007937841000966728
480.0,0.0007474229205399752
512.0,0.0018504298059269786
576.0,0.003805474378168583
640.0,0.002454469446092844
704.0,0.003164145164191723
768.0,0.004042693413794041
832.0,0.004576819483190775
896.0,0.004735128488391638
960.0,0.0057058557868003845
1024.0,0.005576490890234709
1152.0,-0.0029452447779476643
1280.0,-0.002679584315046668
1408.0,-0.0007383498013950884
1536.0,0.0020167436450719833
1664.0,-0.003129410557448864
1792.0,-0.00992000661790371
1920.0,-0.012477634474635124
2048.0,-0.007952936924993992
2304.0,0.0023429535795003176
2560.0,0.0020903118420392275
2816.0,0.002788604935631156
3072.0,0.0033427465241402388
3328.0,0.001881199423223734
3584.0,-0.0026594395749270916
3840.0,-0.009203576482832432
4096.0,-0.01294536143541336
4608.0,-0.005628517363220453
5120.0,0.0007295162067748606
5632.0,0.0019475040026009083
6144.0,0.006150515750050545
6656.0,-0.004607717040926218
7168.0,-0.009092136286199093
7680.0,-0.020902883261442184
8192.0,-0.0022762734442949295
end
