version,3.0
numOfCh,1
type,point
parent_name,34766_0dot069-1dot0
ch_type,1_1
kcount,1
numberNandB,1
brightnessNandB,1
carpet pos,0
pc,0
Time (ms),CH1 Auto-Correlation
1.0,0.07592678815126419
2.0,0.07498876750469208
3.0,0.07423219829797745
4.0,0.07359298318624496
5.0,0.07294802367687225
6.0,0.07232341915369034
7.0,0.07170420140028
8.0,0.07118377089500427
9.0,0.07069616764783859
10.0,0.07026732712984085
11.0,0.06976618617773056
12.0,0.06933724880218506
13.0,0.06896407157182693
14.0,0.0686144158244133
15.0,0.0682191401720047
16.0,0.0678095817565918
18.0,0.06699580699205399
20.0,0.06617459654808044
22.0,0.06529459357261658
24.0,0.06441562622785568
26.0,0.06351325660943985
28.0,0.0626688301563263
30.0,0.06183352693915367
32.0,0.0610121414065361
36.0,0.05948665365576744
40.0,0.05800288915634155
44.0,0.056532882153987885
48.0,0.0551631823182106
52.0,0.05393621698021889
56.0,0.05283041670918465
60.0,0.051637303084135056
64.0,0.050464656203985214
72.0,0.04821335896849632
80.0,0.04636341333389282
88.0,0.044891539961099625
96.0,0.043697625398635864
104.0,0.04244389757514
112.0,0.041451748460531235
120.0,0.040111392736434937
128.0,0.03902451694011688
144.0,0.037090931087732315
160.0,0.03565756976604462
176.0,0.03462973237037659
192.0,0.033176254481077194
208.0,0.03150034323334694
224.0,0.030324766412377357
240.0,0.029324619099497795
256.0,0.028157591819763184
288.0,0.026441942900419235
320.0,0.02429819665849209
352.0,0.022805238142609596
384.0,0.02156543731689453
416.0,0.01971006579697132
448.0,0.01750297285616398
480.0,0.016505278646945953
512.0,0.016066912561655045
576.0,0.012746099382638931
640.0,0.009577246382832527
704.0,0.0072371563874185085
768.0,0.006626768968999386
832.0,0.007011500187218189
896.0,0.005806641653180122
960.0,0.0039660874754190445
1024.0,0.0027180316392332315
1152.0,0.0044672926887869835
1280.0,0.006562988739460707
1408.0,0.003935650456696749
1536.0,0.003358380403369665
1664.0,0.003016941947862506
1792.0,0.0026544430293142796
1920.0,0.0018565241480246186
2048.0,0.007834802381694317
2304.0,0.00800333172082901
2560.0,0.010919978842139244
2816.0,0.003180088009685278
3072.0,0.0054269409738481045
3328.0,0.007446862757205963
3584.0,-0.0004095177282579243
3840.0,-0.0012937053106725216
4096.0,-0.007647518999874592
4608.0,0.008154310286045074
5120.0,0.009704042226076126
5632.0,0.0027694329619407654
6144.0,-0.004177698399871588
6656.0,-0.0069427392445504665
7168.0,0.0009528619702905416
7680.0,-0.0005754701560363173
8192.0,-0.0018992772093042731
end
