version,3.0
numOfCh,1
type,point
parent_name,34766_0dot069-1dot0
ch_type,1_1
kcount,1
numberNandB,1
brightnessNandB,1
carpet pos,0
pc,0
Time (ms),CH1 Auto-Correlation
1.0,0.08426288515329361
2.0,0.08314680308103561
3.0,0.0822509229183197
4.0,0.08142571151256561
5.0,0.08076296001672745
6.0,0.08011957257986069
7.0,0.07947208732366562
8.0,0.07888558506965637
9.0,0.07824759930372238
10.0,0.07758639752864838
11.0,0.07697990536689758
12.0,0.0764252096414566
13.0,0.07588156312704086
14.0,0.07542762905359268
15.0,0.07491108030080795
16.0,0.0744243636727333
18.0,0.07347672432661057
20.0,0.07259635627269745
22.0,0.0716819167137146
24.0,0.07083072513341904
26.0,0.06989365071058273
28.0,0.06899239122867584
30.0,0.06816060841083527
32.0,0.06740029156208038
36.0,0.06570682674646378
40.0,0.06429305672645569
44.0,0.06301050633192062
48.0,0.0616748183965683
52.0,0.06029421463608742
56.0,0.05888301506638527
60.0,0.05728449672460556
64.0,0.0558105893433094
72.0,0.05302690714597702
80.0,0.05061919242143631
88.0,0.04826466739177704
96.0,0.04602561891078949
104.0,0.044239066541194916
112.0,0.042747534811496735
120.0,0.04147900640964508
128.0,0.04032443091273308
144.0,0.037967994809150696
160.0,0.03620065003633499
176.0,0.034036003053188324
192.0,0.0317712239921093
208.0,0.028805334120988846
224.0,0.025630280375480652
240.0,0.022972526028752327
256.0,0.020423468202352524
288.0,0.014989043585956097
320.0,0.010648357681930065
352.0,0.007775332313030958
384.0,0.007314605638384819
416.0,0.007127359043806791
448.0,0.00730303255841136
480.0,0.006787354126572609
512.0,0.006133488845080137
576.0,0.00724285701289773
640.0,0.004029055591672659
704.0,0.000976794632151723
768.0,0.0012926174094900489
832.0,0.0021852850914001465
896.0,-0.00041445589158684015
960.0,-0.0030070715583860874
1024.0,-0.002666429616510868
1152.0,-0.004274754319339991
1280.0,-0.008711395785212517
1408.0,-0.014083726331591606
1536.0,-0.011849121190607548
1664.0,-0.009488456882536411
1792.0,-0.01123878825455904
1920.0,-0.015673978254199028
2048.0,-0.01655663549900055
2304.0,-0.015382864512503147
2560.0,-0.009860287420451641
2816.0,0.004856405779719353
3072.0,0.007249312940984964
3328.0,0.0008251423132605851
3584.0,0.0022548099514096975
3840.0,0.006474257912486792
4096.0,0.007865414023399353
4608.0,-0.005241179373115301
5120.0,-0.015200024470686913
5632.0,-0.012613000348210335
6144.0,-0.002090261783450842
6656.0,0.0027701810467988253
7168.0,0.00983357708901167
7680.0,-0.007935929112136364
8192.0,0.0005204117042012513
end
