version,3.0
numOfCh,1
type,point
parent_name,34766_0dot069-1dot0
ch_type,1_1
kcount,1
numberNandB,1
brightnessNandB,1
carpet pos,0
pc,0
Time (ms),CH1 Auto-Correlation
1.0,0.13078860938549042
2.0,0.13001491129398346
3.0,0.129335418343544
4.0,0.12867988646030426
5.0,0.12804614007472992
6.0,0.1274712234735489
7.0,0.1269039660692215
8.0,0.1263323575258255
9.0,0.12574945390224457
10.0,0.12519536912441254
11.0,0.1246848851442337
12.0,0.12419623136520386
13.0,0.12369456887245178
14.0,0.12320923060178757
15.0,0.12268775701522827
16.0,0.12216979265213013
18.0,0.12108326703310013
20.0,0.12004340440034866
22.0,0.11901478469371796
24.0,0.11807507276535034
26.0,0.1171693205833435
28.0,0.11630156636238098
30.0,0.11544030159711838
32.0,0.11461912095546722
36.0,0.11303555220365524
40.0,0.11153444647789001
44.0,0.11014855653047562
48.0,0.10887846350669861
52.0,0.10758399963378906
56.0,0.10645005851984024
60.0,0.10542052239179611
64.0,0.10432732105255127
72.0,0.10239612311124802
80.0,0.10059607774019241
88.0,0.09879560023546219
96.0,0.09696101397275925
104.0,0.09503741562366486
112.0,0.09307169914245605
120.0,0.09102078527212143
128.0,0.08915702253580093
144.0,0.08600440621376038
160.0,0.0838531032204628
176.0,0.08190156519412994
192.0,0.08037884533405304
208.0,0.07874296605587006
224.0,0.0765908733010292
240.0,0.07416576147079468
256.0,0.07184390723705292
288.0,0.06816720962524414
320.0,0.06565981358289719
352.0,0.06374350190162659
384.0,0.06173010542988777
416.0,0.05867268517613411
448.0,0.05531022697687149
480.0,0.05181530490517616
512.0,0.048602283000946045
576.0,0.04336542636156082
640.0,0.0369681753218174
704.0,0.0321723148226738
768.0,0.02870604768395424
832.0,0.02438630722463131
896.0,0.022056113928556442
960.0,0.019899629056453705
1024.0,0.02082693763077259
1152.0,0.01793646812438965
1280.0,0.016022244468331337
1408.0,0.02214140258729458
1536.0,0.025935931131243706
1664.0,0.026022234931588173
1792.0,0.024065155535936356
1920.0,0.027377385646104813
2048.0,0.030765267089009285
2304.0,0.026397882029414177
2560.0,0.02295580320060253
2816.0,0.02112334407866001
3072.0,0.012781201861798763
3328.0,0.0025382922030985355
3584.0,0.0029674251563847065
3840.0,0.008741664700210094
4096.0,0.01582224853336811
4608.0,0.00797648448497057
5120.0,0.0024380593094974756
5632.0,-0.013987681828439236
6144.0,-0.016267674043774605
6656.0,-0.03348463773727417
7168.0,-0.041578833013772964
7680.0,-0.024625195190310478
8192.0,-0.017477644607424736
end
