version,3.0
numOfCh,1
type,point
parent_name,34766_0dot069-1dot0
ch_type,1_1
kcount,1
numberNandB,1
brightnessNandB,1
carpet pos,0
pc,0
Time (ms),CH1 Auto-Correlation
1.0,0.10717011988162994
2.0,0.10564548522233963
3.0,0.10435175895690918
4.0,0.10326582193374634
5.0,0.10230885446071625
6.0,0.10141351819038391
7.0,0.10056758671998978
8.0,0.09979432821273804
9.0,0.09905705600976944
10.0,0.09841093420982361
11.0,0.09778103232383728
12.0,0.09715507924556732
13.0,0.09650395810604095
14.0,0.09585122764110565
15.0,0.09522823989391327
16.0,0.09468217939138412
18.0,0.09363573044538498
20.0,0.09253857284784317
22.0,0.09171304106712341
24.0,0.09086642414331436
26.0,0.08999338001012802
28.0,0.08918692916631699
30.0,0.08838098496198654
32.0,0.08757450431585312
36.0,0.08622577786445618
40.0,0.08486675471067429
44.0,0.08349122852087021
48.0,0.08218474686145782
52.0,0.08088158071041107
56.0,0.07963141053915024
60.0,0.0784090980887413
64.0,0.07728589326143265
72.0,0.07557140290737152
80.0,0.0739566832780838
88.0,0.07268005609512329
96.0,0.07125144451856613
104.0,0.06954848766326904
112.0,0.06842536479234695
120.0,0.0672096461057663
128.0,0.06619980186223984
144.0,0.0647059753537178
160.0,0.06237178295850754
176.0,0.06042031943798065
192.0,0.058272834867239
208.0,0.05612238124012947
224.0,0.054518938064575195
240.0,0.053510453552007675
256.0,0.05291297286748886
288.0,0.053317319601774216
320.0,0.052459150552749634
352.0,0.05035603791475296
384.0,0.04798056185245514
416.0,0.044017307460308075
448.0,0.039996154606342316
480.0,0.03672393411397934
512.0,0.03566163033246994
576.0,0.03447515517473221
640.0,0.035842545330524445
704.0,0.03857607766985893
768.0,0.03742721304297447
832.0,0.03200683742761612
896.0,0.029078921303153038
960.0,0.029313646256923676
1024.0,0.030449680984020233
1152.0,0.02414519153535366
1280.0,0.016299033537507057
1408.0,0.01165206078439951
1536.0,0.004412212874740362
1664.0,-0.0014012885512784123
1792.0,0.0020952916238456964
1920.0,0.00029397543403320014
2048.0,-0.005654680076986551
2304.0,-0.01088066678494215
2560.0,-0.021034834906458855
2816.0,-0.028529874980449677
3072.0,-0.033763132989406586
3328.0,-0.047720182687044144
3584.0,-0.05064825341105461
3840.0,-0.04616708680987358
4096.0,-0.04248090088367462
4608.0,-0.030760852620005608
5120.0,-0.01293469499796629
5632.0,-0.005561539437621832
6144.0,0.00912497192621231
6656.0,0.02502574399113655
7168.0,0.03204210475087166
7680.0,0.02876020222902298
8192.0,0.017673145979642868
end
