version,3.0
numOfCh,1
type,point
parent_name,34766_0dot069-1dot0
ch_type,1_1
kcount,1
numberNandB,1
brightnessNandB,1
carpet pos,0
pc,0
Time (ms),CH1 Auto-Correlation
1.0,0.08371461182832718
2.0,0.08294264227151871
3.0,0.08225157856941223
4.0,0.08162029832601547
5.0,0.0810040757060051
6.0,0.08041088283061981
7.0,0.0798092633485794
8.0,0.07923337817192078
9.0,0.07868175208568573
10.0,0.07810262590646744
11.0,0.07752084732055664
12.0,0.07695747166872025
13.0,0.0764193907380104
14.0,0.07590249180793762
15.0,0.0753730833530426
16.0,0.07483313977718353
18.0,0.07386542111635208
20.0,0.07298736274242401
22.0,0.0720628947019577
24.0,0.0711335614323616
26.0,0.07029348611831665
28.0,0.0694969892501831
30.0,0.06876996904611588
32.0,0.06804466992616653
36.0,0.06668403744697571
40.0,0.06547752022743225
44.0,0.06425236165523529
48.0,0.06300519406795502
52.0,0.06178717687726021
56.0,0.06061596795916557
60.0,0.05948491767048836
64.0,0.05833332613110542
72.0,0.05613812804222107
80.0,0.05416960269212723
88.0,0.05236217379570007
96.0,0.05064905807375908
104.0,0.048990070819854736
112.0,0.047153737396001816
120.0,0.045581672340631485
128.0,0.04429898038506508
144.0,0.04161684960126877
160.0,0.038197703659534454
176.0,0.03411145880818367
192.0,0.030169211328029633
208.0,0.027089959010481834
224.0,0.02389930561184883
240.0,0.020897772163152695
256.0,0.018185369670391083
288.0,0.014050868339836597
320.0,0.010327069088816643
352.0,0.0069584292359650135
384.0,0.0047088731080293655
416.0,0.0022341699805110693
448.0,0.0004914408782497048
480.0,-0.0013381626922637224
512.0,-0.0021642951760441065
576.0,0.00012323418923188
640.0,0.00300344405695796
704.0,0.005214290227741003
768.0,0.006669303867965937
832.0,0.007990377955138683
896.0,0.01010433305054903
960.0,0.011767431162297726
1024.0,0.012063487432897091
1152.0,0.008785241283476353
1280.0,0.0037432066164910793
1408.0,0.0018301403615623713
1536.0,-0.0031079540494829416
1664.0,-0.0017782356590032578
1792.0,-0.0014379988424479961
1920.0,0.0037412112578749657
2048.0,0.010406753979623318
2304.0,0.004374865908175707
2560.0,-0.005504122003912926
2816.0,-0.0012226742692291737
3072.0,0.002611541422083974
3328.0,0.004675872158259153
3584.0,0.012387816794216633
3840.0,0.012929750606417656
4096.0,0.0015007825568318367
4608.0,0.007500229403376579
5120.0,-0.012714488431811333
5632.0,0.005188005045056343
6144.0,-0.014364740811288357
6656.0,-0.013361504301428795
7168.0,-0.009402935393154621
7680.0,-0.017411112785339355
8192.0,-0.006891770754009485
end
