version,3.0
numOfCh,1
type,point
parent_name,34766_0dot069-1dot0
ch_type,1_1
kcount,1
numberNandB,1
brightnessNandB,1
carpet pos,0
pc,0
Time (ms),CH1 Auto-Correlation
1.0,0.07092560827732086
2.0,0.07024578750133514
3.0,0.06963762640953064
4.0,0.0690789446234703
5.0,0.06853858381509781
6.0,0.0680122971534729
7.0,0.06749238818883896
8.0,0.06696818768978119
9.0,0.0664299950003624
10.0,0.06591197103261948
11.0,0.06539873778820038
12.0,0.06490986794233322
13.0,0.06443558633327484
14.0,0.06395905464887619
15.0,0.06347572803497314
16.0,0.06298734247684479
18.0,0.0620628260076046
20.0,0.0611746646463871
22.0,0.06035598739981651
24.0,0.05954960361123085
26.0,0.058753352612257004
28.0,0.05795478820800781
30.0,0.0571773461997509
32.0,0.0563780702650547
36.0,0.05482066422700882
40.0,0.053379546850919724
44.0,0.05203695967793465
48.0,0.05081964656710625
52.0,0.049762461334466934
56.0,0.04875344783067703
60.0,0.04784724488854408
64.0,0.04703085124492645
72.0,0.045461639761924744
80.0,0.044042885303497314
88.0,0.042751558125019073
96.0,0.04186655580997467
104.0,0.04111989215016365
112.0,0.04023580998182297
120.0,0.03931885585188866
128.0,0.03850778564810753
144.0,0.03653768077492714
160.0,0.03390863910317421
176.0,0.03090478479862213
192.0,0.02876039408147335
208.0,0.027698025107383728
224.0,0.026733767241239548
240.0,0.02563128061592579
256.0,0.02427056059241295
288.0,0.020557167008519173
320.0,0.0177775751799345
352.0,0.015962990000844002
384.0,0.014356878586113453
416.0,0.013866539113223553
448.0,0.014200355857610703
480.0,0.014791632071137428
512.0,0.01550753228366375
576.0,0.013682914897799492
640.0,0.009555214084684849
704.0,0.005869990214705467
768.0,0.004038884770125151
832.0,0.0016472699353471398
896.0,-0.002599448896944523
960.0,-0.00248502055183053
1024.0,-0.00303485500626266
1152.0,-0.0022892169654369354
1280.0,-0.0033457446843385696
1408.0,-0.007983273826539516
1536.0,-0.01109829731285572
1664.0,-0.011429236270487309
1792.0,-0.013293147087097168
1920.0,-0.018576940521597862
2048.0,-0.02388044260442257
2304.0,-0.023155665025115013
2560.0,-0.02628723718225956
2816.0,-0.017066728323698044
3072.0,-0.007487905211746693
3328.0,0.005789436865597963
3584.0,0.012307136319577694
3840.0,0.011899876408278942
4096.0,0.019765103235840797
4608.0,0.019434168934822083
5120.0,0.0015527538489550352
5632.0,-0.00244813016615808
6144.0,-0.010697675868868828
6656.0,-0.018035035580396652
7168.0,-6.600393680855632e-05
7680.0,0.006196225062012672
8192.0,-0.0016174651682376862
end
