version,3.0
numOfCh,1
type,point
parent_name,34766_0dot069-1dot0
ch_type,1_1
kcount,1
numberNandB,1
brightnessNandB,1
carpet pos,0
pc,0
Time (ms),CH1 Auto-Correlation
1.0,0.08740660548210144
2.0,0.08657394349575043
3.0,0.08582663536071777
4.0,0.08515577018260956
5.0,0.08452272415161133
6.0,0.08394145220518112
7.0,0.08338025957345963
8.0,0.0828472375869751
9.0,0.08228050917387009
10.0,0.08169134706258774
11.0,0.08114243298768997
12.0,0.08057375252246857
13.0,0.08000022917985916
14.0,0.07945270091295242
15.0,0.07888632267713547
16.0,0.07834865897893906
18.0,0.07732509076595306
20.0,0.07631512731313705
22.0,0.07534396648406982
24.0,0.07439042627811432
26.0,0.07343635708093643
28.0,0.07248714566230774
30.0,0.07160363346338272
32.0,0.0707680955529213
36.0,0.0690746083855629
40.0,0.06741712987422943
44.0,0.06583533436059952
48.0,0.06428451836109161
52.0,0.0627388060092926
56.0,0.06124109402298927
60.0,0.059873100370168686
64.0,0.0586259588599205
72.0,0.05642318353056908
80.0,0.054700810462236404
88.0,0.05290976166725159
96.0,0.05142917111515999
104.0,0.05019395425915718
112.0,0.04901481419801712
120.0,0.04767268896102905
128.0,0.04637690261006355
144.0,0.04392882436513901
160.0,0.04191035032272339
176.0,0.04008318483829498
192.0,0.03889382630586624
208.0,0.037983838468790054
224.0,0.037174955010414124
240.0,0.03707573935389519
256.0,0.03679892048239708
288.0,0.0362982377409935
320.0,0.03450430557131767
352.0,0.031689491122961044
384.0,0.028743933886289597
416.0,0.027474388480186462
448.0,0.02575373835861683
480.0,0.02383001148700714
512.0,0.022177498787641525
576.0,0.021445082500576973
640.0,0.015561019070446491
704.0,0.010758626274764538
768.0,0.00974948238581419
832.0,0.00805885624140501
896.0,0.007751231547445059
960.0,0.004232385661453009
1024.0,0.0017516049556434155
1152.0,-0.008443774655461311
1280.0,-0.006852921098470688
1408.0,-0.002886543981730938
1536.0,-0.002150370506569743
1664.0,-0.0036814301274716854
1792.0,-0.004893166478723288
1920.0,-0.0020927037112414837
2048.0,-0.0005320683121681213
2304.0,0.004441578406840563
2560.0,0.0016524557722732425
2816.0,0.0010766451014205813
3072.0,0.0016711093485355377
3328.0,0.0002456536458339542
3584.0,-0.0016123093664646149
3840.0,0.007924128323793411
4096.0,0.007445214316248894
4608.0,0.0009010928333736956
5120.0,-0.018410848453640938
5632.0,-0.024419184774160385
6144.0,-0.021336210891604424
6656.0,-0.008765299804508686
7168.0,0.000338528654538095
7680.0,-0.007290282286703587
8192.0,-0.010740923695266247
end
