version,3.0
numOfCh,1
type,point
parent_name,714af_0dot6-1dot0
ch_type,1_1
kcount,1
numberNandB,1
brightnessNandB,1
carpet pos,0
pc,0
Time (ms),CH1 Auto-Correlation
1.0,0.04734107851982117
2.0,0.04496106132864952
3.0,0.04287879168987274
4.0,0.0410044863820076
5.0,0.03932039812207222
6.0,0.03774543106555939
7.0,0.03623474761843681
8.0,0.03490571305155754
9.0,0.03367694467306137
10.0,0.032575368881225586
11.0,0.031551264226436615
12.0,0.030625157058238983
13.0,0.029775047674775124
14.0,0.028982119634747505
15.0,0.02820456027984619
16.0,0.027497848495841026
18.0,0.026144713163375854
20.0,0.02480490133166313
22.0,0.023753682151436806
24.0,0.022859850898385048
26.0,0.02209409512579441
28.0,0.02145403064787388
30.0,0.02088061533868313
32.0,0.02015475183725357
36.0,0.01871841587126255
40.0,0.017613396048545837
44.0,0.01693709008395672
48.0,0.01643691584467888
52.0,0.01585041917860508
56.0,0.015268729999661446
60.0,0.014622670598328114
64.0,0.014252038672566414
72.0,0.013158490881323814
80.0,0.012054801918566227
88.0,0.012001720257103443
96.0,0.011730100028216839
104.0,0.011471591889858246
112.0,0.011290625669062138
120.0,0.011305778287351131
128.0,0.010901682078838348
144.0,0.009575732052326202
160.0,0.008883713744580746
176.0,0.008539770729839802
192.0,0.00851182360202074
208.0,0.007652762811630964
224.0,0.0073034572415053844
240.0,0.006715632043778896
256.0,0.006552394013851881
288.0,0.004283941350877285
320.0,0.005001877900213003
352.0,0.005849014036357403
384.0,0.004278139211237431
416.0,0.00394416693598032
448.0,0.0035737541038542986
480.0,0.003334644017741084
512.0,0.0034673309419304132
576.0,0.0012436544056981802
640.0,0.0004919596249237657
704.0,-0.002178027993068099
768.0,-0.0040596225298941135
832.0,-0.0038967146538197994
896.0,-0.0031554384622722864
960.0,-0.0041537159122526646
1024.0,-0.005284507293254137
1152.0,-0.0056388406082987785
1280.0,-0.006670404225587845
1408.0,-0.005771608091890812
1536.0,-0.0027785885613411665
1664.0,0.0009788512252271175
1792.0,-0.0018202349310740829
1920.0,-0.0008162676240317523
2048.0,0.0016664551803842187
2304.0,0.0025434314738959074
2560.0,0.004091503564268351
2816.0,0.00025286508025601506
3072.0,-0.0008733461145311594
3328.0,-0.0019395885756239295
3584.0,-0.0007292088703252375
3840.0,-0.002294716192409396
4096.0,0.0032834201119840145
4608.0,0.0003096618747804314
5120.0,0.0021058397833257914
5632.0,-0.0004919594503007829
6144.0,-0.001438727485947311
6656.0,-0.0011363219236955047
7168.0,0.00410077627748251
7680.0,0.0026921199169009924
8192.0,-0.0027454320807009935
end
