version,3.0
numOfCh,1
type,point
parent_name,714af_0dot6-1dot0
ch_type,1_1
kcount,1
numberNandB,1
brightnessNandB,1
carpet pos,0
pc,0
Time (ms),CH1 Auto-Correlation
1.0,0.04253596067428589
2.0,0.040244728326797485
3.0,0.03821001574397087
4.0,0.03636172041296959
5.0,0.034673694521188736
6.0,0.03319242596626282
7.0,0.031758423894643784
8.0,0.030400242656469345
9.0,0.029111262410879135
10.0,0.02792779542505741
11.0,0.02687695622444153
12.0,0.025794511660933495
13.0,0.024822011590003967
14.0,0.023871619254350662
15.0,0.022968875244259834
16.0,0.02212574891746044
18.0,0.020641326904296875
20.0,0.019290179014205933
22.0,0.018183814361691475
24.0,0.017187492921948433
26.0,0.016243649646639824
28.0,0.015368032269179821
30.0,0.014559672214090824
32.0,0.01380086224526167
36.0,0.012327439151704311
40.0,0.010882881470024586
44.0,0.009818055666983128
48.0,0.009371040388941765
52.0,0.008888406679034233
56.0,0.008381503634154797
60.0,0.00792926549911499
64.0,0.00754353404045105
72.0,0.007260343991219997
80.0,0.007314255926758051
88.0,0.006885000504553318
96.0,0.00622772378847003
104.0,0.005236976779997349
112.0,0.003960645757615566
120.0,0.0031389857176691294
128.0,0.00288757192902267
144.0,0.0032933461479842663
160.0,0.0027930091600865126
176.0,0.0028405627235770226
192.0,0.0014943548012524843
208.0,-8.042237823246978e-06
224.0,0.0008875498315319419
240.0,0.001661658869124949
256.0,0.002837180159986019
288.0,0.0042509413324296474
320.0,0.00318145495839417
352.0,0.0011589983478188515
384.0,0.0010626515140756965
416.0,0.0007233106880448759
448.0,0.0006190849817357957
480.0,0.001059065107256174
512.0,-0.00034339804551564157
576.0,-0.0003931748797185719
640.0,-0.0011608906788751483
704.0,-4.159697346040048e-05
768.0,-5.623242032015696e-05
832.0,0.0021404337603598833
896.0,0.0013068929547443986
960.0,0.0031542927026748657
1024.0,0.0017180732684209943
1152.0,9.381719428347424e-05
1280.0,-0.0007165863062255085
1408.0,-0.0020173361990600824
1536.0,-0.0019496483728289604
1664.0,-0.0020020287483930588
1792.0,-0.001902896910905838
1920.0,-0.0011316253803670406
2048.0,-0.0019705293234437704
2304.0,-0.0025489795953035355
2560.0,-0.00223909062333405
2816.0,-0.001298760762438178
3072.0,0.0004381995531730354
3328.0,-0.000734582485165447
3584.0,-1.0880380614253227e-05
3840.0,7.718231063336134e-05
4096.0,0.0004674624069593847
4608.0,0.00021695099712815136
5120.0,0.0003917245485354215
5632.0,-0.0023365465458482504
6144.0,0.0016419171588495374
6656.0,-0.0008152651716955006
7168.0,0.0006366752786561847
7680.0,0.0009276639902964234
8192.0,0.0006865402683615685
end
