version,3.0
numOfCh,1
type,point
parent_name,714af_0dot6-1dot0
ch_type,1_1
kcount,1
numberNandB,1
brightnessNandB,1
carpet pos,0
pc,0
Time (ms),CH1 Auto-Correlation
1.0,0.04306398332118988
2.0,0.04079528898000717
3.0,0.03874704986810684
4.0,0.036889951676130295
5.0,0.035245925188064575
6.0,0.03373318165540695
7.0,0.03234439715743065
8.0,0.03109663911163807
9.0,0.02995646744966507
10.0,0.028978221118450165
11.0,0.028088537976145744
12.0,0.027209831401705742
13.0,0.026422319933772087
14.0,0.025594746693968773
15.0,0.024813299998641014
16.0,0.024024605751037598
18.0,0.022547923028469086
20.0,0.021207798272371292
22.0,0.020130811259150505
24.0,0.01918613910675049
26.0,0.018322087824344635
28.0,0.017487961798906326
30.0,0.016727430745959282
32.0,0.016082460060715675
36.0,0.015031103044748306
40.0,0.01418921910226345
44.0,0.013392036780714989
48.0,0.012553832493722439
52.0,0.011622477322816849
56.0,0.010675333440303802
60.0,0.00965795386582613
64.0,0.008722933940589428
72.0,0.0071393889375030994
80.0,0.006374419666826725
88.0,0.005906148813664913
96.0,0.006185393314808607
104.0,0.005928994156420231
112.0,0.005373036023229361
120.0,0.004989351611584425
128.0,0.004532739520072937
144.0,0.003588162362575531
160.0,0.0022321732249110937
176.0,0.001561995130032301
192.0,0.0015170052647590637
208.0,0.0017953007481992245
224.0,0.002679941477254033
240.0,0.0036623149644583464
256.0,0.0038440923672169447
288.0,0.003189422655850649
320.0,0.00301489420235157
352.0,0.0002252238627988845
384.0,-0.0002236199361504987
416.0,0.0014200073201209307
448.0,0.0021336469799280167
480.0,0.0013663447462022305
512.0,0.0006464082980528474
576.0,-0.000991916749626398
640.0,-0.00102522864472121
704.0,0.0007445844821631908
768.0,0.0007276684045791626
832.0,-0.002059440826997161
896.0,-0.0004381216422189027
960.0,0.0006111640250310302
1024.0,0.0033836285583674908
1152.0,0.0013016430893912911
1280.0,-0.0002999498974531889
1408.0,-0.0010102029191330075
1536.0,-0.001683772075921297
1664.0,-0.002515505300834775
1792.0,-0.003876145463436842
1920.0,-0.005095569882541895
2048.0,-0.0010068063857033849
2304.0,-0.002190341241657734
2560.0,-0.00021233315055724233
2816.0,-0.00015365365834441036
3072.0,-0.004139978438615799
3328.0,0.0006096364231780171
3584.0,0.0004649195179808885
3840.0,0.004675231408327818
4096.0,-0.0016022477066144347
4608.0,0.0010053508449345827
5120.0,-0.0009583454811945558
5632.0,-0.0010220432886853814
6144.0,0.0017012946773320436
6656.0,-0.003103573340922594
7168.0,-0.00112698576413095
7680.0,-0.0008657806320115924
8192.0,0.0028456132858991623
end
