version,3.0
numOfCh,1
type,point
parent_name,714af_0dot6-1dot0
ch_type,1_1
kcount,1
numberNandB,1
brightnessNandB,1
carpet pos,0
pc,0
Time (ms),CH1 Auto-Correlation
1.0,0.040229033678770065
2.0,0.03790803626179695
3.0,0.03579241409897804
4.0,0.03391851857304573
5.0,0.03217953070998192
6.0,0.0305248461663723
7.0,0.028969403356313705
8.0,0.027559982612729073
9.0,0.02621523104608059
10.0,0.02498224750161171
11.0,0.02382880263030529
12.0,0.022741086781024933
13.0,0.021621350198984146
14.0,0.02058318816125393
15.0,0.01963253878057003
16.0,0.018785571679472923
18.0,0.01733982563018799
20.0,0.016105933114886284
22.0,0.014996050857007504
24.0,0.014070361852645874
26.0,0.013231460005044937
28.0,0.01251436211168766
30.0,0.011751755140721798
32.0,0.010940300300717354
36.0,0.009509687311947346
40.0,0.008430498652160168
44.0,0.007710679434239864
48.0,0.0073103345930576324
52.0,0.006779414135962725
56.0,0.006339952349662781
60.0,0.006097010336816311
64.0,0.00585617171600461
72.0,0.005611354019492865
80.0,0.005855306517332792
88.0,0.00617690896615386
96.0,0.0057114288210868835
104.0,0.004815064836293459
112.0,0.0041670729406178
120.0,0.003405623137950897
128.0,0.003007934894412756
144.0,0.0025721427518874407
160.0,0.0019765105098485947
176.0,0.0007741648005321622
192.0,0.00031315337400883436
208.0,0.001031405758112669
224.0,0.0002935428638011217
240.0,-0.00024935652618296444
256.0,-0.0011276454897597432
288.0,3.730503885890357e-05
320.0,0.00011852531315525994
352.0,-0.0007259886479005218
384.0,-0.0015471848892048001
416.0,-0.0017609861679375172
448.0,-0.0010788473300635815
480.0,-0.001674504717811942
512.0,-0.0013223995920270681
576.0,-0.0028412891551852226
640.0,-0.0008639414445497096
704.0,-0.0024361079558730125
768.0,-0.0016739105340093374
832.0,-0.00023467143182642758
896.0,-0.00041067213169299066
960.0,-0.00107671320438385
1024.0,-0.0013490733690559864
1152.0,-0.0006649899296462536
1280.0,-0.001186621026135981
1408.0,-0.0008076283847913146
1536.0,0.00047095934860408306
1664.0,0.00018626105156727135
1792.0,-0.001236833748407662
1920.0,-0.0009763496345840394
2048.0,0.0012143225176259875
2304.0,0.0002449208404868841
2560.0,-0.000885099871084094
2816.0,-0.0018923176685348153
3072.0,-0.0013661854900419712
3328.0,-0.001959266373887658
3584.0,0.002057996578514576
3840.0,0.0026125016156584024
4096.0,0.0004654648364521563
4608.0,0.0009769262978807092
5120.0,-0.0004997207433916628
5632.0,0.0012506700586527586
6144.0,-0.000987543840892613
6656.0,0.00034405908081680536
7168.0,-0.0017326546367257833
7680.0,-9.985263750422746e-05
8192.0,0.00028445618227124214
end
