version,3.0
numOfCh,1
type,point
parent_name,714af_0dot6-1dot0
ch_type,1_1
kcount,1
numberNandB,1
brightnessNandB,1
carpet pos,0
pc,0
Time (ms),CH1 Auto-Correlation
1.0,0.045714277774095535
2.0,0.04347286373376846
3.0,0.04147926717996597
4.0,0.0397057868540287
5.0,0.038107745349407196
6.0,0.03667236119508743
7.0,0.035345304757356644
8.0,0.03412194177508354
9.0,0.03297845646739006
10.0,0.03186558932065964
11.0,0.030785584822297096
12.0,0.029847117140889168
13.0,0.02887829579412937
14.0,0.02802114747464657
15.0,0.027218453586101532
16.0,0.02642090432345867
18.0,0.02494818903505802
20.0,0.023705383762717247
22.0,0.022664755582809448
24.0,0.021679509431123734
26.0,0.0208148043602705
28.0,0.020041221752762794
30.0,0.019421664997935295
32.0,0.018853388726711273
36.0,0.017748475074768066
40.0,0.016613895073533058
44.0,0.01569901406764984
48.0,0.015033784322440624
52.0,0.014333255589008331
56.0,0.013538067229092121
60.0,0.012620825320482254
64.0,0.011689241975545883
72.0,0.010325619019567966
80.0,0.009376386180520058
88.0,0.008199496194720268
96.0,0.007300892844796181
104.0,0.006304405629634857
112.0,0.005586083047091961
120.0,0.004924072418361902
128.0,0.004046093672513962
144.0,0.00382127333432436
160.0,0.004058165941387415
176.0,0.004076131619513035
192.0,0.0036066132597625256
208.0,0.00351047539152205
224.0,0.00404242891818285
240.0,0.004453599918633699
256.0,0.00427398132160306
288.0,0.003808810841292143
320.0,0.004679007921367884
352.0,0.004200597759336233
384.0,0.0027905756141990423
416.0,0.0019431429682299495
448.0,0.0013624243438243866
480.0,0.0005908268503844738
512.0,-0.0003458174178376794
576.0,4.387776061776094e-05
640.0,-0.001535711344331503
704.0,-0.0028445578645914793
768.0,-0.003811596194282174
832.0,-0.0046700770035386086
896.0,-0.003868570551276207
960.0,-0.0022764892783015966
1024.0,-0.002485866891220212
1152.0,-0.0036521507427096367
1280.0,-0.00202965852804482
1408.0,-0.0016798785654827952
1536.0,-0.00020070573373232037
1664.0,-0.0016832362161949277
1792.0,-0.00024183769710361958
1920.0,-0.0014314850559458137
2048.0,0.0016357748536393046
2304.0,0.0002203835902037099
2560.0,0.004664404317736626
2816.0,0.0023814630694687366
3072.0,0.0027324859984219074
3328.0,0.0004676180542446673
3584.0,0.0015638222685083747
3840.0,-0.003307505277916789
4096.0,-0.0031281490810215473
4608.0,-0.002792943734675646
5120.0,0.0021388453897088766
5632.0,0.0027448495384305716
6144.0,0.0009342422126792371
6656.0,-0.003524558153003454
7168.0,-0.0027529422659426928
7680.0,0.00039883714634925127
8192.0,0.0018261972581967711
end
