version,3.0
numOfCh,1
type,point
parent_name,714af_0dot6-1dot0
ch_type,1_1
kcount,1
numberNandB,1
brightnessNandB,1
carpet pos,0
pc,0
Time (ms),CH1 Auto-Correlation
1.0,0.04680559039115906
2.0,0.0443873293697834
3.0,0.04227118194103241
4.0,0.04036063700914383
5.0,0.038648005574941635
6.0,0.03704749047756195
7.0,0.03553067147731781
8.0,0.03411957249045372
9.0,0.03281885385513306
10.0,0.03166146203875542
11.0,0.03051590733230114
12.0,0.02945137582719326
13.0,0.028461817651987076
14.0,0.027486687526106834
15.0,0.02657811902463436
16.0,0.025706807151436806
18.0,0.024143705144524574
20.0,0.022753527387976646
22.0,0.021563492715358734
24.0,0.020349280908703804
26.0,0.019215906038880348
28.0,0.017981858924031258
30.0,0.016923874616622925
32.0,0.01604141853749752
36.0,0.014451228082180023
40.0,0.013164340518414974
44.0,0.01214364729821682
48.0,0.01094819325953722
52.0,0.009868612512946129
56.0,0.008936925791203976
60.0,0.008706302382051945
64.0,0.008835352957248688
72.0,0.007567094638943672
80.0,0.005721905268728733
88.0,0.00426568603143096
96.0,0.0032080644741654396
104.0,0.003163939109072089
112.0,0.003894187742844224
120.0,0.0032233635429292917
128.0,0.0027883464936167
144.0,0.003525567939504981
160.0,0.005042736884206533
176.0,0.0055803474970161915
192.0,0.004735318943858147
208.0,0.004404176026582718
224.0,0.003836757270619273
240.0,0.0037709707394242287
256.0,0.0039941552095115185
288.0,0.004120060242712498
320.0,0.0037851782981306314
352.0,0.0035972490441054106
384.0,0.002792637562379241
416.0,0.0023230775259435177
448.0,0.0014598183333873749
480.0,0.0020117948297411203
512.0,0.0015288385329768062
576.0,0.000829836877528578
640.0,0.002750909887254238
704.0,0.0006718983058817685
768.0,0.0008865470299497247
832.0,-0.0020832836162298918
896.0,0.002930666785687208
960.0,0.0021614390425384045
1024.0,0.002127374755218625
1152.0,0.002570604905486107
1280.0,0.0014112817589193583
1408.0,0.0006064846529625356
1536.0,0.00040946347871795297
1664.0,0.0014932230114936829
1792.0,-4.87895158585161e-05
1920.0,0.0007958323694765568
2048.0,0.0002522426366340369
2304.0,-0.0005241062608547509
2560.0,-0.001064844080246985
2816.0,-0.00046717876102775335
3072.0,0.0016538456548005342
3328.0,-0.00015012652147561312
3584.0,-0.002132231602445245
3840.0,-0.0038685821928083897
4096.0,-0.0017607244662940502
4608.0,-0.000850361364427954
5120.0,-0.00208475929684937
5632.0,-0.00134167424403131
6144.0,0.0002884145069401711
6656.0,-0.003114609746262431
7168.0,-0.0025094058364629745
7680.0,-0.0017513572238385677
8192.0,-0.002073382493108511
end
