version,3.0
numOfCh,1
type,point
parent_name,714af_0dot6-1dot0
ch_type,1_1
kcount,1
numberNandB,1
brightnessNandB,1
carpet pos,0
pc,0
Time (ms),CH1 Auto-Correlation
1.0,0.04498451575636864
2.0,0.04274061694741249
3.0,0.040682289749383926
4.0,0.03884492814540863
5.0,0.03717537224292755
6.0,0.035700008273124695
7.0,0.03432942181825638
8.0,0.033101100474596024
9.0,0.031938862055540085
10.0,0.030837342143058777
11.0,0.02979562059044838
12.0,0.028785616159439087
13.0,0.02781803533434868
14.0,0.026908934116363525
15.0,0.026087822392582893
16.0,0.025317683815956116
18.0,0.023902224376797676
20.0,0.022575249895453453
22.0,0.02124577946960926
24.0,0.019976889714598656
26.0,0.018850216642022133
28.0,0.017882948741316795
30.0,0.01694159023463726
32.0,0.015966201201081276
36.0,0.014240816235542297
40.0,0.013030140660703182
44.0,0.01211687084287405
48.0,0.011322819627821445
52.0,0.010822014883160591
56.0,0.010317116044461727
60.0,0.009669595398008823
64.0,0.00928486604243517
72.0,0.008524763397872448
80.0,0.007491518277674913
88.0,0.007088521961122751
96.0,0.006615512538701296
104.0,0.0062062107026577
112.0,0.005756361410021782
120.0,0.005468977615237236
128.0,0.005254347808659077
144.0,0.00329686445184052
160.0,0.00407650088891387
176.0,0.004988749511539936
192.0,0.005116993095725775
208.0,0.004825419746339321
224.0,0.004488593898713589
240.0,0.002619350329041481
256.0,0.00175274140201509
288.0,0.001256306073628366
320.0,0.0009295913041569293
352.0,-0.0005750259151682258
384.0,-0.0008071827469393611
416.0,-0.0010070846183225513
448.0,-0.0019519507186487317
480.0,-0.002381652593612671
512.0,0.00028207010473124683
576.0,-0.00270472327247262
640.0,-0.0014598366105929017
704.0,-0.0006778983515687287
768.0,-0.0028544380329549313
832.0,-0.004308090079575777
896.0,-0.0014937709784135222
960.0,-0.000641158374492079
1024.0,-0.00022933354193810374
1152.0,-0.0010604725684970617
1280.0,0.0001956460764631629
1408.0,0.0009456173866055906
1536.0,0.0022091264836490154
1664.0,0.0016290252096951008
1792.0,0.0010075605241581798
1920.0,0.0007938321214169264
2048.0,0.0006512190448120236
2304.0,-0.0004904558882117271
2560.0,-0.002005021320655942
2816.0,-0.000567153561860323
3072.0,0.0006249031866900623
3328.0,0.0015754338819533587
3584.0,-0.00010740019934019074
3840.0,-0.002788037061691284
4096.0,-0.0019370922818779945
4608.0,8.170765795512125e-05
5120.0,0.0008765600505284965
5632.0,-0.0014803021913394332
6144.0,-0.0005389789002947509
6656.0,-0.001290163374505937
7168.0,-0.0016752199735492468
7680.0,0.00020994975056964904
8192.0,-3.0929342756280676e-05
end
