version,3.0
numOfCh,1
type,point
parent_name,714af_0dot6-1dot0
ch_type,1_1
kcount,1
numberNandB,1
brightnessNandB,1
carpet pos,0
pc,0
Time (ms),CH1 Auto-Correlation
1.0,0.041675761342048645
2.0,0.039421211928129196
3.0,0.037381842732429504
4.0,0.03547181934118271
5.0,0.03377452865242958
6.0,0.032317403703927994
7.0,0.03092278726398945
8.0,0.029627781361341476
9.0,0.028423622250556946
10.0,0.027314646169543266
11.0,0.026296423748135567
12.0,0.025353912264108658
13.0,0.02434363402426243
14.0,0.023418284952640533
15.0,0.022547874599695206
16.0,0.021712925285100937
18.0,0.020256713032722473
20.0,0.01897437311708927
22.0,0.017784303054213524
24.0,0.016714293509721756
26.0,0.015717526897788048
28.0,0.014850360341370106
30.0,0.014199268072843552
32.0,0.01358010247349739
36.0,0.01215799804776907
40.0,0.010863594710826874
44.0,0.009569715708494186
48.0,0.008395790122449398
52.0,0.007450746838003397
56.0,0.006643032189458609
60.0,0.006033848971128464
64.0,0.005233448464423418
72.0,0.003947191871702671
80.0,0.0028629745356738567
88.0,0.002378415549173951
96.0,0.0024470738135278225
104.0,0.0021152151748538017
112.0,0.0015859834384173155
120.0,0.0016126601258292794
128.0,0.0018378280801698565
144.0,0.0012914881808683276
160.0,0.0008777852635830641
176.0,0.0004432482528500259
192.0,4.2149144974246155e-06
208.0,-0.0008788136183284223
224.0,-0.0014650336233898997
240.0,-0.0013247360475361347
256.0,-0.000693135429173708
288.0,0.00027305842377245426
320.0,-0.0009633014560677111
352.0,-0.002085974672809243
384.0,-0.0012231151340529323
416.0,-0.0006876749685034156
448.0,-0.0016358272405341268
480.0,-0.002098273951560259
512.0,-0.0009685195400379598
576.0,-0.0016593086766079068
640.0,-0.0029606253374367952
704.0,0.0008416172931902111
768.0,0.00042995851254090667
832.0,0.0006665320252068341
896.0,-0.0007696751854382455
960.0,-0.0005888296291232109
1024.0,-0.0007800886523909867
1152.0,-0.0006044457550160587
1280.0,-0.0005231276736594737
1408.0,-0.0033938915003091097
1536.0,-0.0007348915096372366
1664.0,0.002263321541249752
1792.0,-4.7262292355298996e-05
1920.0,-0.0006775651127099991
2048.0,0.0010161641985177994
2304.0,-0.0015317954821512103
2560.0,0.0006966266082599759
2816.0,0.0015115406131371856
3072.0,-0.0013433335116133094
3328.0,0.0015647574327886105
3584.0,-0.0015270152362063527
3840.0,-0.0007676021195948124
4096.0,-0.00035160096012987196
4608.0,0.0008151406655088067
5120.0,0.00028629423468373716
5632.0,-0.0007970791193656623
6144.0,0.0012299324152991176
6656.0,-0.0006973702111281455
7168.0,0.001184628577902913
7680.0,-0.002451282227411866
8192.0,-4.1452520235907286e-05
end
