version,3.0
numOfCh,1
type,point
parent_name,714af_0dot6-1dot0
ch_type,1_1
kcount,1
numberNandB,1
brightnessNandB,1
carpet pos,0
pc,0
Time (ms),CH1 Auto-Correlation
1.0,0.044953782111406326
2.0,0.04262799024581909
3.0,0.04053058475255966
4.0,0.038645755499601364
5.0,0.03697383031249046
6.0,0.03541172295808792
7.0,0.03395688906311989
8.0,0.03269530460238457
9.0,0.03149755671620369
10.0,0.0303379874676466
11.0,0.029293857514858246
12.0,0.02827322669327259
13.0,0.02733166329562664
14.0,0.026407206431031227
15.0,0.025546150282025337
16.0,0.024882080033421516
18.0,0.02366802841424942
20.0,0.022504685446619987
22.0,0.02132425084710121
24.0,0.020249318331480026
26.0,0.019292492419481277
28.0,0.01843295432627201
30.0,0.017622418701648712
32.0,0.016968384385108948
36.0,0.01566336117684841
40.0,0.014594117179512978
44.0,0.013847661204636097
48.0,0.012972119264304638
52.0,0.01200189534574747
56.0,0.011182000860571861
60.0,0.010519412346184254
64.0,0.009894941933453083
72.0,0.00866837240755558
80.0,0.008033683523535728
88.0,0.007692203391343355
96.0,0.007149197161197662
104.0,0.0065404558554291725
112.0,0.006190640386193991
120.0,0.005850000306963921
128.0,0.005453089717775583
144.0,0.004320306703448296
160.0,0.003561330260708928
176.0,0.002231311285868287
192.0,0.001080922782421112
208.0,0.0003657049674075097
224.0,-0.0004979139775969088
240.0,-0.0006827199249528348
256.0,-0.001536357682198286
288.0,-0.0006399696576409042
320.0,-0.0012401595013216138
352.0,9.298441000282764e-05
384.0,0.00031745381420478225
416.0,0.00030673714354634285
448.0,-0.0008861648966558278
480.0,-0.0023470779415220022
512.0,-0.0025128682609647512
576.0,-0.0022730091586709023
640.0,-0.0015524449991062284
704.0,-0.0022539147175848484
768.0,-0.00031083973590284586
832.0,-0.0010004411451518536
896.0,-0.001250806963071227
960.0,-0.002081611193716526
1024.0,-0.004028274677693844
1152.0,-0.0012169808614999056
1280.0,0.001503959996625781
1408.0,0.00015500285371672362
1536.0,-0.0025003799237310886
1664.0,-0.0022360917646437883
1792.0,-8.975074888439849e-05
1920.0,-0.0007916694157756865
2048.0,0.0004206412995699793
2304.0,0.0016270419582724571
2560.0,0.0015509112272411585
2816.0,0.001286273472942412
3072.0,0.0007748501957394183
3328.0,-0.001339365728199482
3584.0,0.00032196298707276583
3840.0,-0.0020626350305974483
4096.0,-0.0014736535958945751
4608.0,-0.0004868892137892544
5120.0,-0.0004506158293224871
5632.0,-0.0006038172286935151
6144.0,0.001576255657710135
6656.0,-6.963234045542777e-05
7168.0,0.00031061991467140615
7680.0,-0.0025346442125737667
8192.0,-0.0004910377901978791
end
