version,3.0
numOfCh,1
type,point
parent_name,714af_0dot6-1dot0
ch_type,1_1
kcount,1
numberNandB,1
brightnessNandB,1
carpet pos,0
pc,0
Time (ms),CH1 Auto-Correlation
1.0,0.04297741875052452
2.0,0.04053035005927086
3.0,0.03833618387579918
4.0,0.03643578663468361
5.0,0.03458578139543533
6.0,0.03296738490462303
7.0,0.03149193525314331
8.0,0.030069012194871902
9.0,0.02871853858232498
10.0,0.027533024549484253
11.0,0.02635858580470085
12.0,0.025307927280664444
13.0,0.024363989010453224
14.0,0.02356189861893654
15.0,0.022897683084011078
16.0,0.022293251007795334
18.0,0.021031005308032036
20.0,0.019882915541529655
22.0,0.018902242183685303
24.0,0.01798293925821781
26.0,0.017117345705628395
28.0,0.01641864702105522
30.0,0.015831511467695236
32.0,0.015364959836006165
36.0,0.014464977197349072
40.0,0.013920526020228863
44.0,0.01328375842422247
48.0,0.012485676445066929
52.0,0.011673514731228352
56.0,0.010953170247375965
60.0,0.010466523468494415
64.0,0.010111425071954727
72.0,0.009229904972016811
80.0,0.008520452305674553
88.0,0.008130368776619434
96.0,0.007802399806678295
104.0,0.007624688558280468
112.0,0.007263772189617157
120.0,0.007219923660159111
128.0,0.007964068092405796
144.0,0.007748828735202551
160.0,0.006633878219872713
176.0,0.006051444448530674
192.0,0.004770554602146149
208.0,0.003686912590637803
224.0,0.003194705583155155
240.0,0.0025775996036827564
256.0,0.001634725253097713
288.0,0.001328802085481584
320.0,0.00019473867723718286
352.0,-0.00032181187998503447
384.0,-0.0019391467794775963
416.0,-0.0011675014393404126
448.0,6.936126737855375e-05
480.0,-0.0003766152076423168
512.0,-0.0003908166254404932
576.0,-0.0007900936179794371
640.0,9.294289338868111e-05
704.0,0.0013730153441429138
768.0,0.0015317535726353526
832.0,0.0026823943480849266
896.0,0.004084072541445494
960.0,0.0033385350834578276
1024.0,0.003854627488180995
1152.0,0.003376999869942665
1280.0,-0.0011442271061241627
1408.0,-0.0040261996909976006
1536.0,-0.0029831125866621733
1664.0,3.169924093526788e-05
1792.0,0.002352995565161109
1920.0,0.0039806305430829525
2048.0,0.002708759857341647
2304.0,-0.0008134778472594917
2560.0,-0.0007743563619442284
2816.0,0.004019505809992552
3072.0,0.0035601614508777857
3328.0,0.000285288377199322
3584.0,0.0009626799146644771
3840.0,0.0020855413749814034
4096.0,0.0013576000928878784
4608.0,0.0009142280323430896
5120.0,-0.0013998321956023574
5632.0,-0.001384389353916049
6144.0,0.0002718052128329873
6656.0,-0.0005999674322083592
7168.0,0.0005666433717124164
7680.0,-0.001549845328554511
8192.0,-0.002771836007013917
end
