version,3.0
numOfCh,1
type,point
parent_name,714af_0dot6-1dot0
ch_type,1_1
kcount,1
numberNandB,1
brightnessNandB,1
carpet pos,0
pc,0
Time (ms),CH1 Auto-Correlation
1.0,0.047213926911354065
2.0,0.0449628084897995
3.0,0.04298112541437149
4.0,0.0412459522485733
5.0,0.03965860605239868
6.0,0.03822380304336548
7.0,0.03689952939748764
8.0,0.03557045757770538
9.0,0.0343906544148922
10.0,0.033235616981983185
11.0,0.03219788894057274
12.0,0.03129167854785919
13.0,0.030455809086561203
14.0,0.029664039611816406
15.0,0.028960036113858223
16.0,0.028294065967202187
18.0,0.027047237381339073
20.0,0.025942636653780937
22.0,0.024931127205491066
24.0,0.02400815114378929
26.0,0.02312457747757435
28.0,0.022252947092056274
30.0,0.021504567936062813
32.0,0.020764244720339775
36.0,0.019269974902272224
40.0,0.018061112612485886
44.0,0.01686881110072136
48.0,0.01569450832903385
52.0,0.014843863435089588
56.0,0.014217519201338291
60.0,0.0137734804302454
64.0,0.013291580602526665
72.0,0.012587874196469784
80.0,0.012123757041990757
88.0,0.011441774666309357
96.0,0.011163578368723392
104.0,0.010946054011583328
112.0,0.01061715092509985
120.0,0.010198838077485561
128.0,0.009950157254934311
144.0,0.00920877791941166
160.0,0.008153699338436127
176.0,0.006542661227285862
192.0,0.005867003463208675
208.0,0.005235194228589535
224.0,0.005449147894978523
240.0,0.004685601685196161
256.0,0.0046910508535802364
288.0,0.005893409252166748
320.0,0.005921539384871721
352.0,0.0070979781448841095
384.0,0.006292284931987524
416.0,0.005691240541636944
448.0,0.005383601412177086
480.0,0.003785325214266777
512.0,0.0018327427096664906
576.0,0.0016860096948221326
640.0,0.001987981842830777
704.0,0.00244803330861032
768.0,0.0012529693776741624
832.0,-0.00035425942041911185
896.0,0.000437917304225266
960.0,0.00011203428584849462
1024.0,0.002546110423281789
1152.0,0.00025791217922233045
1280.0,0.0005859672091901302
1408.0,0.0008253419655375183
1536.0,-0.0006595735903829336
1664.0,-0.0020086457952857018
1792.0,0.00201436597853899
1920.0,0.0030788045842200518
2048.0,0.00039727124385535717
2304.0,-0.0010738808196038008
2560.0,-0.0012184715596958995
2816.0,-0.002969165565446019
3072.0,-0.003156240563839674
3328.0,-0.0013239405816420913
3584.0,0.0006536715663969517
3840.0,0.001686545554548502
4096.0,-0.0005836050841026008
4608.0,-0.00045880963443778455
5120.0,-0.0032936728093773127
5632.0,0.0003836147952824831
6144.0,-0.002104021841660142
6656.0,-0.004548179917037487
7168.0,-0.0023277136497199535
7680.0,-0.0006870029028505087
8192.0,-0.0031651153694838285
end
