version,3.0
numOfCh,1
type,point
parent_name,714af_0dot6-1dot0
ch_type,1_1
kcount,1
numberNandB,1
brightnessNandB,1
carpet pos,0
pc,0
Time (ms),CH1 Auto-Correlation
1.0,0.04274089261889458
2.0,0.04038042202591896
3.0,0.03824843466281891
4.0,0.0363442525267601
5.0,0.034640200436115265
6.0,0.03304053843021393
7.0,0.03165121376514435
8.0,0.030305251479148865
9.0,0.029082192108035088
10.0,0.027938710525631905
11.0,0.026930011808872223
12.0,0.02605130523443222
13.0,0.025219209492206573
14.0,0.0244179405272007
15.0,0.023636044934391975
16.0,0.022883428260684013
18.0,0.021695595234632492
20.0,0.020563939586281776
22.0,0.01951897144317627
24.0,0.018516145646572113
26.0,0.017603199928998947
28.0,0.016816405579447746
30.0,0.01600908674299717
32.0,0.015261374413967133
36.0,0.014146609231829643
40.0,0.012921065092086792
44.0,0.011885152198374271
48.0,0.01115357130765915
52.0,0.010467421263456345
56.0,0.010249245911836624
60.0,0.010311606340110302
64.0,0.010124302469193935
72.0,0.009309853427112103
80.0,0.007991001009941101
88.0,0.006986333057284355
96.0,0.006303845439106226
104.0,0.005806226748973131
112.0,0.005122441798448563
120.0,0.00525966752320528
128.0,0.005400866270065308
144.0,0.004038718529045582
160.0,0.003819112665951252
176.0,0.003743186593055725
192.0,0.003428677562624216
208.0,0.002261966001242399
224.0,0.0011280605103820562
240.0,0.0016011713305488229
256.0,0.002218731679022312
288.0,0.0026937879156321287
320.0,0.0011731518898159266
352.0,0.0011979275150224566
384.0,0.00027080244035460055
416.0,0.00032062691752798855
448.0,0.001117279171012342
480.0,-0.0007054126472212374
512.0,-0.001794449519366026
576.0,-0.0008184823673218489
640.0,-0.0013089084532111883
704.0,-0.0002151950029656291
768.0,0.0006709519075229764
832.0,0.00047043495578691363
896.0,0.0009580398327670991
960.0,0.0029995618388056755
1024.0,0.003139335662126541
1152.0,0.0008166444604285061
1280.0,-0.0010601499816402793
1408.0,-0.0011971179628744721
1536.0,-0.0008410082664340734
1664.0,0.00016184293781407177
1792.0,-0.0006061870371922851
1920.0,-0.0014854907058179379
2048.0,-0.000691611145157367
2304.0,-0.0012505440972745419
2560.0,0.00024450308410450816
2816.0,2.3104692445485853e-05
3072.0,0.00185498280916363
3328.0,0.0023445438127964735
3584.0,0.0008611683151684701
3840.0,-0.00021897844271734357
4096.0,0.0024591221008449793
4608.0,0.00024112664686981589
5120.0,-0.0013413429260253906
5632.0,-0.0007861941703595221
6144.0,-0.0027027036994695663
6656.0,-0.0031275793444365263
7168.0,0.00048669008538126945
7680.0,0.002135935937985778
8192.0,-0.0009549941751174629
end
