version,3.0
numOfCh,1
type,point
parent_name,714af_0dot6-1dot0
ch_type,1_1
kcount,1
numberNandB,1
brightnessNandB,1
carpet pos,0
pc,0
Time (ms),CH1 Auto-Correlation
1.0,0.04863950237631798
2.0,0.04633500427007675
3.0,0.044281937181949615
4.0,0.04240953177213669
5.0,0.04068327695131302
6.0,0.03907499462366104
7.0,0.03765019029378891
8.0,0.036339301615953445
9.0,0.03501472994685173
10.0,0.03377935662865639
11.0,0.032615114003419876
12.0,0.03148176521062851
13.0,0.03037605807185173
14.0,0.029335949569940567
15.0,0.028412066400051117
16.0,0.027522483840584755
18.0,0.025980737060308456
20.0,0.02469666860997677
22.0,0.023607760667800903
24.0,0.02262015827000141
26.0,0.021706344559788704
28.0,0.020843353122472763
30.0,0.019989490509033203
32.0,0.019143089652061462
36.0,0.017859363928437233
40.0,0.01675194315612316
44.0,0.01575009897351265
48.0,0.014739089645445347
52.0,0.013733133673667908
56.0,0.012898076325654984
60.0,0.012106637470424175
64.0,0.01142521295696497
72.0,0.01034434512257576
80.0,0.009644636884331703
88.0,0.009039869531989098
96.0,0.008754290640354156
104.0,0.008768118917942047
112.0,0.008405588567256927
120.0,0.007866176776587963
128.0,0.007192477583885193
144.0,0.0067939478904008865
160.0,0.006395533215254545
176.0,0.005867799744009972
192.0,0.005233198404312134
208.0,0.004604829475283623
224.0,0.004602599423378706
240.0,0.003883863566443324
256.0,0.0017404353711754084
288.0,0.00106645911000669
320.0,0.0009317802614532411
352.0,0.001440989668481052
384.0,0.00032876289333216846
416.0,-0.001461491803638637
448.0,3.082607508986257e-05
480.0,-0.0005388800636865199
512.0,-0.001276644179597497
576.0,0.0011669023660942912
640.0,0.0034434001427143812
704.0,0.003001428907737136
768.0,0.0010203206911683083
832.0,-0.0012538415612652898
896.0,0.0006269585574045777
960.0,0.001709137810394168
1024.0,0.0011250313837081194
1152.0,0.0031097508035600185
1280.0,0.004145801067352295
1408.0,0.0030969418585300446
1536.0,-0.00041794052231125534
1664.0,-0.0018230496207252145
1792.0,0.0006898528663441539
1920.0,0.0031036913860589266
2048.0,0.003383839037269354
2304.0,0.0019374716794118285
2560.0,0.0020894124172627926
2816.0,0.00027655085432343185
3072.0,0.0009388190810568631
3328.0,0.0025604672264307737
3584.0,-0.0023910016752779484
3840.0,-0.0016548531129956245
4096.0,-0.0005502590211108327
4608.0,-0.00024348156875930727
5120.0,0.0008946009329520166
5632.0,-0.001960104564204812
6144.0,-0.0023253054823726416
6656.0,0.0022756510879844427
7168.0,-0.006375528872013092
7680.0,0.0013120467774569988
8192.0,-0.00525547843426466
end
