version,3.0
numOfCh,1
type,point
parent_name,714af_0dot6-1dot0
ch_type,1_1
kcount,1
numberNandB,1
brightnessNandB,1
carpet pos,0
pc,0
Time (ms),CH1 Auto-Correlation
1.0,0.04476037994027138
2.0,0.04224299266934395
3.0,0.039930034428834915
4.0,0.03791124001145363
5.0,0.03621146082878113
6.0,0.034762490540742874
7.0,0.03336599841713905
8.0,0.03205912932753563
9.0,0.030896898359060287
10.0,0.029805229976773262
11.0,0.0287470743060112
12.0,0.02777256816625595
13.0,0.02695143036544323
14.0,0.026154659688472748
15.0,0.02543020248413086
16.0,0.024728132411837578
18.0,0.023409133777022362
20.0,0.02233671210706234
22.0,0.02143641747534275
24.0,0.02034832537174225
26.0,0.019237367436289787
28.0,0.018260132521390915
30.0,0.017360679805278778
32.0,0.016514809802174568
36.0,0.01499142311513424
40.0,0.013782836496829987
44.0,0.012861170805990696
48.0,0.012072600424289703
52.0,0.011294153518974781
56.0,0.010411672294139862
60.0,0.009831642732024193
64.0,0.009341846220195293
72.0,0.008676818571984768
80.0,0.008189339190721512
88.0,0.007181111257523298
96.0,0.006819413509219885
104.0,0.006564229726791382
112.0,0.006286291871219873
120.0,0.006056714337319136
128.0,0.005545319523662329
144.0,0.00476801348850131
160.0,0.004866149742156267
176.0,0.004532053135335445
192.0,0.0044291699305176735
208.0,0.00489723589271307
224.0,0.005841337144374847
240.0,0.005978426896035671
256.0,0.006284888368099928
288.0,0.0048531158827245235
320.0,0.0046613202430307865
352.0,0.004677952732890844
384.0,0.0032217081170529127
416.0,0.0033813852351158857
448.0,0.0028112169820815325
480.0,0.0021535945124924183
512.0,0.0035144027788192034
576.0,0.0037155693862587214
640.0,0.004801307339221239
704.0,0.004251638427376747
768.0,0.003169332630932331
832.0,0.0033884323202073574
896.0,0.0029801561031490564
960.0,0.0006616850732825696
1024.0,0.0002678876626305282
1152.0,0.0012920302106067538
1280.0,0.0025143749080598354
1408.0,0.0023760905023664236
1536.0,0.0006049970397725701
1664.0,-0.00143993622623384
1792.0,0.0008249912643805146
1920.0,0.0007854304276406765
2048.0,0.0019561084918677807
2304.0,0.00024542707251384854
2560.0,-0.001869381288997829
2816.0,-0.002401163335889578
3072.0,-0.00403089402243495
3328.0,-0.0035072790924459696
3584.0,-0.002703267615288496
3840.0,-0.0003542171325534582
4096.0,-0.00038815761217847466
4608.0,0.0013117032358422875
5120.0,0.0013128742575645447
5632.0,0.0003421546134632081
6144.0,0.0018293287139385939
6656.0,0.0004413135757204145
7168.0,-0.002473545027896762
7680.0,-0.0037660994566977024
8192.0,-0.003637721063569188
end
