version,3.0
numOfCh,1
type,point
parent_name,714af_0dot6-1dot0
ch_type,1_1
kcount,1
numberNandB,1
brightnessNandB,1
carpet pos,0
pc,0
Time (ms),CH1 Auto-Correlation
1.0,0.040180955082178116
2.0,0.03772134706377983
3.0,0.035663098096847534
4.0,0.033831413835287094
5.0,0.032198525965213776
6.0,0.030818158760666847
7.0,0.029541628435254097
8.0,0.028381837531924248
9.0,0.027304984629154205
10.0,0.026290029287338257
11.0,0.02530848979949951
12.0,0.024402065202593803
13.0,0.02356462925672531
14.0,0.022754637524485588
15.0,0.021979445591568947
16.0,0.021359194070100784
18.0,0.020100371912121773
20.0,0.018953029066324234
22.0,0.01791306771337986
24.0,0.017008837312459946
26.0,0.016034889966249466
28.0,0.015027213841676712
30.0,0.014134326949715614
32.0,0.013369659893214703
36.0,0.012046144343912601
40.0,0.010864210315048695
44.0,0.010052280500531197
48.0,0.009376012720167637
52.0,0.008466074243187904
56.0,0.007747572846710682
60.0,0.007339722476899624
64.0,0.006904242094606161
72.0,0.0061399019323289394
80.0,0.0052535212598741055
88.0,0.005177792627364397
96.0,0.004955180920660496
104.0,0.004622989799827337
112.0,0.00469275563955307
120.0,0.004219629801809788
128.0,0.0035276974085718393
144.0,0.002831793390214443
160.0,0.0023206814657896757
176.0,0.002394159557297826
192.0,0.0017182546434924006
208.0,0.0016674804501235485
224.0,0.00182908505667001
240.0,0.0013591323513537645
256.0,0.0006763607962056994
288.0,0.0003248362918384373
320.0,-0.0005398867651820183
352.0,0.001653804094530642
384.0,0.003466477384790778
416.0,0.0021185942459851503
448.0,0.00038702005986124277
480.0,-0.00034570469870232046
512.0,5.838732249685563e-05
576.0,0.0010323834139853716
640.0,-0.0013200407847762108
704.0,-0.0028328371699899435
768.0,-0.0013325386680662632
832.0,-0.000882224238011986
896.0,2.833236248989124e-05
960.0,-0.0005079375696368515
1024.0,0.00021179414761718363
1152.0,0.001599836046807468
1280.0,-0.0017955736257135868
1408.0,-0.0011754713486880064
1536.0,0.0002334276941837743
1664.0,0.00238358648493886
1792.0,0.0019840234890580177
1920.0,-0.00041964201955124736
2048.0,0.0012706738198176026
2304.0,0.0019153726752847433
2560.0,-0.0002323480584891513
2816.0,-0.00025014139828272164
3072.0,-0.0015910424990579486
3328.0,0.0002172209497075528
3584.0,-0.003298381343483925
3840.0,0.0017727025551721454
4096.0,0.0005408544675447047
4608.0,0.00011595629621297121
5120.0,-0.0009120649774558842
5632.0,-0.0022389106452465057
6144.0,0.001051612664014101
6656.0,0.0003966471122112125
7168.0,-0.0007766530034132302
7680.0,-0.0015670115826651454
8192.0,0.002468126593157649
end
