version,3.0
numOfCh,1
type,point
parent_name,714af_0dot6-1dot0
ch_type,1_1
kcount,1
numberNandB,1
brightnessNandB,1
carpet pos,0
pc,0
Time (ms),CH1 Auto-Correlation
1.0,0.04634913057088852
2.0,0.044108979403972626
3.0,0.0421486422419548
4.0,0.04042015224695206
5.0,0.038823965936899185
6.0,0.03734186291694641
7.0,0.03596918284893036
8.0,0.034760136157274246
9.0,0.03362986817955971
10.0,0.03267059847712517
11.0,0.03170749172568321
12.0,0.03084305301308632
13.0,0.02999095804989338
14.0,0.029145656153559685
15.0,0.028358587995171547
16.0,0.027722584083676338
18.0,0.026612065732479095
20.0,0.025567876175045967
22.0,0.024564718827605247
24.0,0.023443320766091347
26.0,0.02233998104929924
28.0,0.021485989913344383
30.0,0.020808469504117966
32.0,0.02020031213760376
36.0,0.019191712141036987
40.0,0.018180519342422485
44.0,0.017270289361476898
48.0,0.016390079632401466
52.0,0.015427340753376484
56.0,0.01442488469183445
60.0,0.013593379408121109
64.0,0.012721515260636806
72.0,0.010880755260586739
80.0,0.009613722562789917
88.0,0.008718395605683327
96.0,0.008237130008637905
104.0,0.007115084677934647
112.0,0.005798771046102047
120.0,0.00496486434713006
128.0,0.004902195185422897
144.0,0.004114583600312471
160.0,0.0036475572269409895
176.0,0.004285863600671291
192.0,0.005124920513480902
208.0,0.005313045345246792
224.0,0.004748083651065826
240.0,0.003985261544585228
256.0,0.0035328334197402
288.0,0.003027819562703371
320.0,0.002102830447256565
352.0,0.002346442313864827
384.0,0.0012648262782022357
416.0,0.0010058657499030232
448.0,0.0019335668766871095
480.0,0.0018090250669047236
512.0,0.00011314045696053654
576.0,-0.0016227010637521744
640.0,-0.0015993370907381177
704.0,0.002864744048565626
768.0,0.0019746506586670876
832.0,0.0003206842811778188
896.0,-0.0013458033790811896
960.0,-0.0006352436612360179
1024.0,-0.0015627742977812886
1152.0,-0.002593074692413211
1280.0,-0.0017345310188829899
1408.0,-0.002247508615255356
1536.0,-0.000404644786613062
1664.0,-0.0011332662543281913
1792.0,0.0007603852427564561
1920.0,0.0013484322698786855
2048.0,-0.0009852818911895156
2304.0,-0.002761326264590025
2560.0,-0.00037868323852308095
2816.0,0.0015522795729339123
3072.0,-8.426469867117703e-05
3328.0,-0.0009988868841901422
3584.0,-0.002460746793076396
3840.0,-0.0038445317186415195
4096.0,-0.0026781889609992504
4608.0,-0.000697065785061568
5120.0,0.00012196507304906845
5632.0,0.002456987276673317
6144.0,0.0045927418395876884
6656.0,-0.0004337622376624495
7168.0,4.419095057528466e-05
7680.0,0.0012053048703819513
8192.0,0.0012314757332205772
end
