version,3.0
numOfCh,1
type,point
parent_name,714af_0dot6-1dot0
ch_type,1_1
kcount,1
numberNandB,1
brightnessNandB,1
carpet pos,0
pc,0
Time (ms),CH1 Auto-Correlation
1.0,0.04738285765051842
2.0,0.04481077939271927
3.0,0.04252636060118675
4.0,0.040532391518354416
5.0,0.038645803928375244
6.0,0.03692350536584854
7.0,0.03541793301701546
8.0,0.03413518890738487
9.0,0.03287801146507263
10.0,0.03168996050953865
11.0,0.030512865632772446
12.0,0.029431791976094246
13.0,0.02843351475894451
14.0,0.027500178664922714
15.0,0.026569034904241562
16.0,0.025682182982563972
18.0,0.024032438173890114
20.0,0.022482337430119514
22.0,0.021021779626607895
24.0,0.019714558497071266
26.0,0.01862669736146927
28.0,0.017513059079647064
30.0,0.01643509604036808
32.0,0.015369163826107979
36.0,0.013416056521236897
40.0,0.01159799937158823
44.0,0.009894035756587982
48.0,0.008423840627074242
52.0,0.007225749082863331
56.0,0.006043560802936554
60.0,0.005238769575953484
64.0,0.004844363778829575
72.0,0.00364063773304224
80.0,0.0027773240581154823
88.0,0.002345571992918849
96.0,0.0017172626685351133
104.0,0.0010794168338179588
112.0,0.000914930657017976
120.0,0.0012534955749288201
128.0,0.0012659663334488869
144.0,0.0018104631453752518
160.0,0.0029170240741223097
176.0,0.003049876308068633
192.0,0.0021709739230573177
208.0,0.002372431568801403
224.0,0.0012333047343418002
240.0,0.0004548934812191874
256.0,0.0003578073519747704
288.0,-0.00011998720583505929
320.0,0.0007704682066105306
352.0,0.0017342224018648267
384.0,0.0014430866576731205
416.0,0.0003400213026907295
448.0,-0.0005651421379297972
480.0,0.001104659284465015
512.0,0.001252589514479041
576.0,-0.0004831430269405246
640.0,0.0006434126989915967
704.0,0.003305463120341301
768.0,0.0023686292115598917
832.0,0.0013517586048692465
896.0,-0.0004459311021491885
960.0,0.0015526700299233198
1024.0,0.0013339321594685316
1152.0,0.0012593845603987575
1280.0,-0.0008062947890721262
1408.0,-0.00030283076921477914
1536.0,0.00016412574041169137
1664.0,3.357079913257621e-05
1792.0,-0.00039544826722703874
1920.0,0.0009076828137040138
2048.0,-0.0004099471843801439
2304.0,-0.0029772513080388308
2560.0,-0.001018244307488203
2816.0,-0.0013046141248196363
3072.0,-0.0027959560975432396
3328.0,-0.0032432975713163614
3584.0,-0.0016791849629953504
3840.0,-0.0008170048240572214
4096.0,-0.0025208720471709967
4608.0,-0.001979355700314045
5120.0,-0.0006468361825682223
5632.0,-0.0003750924370251596
6144.0,0.002679885132238269
6656.0,0.0007075794273987412
7168.0,0.002785192336887121
7680.0,0.0017034161137416959
8192.0,0.002004424575716257
end
