version,3.0
numOfCh,1
type,point
parent_name,714af_0dot6-1dot0
ch_type,1_1
kcount,1
numberNandB,1
brightnessNandB,1
carpet pos,0
pc,0
Time (ms),CH1 Auto-Correlation
1.0,0.042450498789548874
2.0,0.04012307897210121
3.0,0.03807203099131584
4.0,0.036239467561244965
5.0,0.03465992957353592
6.0,0.03322713077068329
7.0,0.03177424147725105
8.0,0.030458800494670868
9.0,0.029233740642666817
10.0,0.028099793940782547
11.0,0.02699928730726242
12.0,0.02597867324948311
13.0,0.024980735033750534
14.0,0.024041717872023582
15.0,0.023178186267614365
16.0,0.02234194241464138
18.0,0.021007684990763664
20.0,0.019877281039953232
22.0,0.018765190616250038
24.0,0.017853043973445892
26.0,0.017052307724952698
28.0,0.016305437311530113
30.0,0.01564730331301689
32.0,0.014942591078579426
36.0,0.013576637022197247
40.0,0.012702022679150105
44.0,0.011938798241317272
48.0,0.010745720006525517
52.0,0.009545296430587769
56.0,0.00854541640728712
60.0,0.007647387217730284
64.0,0.0069598727859556675
72.0,0.005762868095189333
80.0,0.004917272832244635
88.0,0.004350362811237574
96.0,0.004441142547875643
104.0,0.004872690886259079
112.0,0.005343281663954258
120.0,0.0053426423110067844
128.0,0.004514988046139479
144.0,0.0035795881412923336
160.0,0.004279425833374262
176.0,0.00399737199768424
192.0,0.00422228779643774
208.0,0.004411652684211731
224.0,0.004359614569693804
240.0,0.004010793287307024
256.0,0.003179820254445076
288.0,0.0025793116074055433
320.0,0.00386800616979599
352.0,0.004103939980268478
384.0,0.0035165464505553246
416.0,0.0030537296552211046
448.0,0.004350870382040739
480.0,0.004525879397988319
512.0,0.004740970209240913
576.0,0.0035304389894008636
640.0,0.0019258829997852445
704.0,0.0020103685092180967
768.0,0.004336133599281311
832.0,0.003541742218658328
896.0,0.002396945608779788
960.0,0.002278609201312065
1024.0,0.0018236872274428606
1152.0,0.001449455157853663
1280.0,0.0035259462893009186
1408.0,0.0007951809675432742
1536.0,0.0020090818870812654
1664.0,-0.0008168299682438374
1792.0,0.001328919897787273
1920.0,0.0010629852768033743
2048.0,0.0007173545309342444
2304.0,0.0017569708870723844
2560.0,0.0032725150231271982
2816.0,0.0025288781616836786
3072.0,0.002990569919347763
3328.0,0.0021559942979365587
3584.0,0.002730053849518299
3840.0,0.0015131637919694185
4096.0,0.0011223424226045609
4608.0,-0.002728724852204323
5120.0,-0.0005780499777756631
5632.0,-0.0015555594582110643
6144.0,-0.0013755146646872163
6656.0,-0.0016094082966446877
7168.0,-0.00411080801859498
7680.0,-0.0030744902323931456
8192.0,-0.004730475600808859
end
