version,3.0
numOfCh,1
type,point
parent_name,714af_0dot6-1dot0
ch_type,1_1
kcount,1
numberNandB,1
brightnessNandB,1
carpet pos,0
pc,0
Time (ms),CH1 Auto-Correlation
1.0,0.04101740941405296
2.0,0.03868693858385086
3.0,0.03660447895526886
4.0,0.034800026565790176
5.0,0.033176179975271225
6.0,0.03162248432636261
7.0,0.030198853462934494
8.0,0.028875038027763367
9.0,0.027639320120215416
10.0,0.026491956785321236
11.0,0.025365928187966347
12.0,0.024297639727592468
13.0,0.023325374349951744
14.0,0.022379998117685318
15.0,0.02155935764312744
16.0,0.020761679857969284
18.0,0.019257986918091774
20.0,0.01798015646636486
22.0,0.016719438135623932
24.0,0.015564982779324055
26.0,0.014578361995518208
28.0,0.013694580644369125
30.0,0.012731109745800495
32.0,0.011838522739708424
36.0,0.010629010386765003
40.0,0.009708602912724018
44.0,0.008856278844177723
48.0,0.008252979256212711
52.0,0.007748550269752741
56.0,0.007617096416652203
60.0,0.007384462282061577
64.0,0.00689080823212862
72.0,0.0057699414901435375
80.0,0.0045545510947704315
88.0,0.003780040657147765
96.0,0.0032152042258530855
104.0,0.0026122897397726774
112.0,0.0021851253695786
120.0,0.0016133510507643223
128.0,0.0014339776244014502
144.0,0.0015359132084995508
160.0,0.002084732986986637
176.0,0.0026241992600262165
192.0,0.002283569425344467
208.0,0.001917787129059434
224.0,0.001427528215572238
240.0,0.0014415776822715998
256.0,0.0033120831940323114
288.0,0.0025827044155448675
320.0,0.0017291049007326365
352.0,0.0008364308159798384
384.0,0.0012277079513296485
416.0,0.0005624830955639482
448.0,-0.00015782010450493544
480.0,8.070051262620836e-05
512.0,0.00045356404734775424
576.0,0.00024832176859490573
640.0,-0.0002009536838158965
704.0,0.0005793141317553818
768.0,-0.0015733337495476007
832.0,0.00024122354807332158
896.0,-0.0009639744530431926
960.0,-0.0008543222793377936
1024.0,-0.00041427669930271804
1152.0,-0.0010638156672939658
1280.0,0.0013240213738754392
1408.0,0.0029226455371826887
1536.0,0.00018750496383290738
1664.0,-8.623318717582151e-05
1792.0,0.001837434247136116
1920.0,0.00260397931560874
2048.0,0.001197834382764995
2304.0,-0.0004486626130528748
2560.0,-0.0014422977110370994
2816.0,-0.0011637948919087648
3072.0,-0.0009356289519928396
3328.0,8.201141463359818e-05
3584.0,0.000637484306935221
3840.0,0.002150113694369793
4096.0,-0.0005413702456280589
4608.0,0.0010984817054122686
5120.0,-1.8939430447062477e-05
5632.0,0.00056427315576002
6144.0,-0.0008433358161710203
6656.0,-0.0003577172465156764
7168.0,-0.0007666298188269138
7680.0,-0.0017226454801857471
8192.0,0.0004607659939210862
end
