version,3.0
numOfCh,1
type,point
parent_name,714af_0dot6-1dot0
ch_type,1_1
kcount,1
numberNandB,1
brightnessNandB,1
carpet pos,0
pc,0
Time (ms),CH1 Auto-Correlation
1.0,0.043610572814941406
2.0,0.04124471917748451
3.0,0.03918388485908508
4.0,0.03737259283661842
5.0,0.035724278539419174
6.0,0.03422697260975838
7.0,0.032890696078538895
8.0,0.031627804040908813
9.0,0.03035171516239643
10.0,0.02921420708298683
11.0,0.02814869023859501
12.0,0.027149008587002754
13.0,0.026260722428560257
14.0,0.02538871392607689
15.0,0.024521686136722565
16.0,0.02362808585166931
18.0,0.02211601845920086
20.0,0.02082238718867302
22.0,0.01969907060265541
24.0,0.018669921904802322
26.0,0.017535729333758354
28.0,0.016621524468064308
30.0,0.01590673066675663
32.0,0.01528145745396614
36.0,0.013674101792275906
40.0,0.01260669156908989
44.0,0.011824394576251507
48.0,0.011199858970940113
52.0,0.010627347975969315
56.0,0.009978337213397026
60.0,0.009721347130835056
64.0,0.009601742029190063
72.0,0.009915800765156746
80.0,0.009899499826133251
88.0,0.00968947447836399
96.0,0.008798155933618546
104.0,0.007985002361238003
112.0,0.008057584054768085
120.0,0.007680987007915974
128.0,0.006647361908107996
144.0,0.004905383568257093
160.0,0.00426720455288887
176.0,0.003748389193788171
192.0,0.0032204415183514357
208.0,0.0032799122855067253
224.0,0.0030539799481630325
240.0,0.00270994589664042
256.0,0.0017909265588968992
288.0,0.0007089320570230484
320.0,0.0011579312849789858
352.0,0.0022497198078781366
384.0,0.002560613676905632
416.0,0.0033827030565589666
448.0,0.003486213507130742
480.0,0.0038459505885839462
512.0,0.0023722294718027115
576.0,-0.00011879352678079158
640.0,-3.510500755510293e-05
704.0,0.000774265849031508
768.0,0.0016923713264986873
832.0,0.0019923297222703695
896.0,0.0011917355004698038
960.0,0.00035364029463380575
1024.0,0.0012957105645909905
1152.0,0.002091029193252325
1280.0,0.0021767853759229183
1408.0,0.0017773181898519397
1536.0,0.0014115439262241125
1664.0,-0.0014927518786862493
1792.0,-0.002059239661321044
1920.0,-0.0016239394899457693
2048.0,-0.0008747949032112956
2304.0,0.0009241394582204521
2560.0,-0.0002792548038996756
2816.0,9.260104707209393e-05
3072.0,-1.3991639207233675e-06
3328.0,-0.00283248838968575
3584.0,0.00019664988212753087
3840.0,-0.00045792170567438006
4096.0,0.0014104959554970264
4608.0,-0.0016412072582170367
5120.0,0.0007652619387954473
5632.0,-0.0018772791372612119
6144.0,-0.0028794570825994015
6656.0,-0.0035715571139007807
7168.0,-0.003866355400532484
7680.0,-0.0007749468786641955
8192.0,-0.0013644356513395905
end
