version,3.0
numOfCh,1
type,point
parent_name,714af_0dot6-1dot0
ch_type,1_1
kcount,1
numberNandB,1
brightnessNandB,1
carpet pos,0
pc,0
Time (ms),CH1 Auto-Correlation
1.0,0.04693225026130676
2.0,0.04449955374002457
3.0,0.04236080124974251
4.0,0.04043116420507431
5.0,0.03860050439834595
6.0,0.03692138195037842
7.0,0.0353705920279026
8.0,0.03398215025663376
9.0,0.03279293328523636
10.0,0.03161399066448212
11.0,0.030493592843413353
12.0,0.029430340975522995
13.0,0.028471989557147026
14.0,0.027593620121479034
15.0,0.026790067553520203
16.0,0.02604849636554718
18.0,0.02456427551805973
20.0,0.02322472259402275
22.0,0.02210528403520584
24.0,0.02116755209863186
26.0,0.020389258861541748
28.0,0.01970747485756874
30.0,0.019178234040737152
32.0,0.01885998621582985
36.0,0.017955251038074493
40.0,0.016886001452803612
44.0,0.016201959922909737
48.0,0.01568916253745556
52.0,0.015070226974785328
56.0,0.014281160198152065
60.0,0.013467543758451939
64.0,0.012690487317740917
72.0,0.011817618273198605
80.0,0.010813622735440731
88.0,0.010017299093306065
96.0,0.009410596452653408
104.0,0.009090586565434933
112.0,0.008956954814493656
120.0,0.009168781340122223
128.0,0.00900688674300909
144.0,0.006781584117561579
160.0,0.005539491772651672
176.0,0.005001177545636892
192.0,0.0032574424985796213
208.0,0.0022304647136479616
224.0,0.0016051046550273895
240.0,0.000342508137691766
256.0,9.11102833924815e-05
288.0,0.00012037568376399577
320.0,0.000805567076895386
352.0,0.00219596060924232
384.0,0.002860883018001914
416.0,0.0032890583388507366
448.0,0.0023334466386586428
480.0,0.0016699334373697639
512.0,0.0004003823851235211
576.0,-0.001364768948405981
640.0,-0.002351102652028203
704.0,-0.005294928792864084
768.0,-0.003547020023688674
832.0,-0.0014154871460050344
896.0,-0.0030025020241737366
960.0,-0.0013355736155062914
1024.0,-0.0007054558955132961
1152.0,-0.0006392337963916361
1280.0,-0.0011119084665551782
1408.0,-0.0005357254995033145
1536.0,0.0004175099893473089
1664.0,-0.001293685520067811
1792.0,-0.002656729891896248
1920.0,-0.003459537634626031
2048.0,-0.0010022714268416166
2304.0,0.0007481715292669833
2560.0,0.002655751071870327
2816.0,0.0016829563537612557
3072.0,0.0005907524609938264
3328.0,0.00010254778317175806
3584.0,0.0032900746446102858
3840.0,0.0007190773612819612
4096.0,-0.002501262119039893
4608.0,-0.0031695072539150715
5120.0,-0.00043588882545009255
5632.0,-0.0023400415666401386
6144.0,-0.0021174924913793802
6656.0,0.0009685570257715881
7168.0,0.00266835605725646
7680.0,-0.002421668963506818
8192.0,-0.0035434651654213667
end
