version,3.0
numOfCh,1
type,point
parent_name,714af_0dot6-1dot0
ch_type,1_1
kcount,1
numberNandB,1
brightnessNandB,1
carpet pos,0
pc,0
Time (ms),CH1 Auto-Correlation
1.0,0.0466127023100853
2.0,0.044345006346702576
3.0,0.042374979704618454
4.0,0.04056589677929878
5.0,0.03895629569888115
6.0,0.03747693821787834
7.0,0.036030590534210205
8.0,0.03465922176837921
9.0,0.033322423696517944
10.0,0.03213143348693848
11.0,0.030997097492218018
12.0,0.02994542382657528
13.0,0.02900744043290615
14.0,0.028122050687670708
15.0,0.027341537177562714
16.0,0.02662542834877968
18.0,0.025360770523548126
20.0,0.02432660199701786
22.0,0.02337011881172657
24.0,0.022511295974254608
26.0,0.02165978029370308
28.0,0.020728666335344315
30.0,0.019892346113920212
32.0,0.019268101081252098
36.0,0.01815248653292656
40.0,0.016881609335541725
44.0,0.015563538298010826
48.0,0.01444912701845169
52.0,0.013598142191767693
56.0,0.013160308822989464
60.0,0.01279256958514452
64.0,0.012343105860054493
72.0,0.011627428233623505
80.0,0.011187799274921417
88.0,0.010753163136541843
96.0,0.010341256856918335
104.0,0.00981160905212164
112.0,0.009391199797391891
120.0,0.008589516393840313
128.0,0.007869238033890724
144.0,0.006038947496563196
160.0,0.005824158433824778
176.0,0.0049260868690907955
192.0,0.004315020516514778
208.0,0.0035370008554309607
224.0,0.00374383432790637
240.0,0.003882300341501832
256.0,0.0038005115929991007
288.0,0.004100992809981108
320.0,0.0019094449235126376
352.0,0.0010852167615666986
384.0,0.002583680674433708
416.0,0.001029866631142795
448.0,-3.493007170618512e-05
480.0,-0.000266595627181232
512.0,0.0006876763654872775
576.0,0.00024615571601316333
640.0,-0.0006851545185782015
704.0,0.00046847492922097445
768.0,0.0010352981043979526
832.0,0.001613366650417447
896.0,0.002024243585765362
960.0,0.0006148358806967735
1024.0,0.0005978985573165119
1152.0,-0.0010384183842688799
1280.0,-0.0005225088680163026
1408.0,0.0006700134836137295
1536.0,0.00011067554441979155
1664.0,-0.00019941841310355812
1792.0,-0.0012116797734051943
1920.0,-0.0013826737413182855
2048.0,0.0014925227733328938
2304.0,0.0011073737405240536
2560.0,-5.902419798076153e-05
2816.0,-0.0025744540616869926
3072.0,-0.003675153013318777
3328.0,-0.0037075225263834
3584.0,-0.0027474353555589914
3840.0,0.00010812048276420683
4096.0,-0.002164495876058936
4608.0,3.952728002332151e-05
5120.0,-0.0016252865316346288
5632.0,-0.0038483133539557457
6144.0,0.00031308672623708844
6656.0,0.002466478617861867
7168.0,0.0024224738590419292
7680.0,0.0017290309770032763
8192.0,0.002658225130289793
end
