version,3.0
numOfCh,1
type,point
parent_name,714af_0dot6-1dot0
ch_type,1_1
kcount,1
numberNandB,1
brightnessNandB,1
carpet pos,0
pc,0
Time (ms),CH1 Auto-Correlation
1.0,0.04690477252006531
2.0,0.04460165277123451
3.0,0.042548056691884995
4.0,0.040676914155483246
5.0,0.03895639628171921
6.0,0.03748699277639389
7.0,0.036100439727306366
8.0,0.03471671789884567
9.0,0.03341596946120262
10.0,0.03215712681412697
11.0,0.030978817492723465
12.0,0.02988547831773758
13.0,0.028770867735147476
14.0,0.02771279774606228
15.0,0.026745285838842392
16.0,0.025887763127684593
18.0,0.024428045377135277
20.0,0.02307225577533245
22.0,0.021893508732318878
24.0,0.02080656960606575
26.0,0.019708333536982536
28.0,0.018615124747157097
30.0,0.017618844285607338
32.0,0.01684407703578472
36.0,0.01537556666880846
40.0,0.014026648364961147
44.0,0.012952759861946106
48.0,0.012097922153770924
52.0,0.011313308961689472
56.0,0.01068927813321352
60.0,0.009949848055839539
64.0,0.009325412102043629
72.0,0.008798999711871147
80.0,0.00805079285055399
88.0,0.007566840387880802
96.0,0.00786975584924221
104.0,0.008589579723775387
112.0,0.009436147287487984
120.0,0.010342994704842567
128.0,0.01057270634919405
144.0,0.00933542475104332
160.0,0.008357864804565907
176.0,0.007599489763379097
192.0,0.006919600535184145
208.0,0.006485972087830305
224.0,0.006422024220228195
240.0,0.0058603547513484955
256.0,0.005784046370536089
288.0,0.00547061488032341
320.0,0.0037848749198019505
352.0,0.004827092867344618
384.0,0.005122059024870396
416.0,0.0036031589843332767
448.0,0.003450389951467514
480.0,0.004009319003671408
512.0,0.004690238274633884
576.0,0.0008055121870711446
640.0,0.0006189682753756642
704.0,0.0008077490492723882
768.0,-0.0012793669011443853
832.0,-0.0031284173019230366
896.0,-0.0039807031862437725
960.0,-0.004271876998245716
1024.0,-0.004389007110148668
1152.0,-0.0024689058773219585
1280.0,-0.0029151320923119783
1408.0,-0.0033155728597193956
1536.0,-0.004187028389424086
1664.0,-0.00287843425758183
1792.0,-0.0017192235682159662
1920.0,0.0002898194652516395
2048.0,-0.0009271663147956133
2304.0,0.0009911253582686186
2560.0,-0.0011621024459600449
2816.0,-0.0017839085776358843
3072.0,-0.0013662419514730573
3328.0,-0.0011535822413861752
3584.0,0.0017132926732301712
3840.0,0.0034139861818403006
4096.0,0.0035109608434140682
4608.0,-0.00271989475004375
5120.0,-0.00477997912093997
5632.0,0.0015480509027838707
6144.0,0.0020233464892953634
6656.0,-0.0013236049562692642
7168.0,-0.003834680188447237
7680.0,0.002695383271202445
8192.0,0.007597910240292549
end
