version,3.0
numOfCh,1
type,point
parent_name,714af_0dot6-1dot0
ch_type,1_1
kcount,1
numberNandB,1
brightnessNandB,1
carpet pos,0
pc,0
Time (ms),CH1 Auto-Correlation
1.0,0.04567180946469307
2.0,0.04335270822048187
3.0,0.0411771759390831
4.0,0.03917766362428665
5.0,0.03730122372508049
6.0,0.035629671066999435
7.0,0.03410614654421806
8.0,0.032690007239580154
9.0,0.031291503459215164
10.0,0.02998046763241291
11.0,0.028786197304725647
12.0,0.02773061767220497
13.0,0.026789864525198936
14.0,0.025884531438350677
15.0,0.025002453476190567
16.0,0.02413134276866913
18.0,0.022561155259609222
20.0,0.021190626546740532
22.0,0.0198899544775486
24.0,0.018673330545425415
26.0,0.017622442916035652
28.0,0.016702698543667793
30.0,0.015867773443460464
32.0,0.015073618851602077
36.0,0.013553865253925323
40.0,0.012460953556001186
44.0,0.011765205301344395
48.0,0.011159712448716164
52.0,0.010645761154592037
56.0,0.009770551696419716
60.0,0.009147938340902328
64.0,0.008646665140986443
72.0,0.00816873274743557
80.0,0.007438120432198048
88.0,0.007073615211993456
96.0,0.0071315220557153225
104.0,0.007049620617181063
112.0,0.006349122617393732
120.0,0.0059567098505795
128.0,0.00541845103725791
144.0,0.005497734993696213
160.0,0.005422922782599926
176.0,0.005450533237308264
192.0,0.004117435775697231
208.0,0.0036666274536401033
224.0,0.003395017934963107
240.0,0.002948372159153223
256.0,0.003537069773301482
288.0,0.00297626294195652
320.0,0.001818814198486507
352.0,0.0007753222016617656
384.0,0.0018175359582528472
416.0,0.002245625015348196
448.0,0.002165266778320074
480.0,0.002937785116955638
512.0,0.0027799177914857864
576.0,0.0014021263923496008
640.0,-0.0007012657588347793
704.0,-0.0025904765352606773
768.0,-0.003727844450622797
832.0,-0.0023262151516973972
896.0,-0.004156808368861675
960.0,-0.0030036098323762417
1024.0,-0.002242953982204199
1152.0,-0.0015253596939146519
1280.0,-0.0028205406852066517
1408.0,-0.0036073324736207724
1536.0,-0.0016887907404452562
1664.0,-0.001999154919758439
1792.0,-0.0008578571723774076
1920.0,-0.0011712188133969903
2048.0,-0.0021531335078179836
2304.0,-0.0012215273454785347
2560.0,-0.0013681399868801236
2816.0,0.0014958950923755765
3072.0,0.0017779484624043107
3328.0,0.00174382992554456
3584.0,0.00017302036576438695
3840.0,0.0019523432711139321
4096.0,0.0029003408271819353
4608.0,0.0005238552112132311
5120.0,-0.0011817174963653088
5632.0,-0.0034647600259631872
6144.0,-0.0009770216420292854
6656.0,0.0026964652352035046
7168.0,0.002174332272261381
7680.0,-0.0008116821409203112
8192.0,-0.0005312662106007338
end
