version,3.0
numOfCh,1
type,point
parent_name,714af_0dot6-1dot0
ch_type,1_1
kcount,1
numberNandB,1
brightnessNandB,1
carpet pos,0
pc,0
Time (ms),CH1 Auto-Correlation
1.0,0.041005492210388184
2.0,0.03856191411614418
3.0,0.03636471554636955
4.0,0.034389887005090714
5.0,0.032631319016218185
6.0,0.031008513644337654
7.0,0.029616959393024445
8.0,0.02829642966389656
9.0,0.02707163244485855
10.0,0.025894951075315475
11.0,0.02482311800122261
12.0,0.023815639317035675
13.0,0.022760717198252678
14.0,0.021757254377007484
15.0,0.02085884101688862
16.0,0.020009249448776245
18.0,0.0184965617954731
20.0,0.017236558720469475
22.0,0.016184592619538307
24.0,0.015278792008757591
26.0,0.014470466412603855
28.0,0.013914387673139572
30.0,0.013383396901190281
32.0,0.012966230511665344
36.0,0.012291081249713898
40.0,0.011542389169335365
44.0,0.010657502338290215
48.0,0.009783158078789711
52.0,0.009272515773773193
56.0,0.008876660838723183
60.0,0.008410410024225712
64.0,0.007785165216773748
72.0,0.006861297879368067
80.0,0.006010359153151512
88.0,0.005289329681545496
96.0,0.004866461735218763
104.0,0.004450994543731213
112.0,0.0038524442352354527
120.0,0.003093885025009513
128.0,0.0019875075668096542
144.0,0.00023734620481263846
160.0,0.000652045477181673
176.0,0.0031710697803646326
192.0,0.003545468905940652
208.0,0.002308231545612216
224.0,0.0017530685290694237
240.0,0.0009161438792943954
256.0,0.0015563603956252337
288.0,0.0018380521796643734
320.0,0.001036237576045096
352.0,0.0016313118394464254
384.0,0.0014295560540631413
416.0,0.0021567512303590775
448.0,0.0012064450420439243
480.0,0.0005725878290832043
512.0,-0.0012214406160637736
576.0,-0.0019151652231812477
640.0,-0.0029371220152825117
704.0,-0.0008004441042430699
768.0,0.0015574612189084291
832.0,0.0021951007656753063
896.0,0.0018119649030268192
960.0,-0.0010586429852992296
1024.0,-0.001618915586732328
1152.0,0.0008594673126935959
1280.0,0.0014212988317012787
1408.0,0.00035974261118099093
1536.0,-9.82669553195592e-06
1664.0,0.0012429163325577974
1792.0,0.0017194561660289764
1920.0,0.0003977087908424437
2048.0,-0.0015043439343571663
2304.0,0.00111652840860188
2560.0,-0.0008639782317914069
2816.0,-0.003047775710001588
3072.0,0.001614672364667058
3328.0,0.0004314445541240275
3584.0,-0.002349128946661949
3840.0,-0.0020796600729227066
4096.0,-0.00155563373118639
4608.0,0.0008943960419856012
5120.0,0.00018559304589871317
5632.0,0.0011469151359051466
6144.0,3.243031414967845e-06
6656.0,-0.0011563232401385903
7168.0,-0.0021918844431638718
7680.0,-0.00038373065763153136
8192.0,-0.0035235893446952105
end
