version,3.0
numOfCh,1
type,point
parent_name,34766_0dot6-1dot0
ch_type,1_1
kcount,1
numberNandB,1
brightnessNandB,1
carpet pos,0
pc,0
Time (ms),CH1 Auto-Correlation
1.0,0.040259089320898056
2.0,0.037925396114587784
3.0,0.0358145534992218
4.0,0.0339205376803875
5.0,0.03216394782066345
6.0,0.030491100624203682
7.0,0.028933463618159294
8.0,0.02750690095126629
9.0,0.02615165151655674
10.0,0.02488948591053486
11.0,0.02372613549232483
12.0,0.02264454774558544
13.0,0.021528592333197594
14.0,0.02049921825528145
15.0,0.01958324760198593
16.0,0.018723633140325546
18.0,0.01721852831542492
20.0,0.015944398939609528
22.0,0.014894275926053524
24.0,0.014002440497279167
26.0,0.013131620362401009
28.0,0.012345908209681511
30.0,0.011579177342355251
32.0,0.010666743852198124
36.0,0.009256061166524887
40.0,0.008234763517975807
44.0,0.007643525488674641
48.0,0.007290748413652182
52.0,0.006861802190542221
56.0,0.006547562312334776
60.0,0.006334569770842791
64.0,0.006052262615412474
72.0,0.00585812097415328
80.0,0.005960963666439056
88.0,0.006219948176294565
96.0,0.00582823995500803
104.0,0.005084543954581022
112.0,0.0042956313118338585
120.0,0.003275146707892418
128.0,0.0027592184487730265
144.0,0.0027639528270810843
160.0,0.0019408931257203221
176.0,0.0006245140684768558
192.0,0.0007147460128180683
208.0,0.0012712790630757809
224.0,0.00024956592824310064
240.0,-0.0005464775604195893
256.0,-0.0014926196308806539
288.0,-0.000167352263815701
320.0,0.00037247591535560787
352.0,-0.0006830369820818305
384.0,-0.0014562864089384675
416.0,-0.0022017708979547024
448.0,-0.0011943400604650378
480.0,-0.001397344865836203
512.0,-0.0018756514182314277
576.0,-0.002461753785610199
640.0,-0.0010523655219003558
704.0,-0.002472481457516551
768.0,-0.001312997192144394
832.0,-0.00038662151200696826
896.0,-0.0005942497518844903
960.0,-0.0010666637681424618
1024.0,-0.001296740723773837
1152.0,-0.000974559283349663
1280.0,-0.0008528250036761165
1408.0,-0.00043519691098481417
1536.0,0.000616472854744643
1664.0,-0.00012956708087585866
1792.0,-0.0009315069764852524
1920.0,-0.0011980367125943303
2048.0,0.0010055701714009047
2304.0,0.0005025009158998728
2560.0,-0.0010548512218520045
2816.0,-0.002029340248554945
3072.0,-0.0013816001592203975
3328.0,-0.0018363179406151175
3584.0,0.0020037100184708834
3840.0,0.002835354767739773
4096.0,0.000263519148575142
4608.0,0.000882033200468868
5120.0,-0.0007254652446135879
5632.0,0.0015882723964750767
6144.0,-0.0013069742126390338
6656.0,0.0006769735482521355
7168.0,-0.0019511098507791758
7680.0,0.0002805108088068664
8192.0,0.00010057056351797655
end
