version,3.0
numOfCh,1
type,point
parent_name,34766_0dot6-1dot0
ch_type,1_1
kcount,1
numberNandB,1
brightnessNandB,1
carpet pos,0
pc,0
Time (ms),CH1 Auto-Correlation
1.0,0.0467640683054924
2.0,0.04437793791294098
3.0,0.042214203625917435
4.0,0.04022106155753136
5.0,0.03847826272249222
6.0,0.03684229776263237
7.0,0.03531963750720024
8.0,0.033918775618076324
9.0,0.03268221765756607
10.0,0.031478606164455414
11.0,0.030403578653931618
12.0,0.029377708211541176
13.0,0.028420686721801758
14.0,0.02759087085723877
15.0,0.02675209380686283
16.0,0.025994354858994484
18.0,0.024702349677681923
20.0,0.02349785529077053
22.0,0.02240561507642269
24.0,0.021377626806497574
26.0,0.02042623609304428
28.0,0.019520839676260948
30.0,0.018724197521805763
32.0,0.01802035979926586
36.0,0.016908183693885803
40.0,0.01574302650988102
44.0,0.01486967783421278
48.0,0.013890134170651436
52.0,0.012828444130718708
56.0,0.012054992839694023
60.0,0.011601497419178486
64.0,0.01130678877234459
72.0,0.010558150708675385
80.0,0.010124186053872108
88.0,0.009387411177158356
96.0,0.00863802433013916
104.0,0.007689123507589102
112.0,0.006390605587512255
120.0,0.0056080142967402935
128.0,0.005246774759143591
144.0,0.005553165450692177
160.0,0.006118421908468008
176.0,0.0058002653531730175
192.0,0.005349257029592991
208.0,0.00382721284404397
224.0,0.0025250399485230446
240.0,0.002941715996712446
256.0,0.002775767119601369
288.0,0.0026134997606277466
320.0,0.0028611216694116592
352.0,0.002764541655778885
384.0,0.0018748696893453598
416.0,0.0015486747724935412
448.0,0.00027964936452917755
480.0,0.0006071817479096353
512.0,0.001569614396430552
576.0,-0.0003377046959940344
640.0,-0.00017439379007555544
704.0,5.3142415708862245e-05
768.0,0.001478333375416696
832.0,0.0018188683316111565
896.0,0.0008733932627364993
960.0,-1.931091901496984e-05
1024.0,0.002056759549304843
1152.0,-0.0006835610256530344
1280.0,0.0002446075959596783
1408.0,-0.0005290561239235103
1536.0,-0.00011807325790869072
1664.0,-0.0015667076222598553
1792.0,-0.0023143095895648003
1920.0,-0.003156073158606887
2048.0,-0.0013045802479609847
2304.0,-0.0032124489080160856
2560.0,-0.002416425384581089
2816.0,-0.00020116084488108754
3072.0,-0.00032630289206281304
3328.0,-0.0005463749403133988
3584.0,0.0021838827524334192
3840.0,-0.0004689873894676566
4096.0,0.0011828240239992738
4608.0,0.000227771932259202
5120.0,0.00012931892706546932
5632.0,-0.0006499933660961688
6144.0,-0.0019169289153069258
6656.0,-0.0009405518067069352
7168.0,0.0007839196478016675
7680.0,-0.000803348608314991
8192.0,-0.003266561310738325
end
