version,3.0
numOfCh,1
type,point
parent_name,34766_0dot6-1dot0
ch_type,1_1
kcount,1
numberNandB,1
brightnessNandB,1
carpet pos,0
pc,0
Time (ms),CH1 Auto-Correlation
1.0,0.04883934184908867
2.0,0.04649464786052704
3.0,0.044370170682668686
4.0,0.042482148855924606
5.0,0.0407845675945282
6.0,0.03917934373021126
7.0,0.03770367056131363
8.0,0.03638490289449692
9.0,0.0351191908121109
10.0,0.03395796939730644
11.0,0.032849106937646866
12.0,0.03175933286547661
13.0,0.030750947073101997
14.0,0.029868049547076225
15.0,0.02899172715842724
16.0,0.028162937611341476
18.0,0.026669656857848167
20.0,0.02536393329501152
22.0,0.02402784675359726
24.0,0.022701267153024673
26.0,0.02167786844074726
28.0,0.020943647250533104
30.0,0.020194130018353462
32.0,0.01958872564136982
36.0,0.01885858178138733
40.0,0.018245337530970573
44.0,0.017692578956484795
48.0,0.016903595998883247
52.0,0.016021404415369034
56.0,0.015423303470015526
60.0,0.014824332669377327
64.0,0.014190762303769588
72.0,0.012794776819646358
80.0,0.01201541256159544
88.0,0.01188889890909195
96.0,0.01183200255036354
104.0,0.010725215077400208
112.0,0.009859628044068813
120.0,0.008970341645181179
128.0,0.00830952450633049
144.0,0.007396242581307888
160.0,0.007509187795221806
176.0,0.00720970006659627
192.0,0.005391379352658987
208.0,0.006188528146594763
224.0,0.006844195071607828
240.0,0.007292608264833689
256.0,0.0057866983115673065
288.0,0.003735167672857642
320.0,0.002089097397401929
352.0,-0.0008414581534452736
384.0,-0.0008720835903659463
416.0,0.00012422211875673383
448.0,-0.001678580418229103
480.0,-0.0021270259749144316
512.0,-0.0025057224556803703
576.0,-0.0037501517217606306
640.0,-0.0033292684238404036
704.0,-0.0016596553614363074
768.0,-0.004934606142342091
832.0,-0.0026470983866602182
896.0,-0.0004564523696899414
960.0,0.0016404971247538924
1024.0,0.002324179746210575
1152.0,0.004054744262248278
1280.0,0.005943499971181154
1408.0,0.0064664604142308235
1536.0,0.0015308739384636283
1664.0,-0.00150568678509444
1792.0,-0.003844378050416708
1920.0,-0.004757814574986696
2048.0,-0.003232909133657813
2304.0,0.0005054633948020637
2560.0,-0.0008852798491716385
2816.0,-0.0019325991161167622
3072.0,-0.00035379474866203964
3328.0,-0.00045927471364848316
3584.0,0.0007537953206337988
3840.0,-0.0003130889090243727
4096.0,-0.00345934578217566
4608.0,-0.002499588765203953
5120.0,0.00043788974289782345
5632.0,-0.004107584245502949
6144.0,-0.0021991014946252108
6656.0,0.00316677987575531
7168.0,-0.0020326171070337296
7680.0,0.002245294628664851
8192.0,0.0038166686426848173
end
