version,3.0
numOfCh,1
type,point
parent_name,34766_0dot6-1dot0
ch_type,1_1
kcount,1
numberNandB,1
brightnessNandB,1
carpet pos,0
pc,0
Time (ms),CH1 Auto-Correlation
1.0,0.045770395547151566
2.0,0.04349564388394356
3.0,0.04147427901625633
4.0,0.03968494012951851
5.0,0.03809773176908493
6.0,0.036646973341703415
7.0,0.0352875255048275
8.0,0.03405912593007088
9.0,0.03290245309472084
10.0,0.031765684485435486
11.0,0.03067472018301487
12.0,0.029725974425673485
13.0,0.028776872903108597
14.0,0.02791447564959526
15.0,0.0270958561450243
16.0,0.02630133181810379
18.0,0.02487114816904068
20.0,0.023676326498389244
22.0,0.02261829748749733
24.0,0.021621866151690483
26.0,0.020796088501811028
28.0,0.020044730976223946
30.0,0.019414441660046577
32.0,0.018839722499251366
36.0,0.017762314528226852
40.0,0.016592424362897873
44.0,0.015650538727641106
48.0,0.014995218254625797
52.0,0.014261791482567787
56.0,0.013469587080180645
60.0,0.012489225715398788
64.0,0.01174329873174429
72.0,0.010347597301006317
80.0,0.00941726565361023
88.0,0.008446586318314075
96.0,0.0073725320398807526
104.0,0.006251022685319185
112.0,0.005741955246776342
120.0,0.004951056558638811
128.0,0.0041241333819925785
144.0,0.003758523380383849
160.0,0.003940289374440908
176.0,0.0038962254766374826
192.0,0.003751499578356743
208.0,0.0033195114228874445
224.0,0.003840271383523941
240.0,0.004479997791349888
256.0,0.004358894657343626
288.0,0.0040352838113904
320.0,0.004788664635270834
352.0,0.004188904073089361
384.0,0.0029890977311879396
416.0,0.0019050897099077702
448.0,0.0013691633939743042
480.0,0.0003536852600518614
512.0,-9.290745765611064e-06
576.0,-8.094432996585965e-05
640.0,-0.0006431341171264648
704.0,-0.0037251615431159735
768.0,-0.003788813715800643
832.0,-0.0044253552332520485
896.0,-0.004409873392432928
960.0,-0.0020346941892057657
1024.0,-0.003072624560445547
1152.0,-0.004142935387790203
1280.0,-0.0015707802958786488
1408.0,-0.0015267241979017854
1536.0,-0.0009591187117621303
1664.0,-0.0006059600273147225
1792.0,-0.0004396735457703471
1920.0,-0.0010696204844862223
2048.0,0.0010549611179158092
2304.0,0.00024563560145907104
2560.0,0.004516266286373138
2816.0,0.0021486030891537666
3072.0,0.0029451148584485054
3328.0,0.0002776067703962326
3584.0,0.0013674882939085364
3840.0,-0.002751849824562669
4096.0,-0.0038348149973899126
4608.0,-0.0030356948263943195
5120.0,0.0019493374275043607
5632.0,0.002978615229949355
6144.0,0.0007739547290839255
6656.0,-0.0032881773076951504
7168.0,-0.0028553323354572058
7680.0,0.0005169495125301182
8192.0,0.0021068642381578684
end
