version,3.0
numOfCh,1
type,point
parent_name,34766_0dot6-1dot0
ch_type,1_1
kcount,1
numberNandB,1
brightnessNandB,1
carpet pos,0
pc,0
Time (ms),CH1 Auto-Correlation
1.0,0.04187167063355446
2.0,0.039716098457574844
3.0,0.03774278983473778
4.0,0.036061953753232956
5.0,0.034567732363939285
6.0,0.033191483467817307
7.0,0.03185708448290825
8.0,0.030618906021118164
9.0,0.029522988945245743
10.0,0.028495321050286293
11.0,0.027593661099672318
12.0,0.026730159297585487
13.0,0.02587721310555935
14.0,0.025038408115506172
15.0,0.02428659424185753
16.0,0.023584777489304543
18.0,0.022188296541571617
20.0,0.020902302116155624
22.0,0.019609330222010612
24.0,0.018458671867847443
26.0,0.01741635426878929
28.0,0.016428880393505096
30.0,0.015472839586436749
32.0,0.01455443724989891
36.0,0.012901277281343937
40.0,0.011513710021972656
44.0,0.010455911047756672
48.0,0.009429475292563438
52.0,0.008687609806656837
56.0,0.008084182627499104
60.0,0.007750947494059801
64.0,0.007608961779624224
72.0,0.0066653043031692505
80.0,0.005477006547152996
88.0,0.005335292313247919
96.0,0.005610395688563585
104.0,0.005665351636707783
112.0,0.005153707228600979
120.0,0.0050463126972317696
128.0,0.0051903557032346725
144.0,0.004720194730907679
160.0,0.004225622862577438
176.0,0.004759395495057106
192.0,0.005197069142013788
208.0,0.004992616828531027
224.0,0.005263183265924454
240.0,0.004364019725471735
256.0,0.004090048372745514
288.0,0.0037506590597331524
320.0,0.002808847464621067
352.0,0.002173452405259013
384.0,0.0029235591646283865
416.0,0.0023014647886157036
448.0,0.0016810703091323376
480.0,-0.0004114992043469101
512.0,-0.0006071817479096353
576.0,-0.00127475056797266
640.0,-0.001012368593364954
704.0,0.0008039191598072648
768.0,0.0016937422333285213
832.0,0.000289771007373929
896.0,-0.0009572456474415958
960.0,0.0004805991775356233
1024.0,0.0005865431157872081
1152.0,0.00333648594096303
1280.0,0.0015113756526261568
1408.0,0.001474616234190762
1536.0,0.0007128662546165287
1664.0,0.001486947643570602
1792.0,0.001335021574050188
1920.0,0.00245222938247025
2048.0,0.0009922563331201673
2304.0,0.0008590188226662576
2560.0,-0.0011585484025999904
2816.0,0.0005930970655754209
3072.0,0.0028643333353102207
3328.0,0.00019999290816485882
3584.0,-0.001371264224871993
3840.0,-0.0012848596088588238
4096.0,-0.0014491091715171933
4608.0,-0.0006293072947300971
5120.0,-0.0002493704669177532
5632.0,-0.000294597732136026
6144.0,-0.002439238363876939
6656.0,-0.002742510288953781
7168.0,-0.0008791655418463051
7680.0,-0.0001823514758143574
8192.0,-0.0004656244127545506
end
