version,3.0
numOfCh,1
type,point
parent_name,34766_0dot6-1dot0
ch_type,1_1
kcount,1
numberNandB,1
brightnessNandB,1
carpet pos,0
pc,0
Time (ms),CH1 Auto-Correlation
1.0,0.04259815439581871
2.0,0.0402415432035923
3.0,0.038108326494693756
4.0,0.03620794042944908
5.0,0.03448086977005005
6.0,0.03288589417934418
7.0,0.031455811113119125
8.0,0.030128633603453636
9.0,0.028927356004714966
10.0,0.027768775820732117
11.0,0.02677140384912491
12.0,0.025880880653858185
13.0,0.025041334331035614
14.0,0.024223193526268005
15.0,0.0234517864882946
16.0,0.022705750539898872
18.0,0.021560434252023697
20.0,0.02049345150589943
22.0,0.019501209259033203
24.0,0.01843990944325924
26.0,0.017509836703538895
28.0,0.01666012592613697
30.0,0.015793656930327415
32.0,0.015034161508083344
36.0,0.013961602933704853
40.0,0.012731782160699368
44.0,0.011704188771545887
48.0,0.010989699512720108
52.0,0.010310855694115162
56.0,0.009960954077541828
60.0,0.010015228763222694
64.0,0.0097513971850276
72.0,0.009133760817348957
80.0,0.007859555073082447
88.0,0.007117236033082008
96.0,0.006153198890388012
104.0,0.005555896554142237
112.0,0.005175512284040451
120.0,0.00505882827565074
128.0,0.005191134288907051
144.0,0.004047280177474022
160.0,0.003409020137041807
176.0,0.003414263017475605
192.0,0.0033758552744984627
208.0,0.002104406012222171
224.0,0.0010058628395199776
240.0,0.0014460297534242272
256.0,0.0019544060342013836
288.0,0.0026251343078911304
320.0,0.0013827133225277066
352.0,0.001279072486795485
384.0,-7.803674816386774e-05
416.0,0.0005198461003601551
448.0,0.001415394595824182
480.0,-0.0006878547719679773
512.0,-0.001653093146160245
576.0,-0.0010596908396109939
640.0,-0.001019643503241241
704.0,-0.00012357751256786287
768.0,0.0009838625555858016
832.0,-1.1876856660819612e-05
896.0,0.0016187878791242838
960.0,0.0033096452243626118
1024.0,0.0035315335262566805
1152.0,0.0001311291562160477
1280.0,-0.0010948568815365434
1408.0,-0.0006715967901982367
1536.0,-0.0011928429594263434
1664.0,0.0008000980596989393
1792.0,1.1855026059492957e-05
1920.0,-0.001738915452733636
2048.0,-0.0017723310738801956
2304.0,-0.001979254186153412
2560.0,0.0009506784845143557
2816.0,0.0012197337346151471
3072.0,0.002080413745716214
3328.0,0.0014843730023130774
3584.0,0.0008406478445976973
3840.0,0.000639402074739337
4096.0,0.002268802607432008
4608.0,-0.00017929155728779733
5120.0,-0.0008088634931482375
5632.0,-0.00176737061701715
6144.0,-0.0031076716259121895
6656.0,-0.003130223136395216
7168.0,0.00036638876190409064
7680.0,0.002914790064096451
8192.0,-0.0009545664070174098
end
