version,3.0
numOfCh,1
type,point
parent_name,34766_0dot6-1dot0
ch_type,1_1
kcount,1
numberNandB,1
brightnessNandB,1
carpet pos,0
pc,0
Time (ms),CH1 Auto-Correlation
1.0,0.042822204530239105
2.0,0.040480464696884155
3.0,0.038352590054273605
4.0,0.0364919975399971
5.0,0.03477543964982033
6.0,0.03320062905550003
7.0,0.03172669559717178
8.0,0.030321814119815826
9.0,0.029049696400761604
10.0,0.02791755646467209
11.0,0.02695854939520359
12.0,0.02611580118536949
13.0,0.025364559143781662
14.0,0.024640927091240883
15.0,0.023901211097836494
16.0,0.023149816319346428
18.0,0.021707627922296524
20.0,0.02041962742805481
22.0,0.01929723471403122
24.0,0.018256736919283867
26.0,0.017215166240930557
28.0,0.016422901302576065
30.0,0.01570582389831543
32.0,0.014920529909431934
36.0,0.013428548350930214
40.0,0.01206543855369091
44.0,0.011193783953785896
48.0,0.010496255941689014
52.0,0.009902018122375011
56.0,0.009148861281573772
60.0,0.008343715220689774
64.0,0.007652338594198227
72.0,0.0071134185418486595
80.0,0.006612410768866539
88.0,0.005611053202301264
96.0,0.00501120463013649
104.0,0.004404982551932335
112.0,0.004278124775737524
120.0,0.004534866660833359
128.0,0.004241192247718573
144.0,0.004278216511011124
160.0,0.0036353201139718294
176.0,0.002638027770444751
192.0,0.0018517281860113144
208.0,0.0016797067364677787
224.0,0.0009441046859137714
240.0,0.000977658899500966
256.0,0.000790049321949482
288.0,0.0017667982028797269
320.0,0.0026171994395554066
352.0,0.0014845451805740595
384.0,-0.0005446422728709877
416.0,-0.0026408301200717688
448.0,-0.002946218242868781
480.0,-0.001096402294933796
512.0,-0.0019365326734259725
576.0,0.0006286305142566562
640.0,0.00017619547725189477
704.0,-0.0026631993241608143
768.0,-0.003858062671497464
832.0,-0.0035077142529189587
896.0,-0.003153442405164242
960.0,-0.002435923321172595
1024.0,-0.0014613252133131027
1152.0,-0.00011326232925057411
1280.0,-0.0018813409842550755
1408.0,-0.0012032458325847983
1536.0,0.001691973302513361
1664.0,0.0016079071210697293
1792.0,0.0004942411906085908
1920.0,-0.00026730578974820673
2048.0,-0.0008064972353167832
2304.0,5.856810821569525e-05
2560.0,-0.00052155542653054
2816.0,-0.001727943541482091
3072.0,-0.0013690997147932649
3328.0,0.0005707911914214492
3584.0,9.984167263610289e-05
3840.0,0.0025111129507422447
4096.0,0.0009316255454905331
4608.0,-3.321020631119609e-05
5120.0,0.0020648168865591288
5632.0,0.0008302387432195246
6144.0,-0.0013386489590629935
6656.0,-0.0013373097172006965
7168.0,-0.0020934694912284613
7680.0,0.0005518979160115123
8192.0,0.00029903865652158856
end
