version,3.0
numOfCh,1
type,point
parent_name,34766_0dot6-1dot0
ch_type,1_1
kcount,1
numberNandB,1
brightnessNandB,1
carpet pos,0
pc,0
Time (ms),CH1 Auto-Correlation
1.0,0.045011427253484726
2.0,0.04262666404247284
3.0,0.040471401065588
4.0,0.03854046389460564
5.0,0.036717489361763
6.0,0.035139136016368866
7.0,0.03369414061307907
8.0,0.032319266349077225
9.0,0.03109821304678917
10.0,0.029938818886876106
11.0,0.02887347899377346
12.0,0.027859551832079887
13.0,0.026938511058688164
14.0,0.026028044521808624
15.0,0.025133129209280014
16.0,0.024289585649967194
18.0,0.022988760843873024
20.0,0.021815573796629906
22.0,0.020818769931793213
24.0,0.019752120599150658
26.0,0.01887110061943531
28.0,0.01811792328953743
30.0,0.017456281930208206
32.0,0.01681770570576191
36.0,0.01536704134196043
40.0,0.013909601606428623
44.0,0.012779572047293186
48.0,0.01232477743178606
52.0,0.01202155277132988
56.0,0.01121306512504816
60.0,0.010588598437607288
64.0,0.009982923045754433
72.0,0.008473264053463936
80.0,0.007444529328495264
88.0,0.006507476791739464
96.0,0.005268408916890621
104.0,0.0044065192341804504
112.0,0.0036356186028569937
120.0,0.0022814092226326466
128.0,0.0009461833396926522
144.0,0.00026848999550566077
160.0,0.001110241748392582
176.0,0.0021803900599479675
192.0,0.0018681682413443923
208.0,0.003065773518756032
224.0,0.0030682706274092197
240.0,0.0012204613303765655
256.0,-3.711381941684522e-05
288.0,-0.00020878584473393857
320.0,-0.0021714481990784407
352.0,-0.00412000622600317
384.0,-0.005186974536627531
416.0,-0.0038874943275004625
448.0,-0.003426307113841176
480.0,-0.0022481726482510567
512.0,-0.0013895194279029965
576.0,-0.001576902694068849
640.0,-0.0017183298477903008
704.0,-0.0030343234539031982
768.0,-0.0037259457167237997
832.0,-0.0002601176965981722
896.0,0.0006877901614643633
960.0,-0.0006147811654955149
1024.0,-2.0167508409940638e-05
1152.0,0.002315711695700884
1280.0,-0.00019738970149774104
1408.0,0.002500467700883746
1536.0,0.002381126629188657
1664.0,-0.0017112341010943055
1792.0,-0.005168390925973654
1920.0,-0.0029641587752848864
2048.0,0.00042090765782631934
2304.0,0.00039377555367536843
2560.0,0.0007125081028789282
2816.0,-0.001038838759995997
3072.0,-0.0010818653972819448
3328.0,-0.0017750207334756851
3584.0,0.003186734626069665
3840.0,0.0020788724068552256
4096.0,-0.0011213305406272411
4608.0,-0.00013790020602755249
5120.0,0.0005166511400602758
5632.0,0.0010816626017913222
6144.0,-0.002266530180349946
6656.0,-0.00027439460973255336
7168.0,0.0013644704595208168
7680.0,-0.003121504560112953
8192.0,0.0010792812099680305
end
