version,3.0
numOfCh,1
type,point
parent_name,34766_0dot6-1dot0
ch_type,1_1
kcount,1
numberNandB,1
brightnessNandB,1
carpet pos,0
pc,0
Time (ms),CH1 Auto-Correlation
1.0,0.045498672872781754
2.0,0.043118130415678024
3.0,0.040983233600854874
4.0,0.039123594760894775
5.0,0.03741395100951195
6.0,0.035858362913131714
7.0,0.034417714923620224
8.0,0.03299703449010849
9.0,0.031720589846372604
10.0,0.03058963268995285
11.0,0.02952873706817627
12.0,0.028480954468250275
13.0,0.027527110651135445
14.0,0.026616862043738365
15.0,0.025748111307621002
16.0,0.024970924481749535
18.0,0.0236918143928051
20.0,0.022466091439127922
22.0,0.02142367511987686
24.0,0.020558640360832214
26.0,0.019673991948366165
28.0,0.018772637471556664
30.0,0.01800200343132019
32.0,0.01738864928483963
36.0,0.016418833285570145
40.0,0.01558318454772234
44.0,0.014810449443757534
48.0,0.013985240831971169
52.0,0.01310774590820074
56.0,0.012178129516541958
60.0,0.011381427757441998
64.0,0.010800622403621674
72.0,0.00944747868925333
80.0,0.00858418270945549
88.0,0.00802669394761324
96.0,0.0076013412326574326
104.0,0.006702910643070936
112.0,0.004965164232999086
120.0,0.00416022352874279
128.0,0.0037303082644939423
144.0,0.0035775229334831238
160.0,0.0025154990144073963
176.0,0.00285317306406796
192.0,0.002417228650301695
208.0,0.0018275005277246237
224.0,0.0011095195077359676
240.0,0.0015321121318265796
256.0,0.0002541285357438028
288.0,-0.00029066819115541875
320.0,0.00044414360309019685
352.0,-0.0006555476575158536
384.0,-0.0014658281579613686
416.0,-0.0004074857570230961
448.0,-0.0012566259829327464
480.0,4.430636181496084e-05
512.0,0.0017804257804527879
576.0,0.001358423731289804
640.0,0.0009950159583240747
704.0,0.002779040951281786
768.0,0.0033705621026456356
832.0,0.0016704992158338428
896.0,-0.0011136337416246533
960.0,-0.0021530932281166315
1024.0,-0.001242568134330213
1152.0,-0.0023474947083741426
1280.0,-0.0015888827620074153
1408.0,-0.001192843308672309
1536.0,-0.001770043047145009
1664.0,-0.0023817592300474644
1792.0,0.0007521298248320818
1920.0,0.0008587368647567928
2048.0,0.001209486392326653
2304.0,0.00017212422972079366
2560.0,0.0005263926577754319
2816.0,0.00048561766743659973
3072.0,-0.0025000618770718575
3328.0,-0.0011083866702392697
3584.0,-0.001213640091009438
3840.0,-0.0015791748883202672
4096.0,-0.0005561638390645385
4608.0,0.0005096325185149908
5120.0,-0.0009346074075438082
5632.0,0.00022928118414711207
6144.0,-0.0016744097229093313
6656.0,-0.0038130562752485275
7168.0,0.0009775119833648205
7680.0,0.0016736022662371397
8192.0,0.00014925941650290042
end
