version,3.0
numOfCh,1
type,point
parent_name,34766_0dot6-1dot0
ch_type,1_1
kcount,1
numberNandB,1
brightnessNandB,1
carpet pos,0
pc,0
Time (ms),CH1 Auto-Correlation
1.0,0.04184265434741974
2.0,0.039590686559677124
3.0,0.03753264248371124
4.0,0.035722099244594574
5.0,0.03398866951465607
6.0,0.0323953852057457
7.0,0.03092496283352375
8.0,0.029560230672359467
9.0,0.028301198035478592
10.0,0.02712841145694256
11.0,0.026014797389507294
12.0,0.02493327483534813
13.0,0.0239519402384758
14.0,0.023050138726830482
15.0,0.02220524288713932
16.0,0.021423598751425743
18.0,0.0196913443505764
20.0,0.018179867416620255
22.0,0.016825370490550995
24.0,0.01558107603341341
26.0,0.014681645669043064
28.0,0.01393971312791109
30.0,0.013300428166985512
32.0,0.012710778042674065
36.0,0.011403365060687065
40.0,0.010493817739188671
44.0,0.009907349944114685
48.0,0.009383218362927437
52.0,0.008922948502004147
56.0,0.008804501965641975
60.0,0.008484694175422192
64.0,0.008084204979240894
72.0,0.007315265480428934
80.0,0.006905979476869106
88.0,0.006671104114502668
96.0,0.005785191897302866
104.0,0.004298293963074684
112.0,0.0030164201743900776
120.0,0.002185260644182563
128.0,0.0018960891757160425
144.0,0.002801189199090004
160.0,0.002400433411821723
176.0,0.001210373709909618
192.0,0.0007568496512249112
208.0,0.0009194508893415332
224.0,0.0016225315630435944
240.0,0.0028589200228452682
256.0,0.0021454906091094017
288.0,0.001030622166581452
320.0,0.0018804465653374791
352.0,0.0005118651897646487
384.0,0.0007178136729635298
416.0,0.00020919767848681659
448.0,0.0005348008708097041
480.0,0.0002978832053486258
512.0,-0.0004889918491244316
576.0,-0.00047710866783745587
640.0,-0.0005328775150701404
704.0,0.00047171846381388605
768.0,-0.0010938518680632114
832.0,-0.0014330256963148713
896.0,-0.001222366583533585
960.0,-0.0024188978131860495
1024.0,-0.0021999015007168055
1152.0,-0.001698120846413076
1280.0,-0.00012283540854696184
1408.0,0.0016442984342575073
1536.0,0.002150047803297639
1664.0,-0.0007128868601284921
1792.0,0.0015653129667043686
1920.0,-0.00012304569827392697
2048.0,-0.0004670636262744665
2304.0,-0.0014713057316839695
2560.0,-5.297999450704083e-05
2816.0,-0.0008397552883252501
3072.0,-0.0023272072430700064
3328.0,-0.0006859335117042065
3584.0,-9.310864697908983e-05
3840.0,0.0017215231200680137
4096.0,0.0012982954503968358
4608.0,-0.0016053614672273397
5120.0,-0.00026491802418604493
5632.0,-0.0005125915049575269
6144.0,-0.002249295124784112
6656.0,0.0009241101215593517
7168.0,0.0008788484847173095
7680.0,-0.0005874327034689486
8192.0,0.000738081696908921
end
