version,3.0
numOfCh,1
type,point
parent_name,34766_0dot6-1dot0
ch_type,1_1
kcount,1
numberNandB,1
brightnessNandB,1
carpet pos,0
pc,0
Time (ms),CH1 Auto-Correlation
1.0,0.039983365684747696
2.0,0.03767882287502289
3.0,0.03562534227967262
4.0,0.03372504562139511
5.0,0.032008033245801926
6.0,0.03036821261048317
7.0,0.028811702504754066
8.0,0.027359718456864357
9.0,0.026095708832144737
10.0,0.024895045906305313
11.0,0.023862535133957863
12.0,0.022820474579930305
13.0,0.021881435066461563
14.0,0.021052224561572075
15.0,0.02017221786081791
16.0,0.019368724897503853
18.0,0.017958423122763634
20.0,0.016665324568748474
22.0,0.01547742635011673
24.0,0.014386936090886593
26.0,0.013515436090528965
28.0,0.01277595479041338
30.0,0.012066439725458622
32.0,0.01146925613284111
36.0,0.010433812625706196
40.0,0.00955259706825018
44.0,0.008960950188338757
48.0,0.008621886372566223
52.0,0.0081766527146101
56.0,0.0077610984444618225
60.0,0.0074861724860966206
64.0,0.007409476209431887
72.0,0.007024772930890322
80.0,0.0063894265331327915
88.0,0.005525066051632166
96.0,0.004432727582752705
104.0,0.0035309207160025835
112.0,0.0028541286010295153
120.0,0.002637589816004038
128.0,0.002867084927856922
144.0,0.0024389117024838924
160.0,0.0028162579983472824
176.0,0.0028653107583522797
192.0,0.0026732152327895164
208.0,0.0019526061369106174
224.0,0.0015501431189477444
240.0,0.001804113620892167
256.0,0.001715703634545207
288.0,0.0024394120555371046
320.0,0.001343296142295003
352.0,0.0002386616833973676
384.0,0.0015199490590021014
416.0,0.0020468742586672306
448.0,0.0010261230636388063
480.0,0.0021791846957057714
512.0,0.0015607733512297273
576.0,0.0004159744130447507
640.0,0.0003643898235168308
704.0,0.001615625456906855
768.0,0.0007959143840707839
832.0,0.0009544893400743604
896.0,0.0013861460611224174
960.0,0.0018875914392992854
1024.0,3.4826574847102165e-05
1152.0,-0.0009376950329169631
1280.0,0.0014889631420373917
1408.0,0.0007676795939914882
1536.0,0.0007345703197643161
1664.0,-0.0002659173624124378
1792.0,-0.0005565125029534101
1920.0,-0.0020589034538716078
2048.0,-0.0032179257832467556
2304.0,-0.0021287782583385706
2560.0,-0.0007346617057919502
2816.0,-0.0015245749382302165
3072.0,-0.002082499908283353
3328.0,-0.0009162020869553089
3584.0,-0.001618101610802114
3840.0,-0.000338124722475186
4096.0,0.0005466103903017938
4608.0,-0.0011184976901859045
5120.0,0.0012832984793931246
5632.0,0.0019749810453504324
6144.0,-0.0006985145737417042
6656.0,0.0005482617416419089
7168.0,-0.0015590982511639595
7680.0,-0.0017065093852579594
8192.0,-0.00016230068285949528
end
