version,3.0
numOfCh,1
type,point
parent_name,34766_0dot6-1dot0
ch_type,1_1
kcount,1
numberNandB,1
brightnessNandB,1
carpet pos,0
pc,0
Time (ms),CH1 Auto-Correlation
1.0,0.04237612336874008
2.0,0.039979808032512665
3.0,0.0379440113902092
4.0,0.03616577386856079
5.0,0.034437697380781174
6.0,0.032852187752723694
7.0,0.03137129917740822
8.0,0.02996578998863697
9.0,0.02875194326043129
10.0,0.027664298191666603
11.0,0.02660810388624668
12.0,0.025592932477593422
13.0,0.024654807522892952
14.0,0.023781336843967438
15.0,0.02298075333237648
16.0,0.02224421687424183
18.0,0.020935332402586937
20.0,0.019617538899183273
22.0,0.018518393859267235
24.0,0.017512215301394463
26.0,0.016661545261740685
28.0,0.015818556770682335
30.0,0.01519025955349207
32.0,0.014448198489844799
36.0,0.013269195333123207
40.0,0.01203069556504488
44.0,0.010760297067463398
48.0,0.00954514928162098
52.0,0.008488180115818977
56.0,0.007698921021074057
60.0,0.0072391452267766
64.0,0.006654306780546904
72.0,0.005635255482047796
80.0,0.005233614705502987
88.0,0.004865020513534546
96.0,0.003599979914724827
104.0,0.003477406455203891
112.0,0.0036285039968788624
120.0,0.003345431061461568
128.0,0.0030296016484498978
144.0,0.00046528741950169206
160.0,-0.0006181137869134545
176.0,-0.0008228576043620706
192.0,-0.0011956787202507257
208.0,-0.002382690319791436
224.0,-0.003823904087767005
240.0,-0.002746724523603916
256.0,-0.002282837638631463
288.0,-6.532974657602608e-05
320.0,-0.0003773065109271556
352.0,-0.0009498355793766677
384.0,-0.00018465620814822614
416.0,-0.0005816968041472137
448.0,-0.0015012224903330207
480.0,-0.0007740441360510886
512.0,-0.000981574528850615
576.0,-0.0007251144270412624
640.0,-0.0013035588199272752
704.0,-0.0007892854046076536
768.0,-0.0009307205909863114
832.0,-0.00054753920994699
896.0,0.000801516929641366
960.0,0.0007493747398257256
1024.0,0.0021897300612181425
1152.0,0.0006645061075687408
1280.0,-0.00020146806491538882
1408.0,-0.0003700771776493639
1536.0,0.00171440199483186
1664.0,0.0019712147768586874
1792.0,-0.001931822975166142
1920.0,-0.0016251534689217806
2048.0,0.0013484813971444964
2304.0,0.0005588032654486597
2560.0,-0.0014098823303356767
2816.0,-0.0006995336152613163
3072.0,-0.0024060881696641445
3328.0,7.376004214165732e-05
3584.0,0.0007912564906291664
3840.0,0.0018507951172068715
4096.0,-0.0013785207411274314
4608.0,-0.0002416851493762806
5120.0,-0.0005908070015721023
5632.0,9.997642337111756e-05
6144.0,0.00018414836085867137
6656.0,-0.001599553506821394
7168.0,0.0011316684540361166
7680.0,2.155420816052356e-06
8192.0,0.0008309390977956355
end
