version,3.0
numOfCh,1
type,point
parent_name,34766_0dot6-1dot0
ch_type,1_1
kcount,1
numberNandB,1
brightnessNandB,1
carpet pos,0
pc,0
Time (ms),CH1 Auto-Correlation
1.0,0.0437704473733902
2.0,0.04147855192422867
3.0,0.03941866382956505
4.0,0.037534911185503006
5.0,0.03582509234547615
6.0,0.0342380553483963
7.0,0.03277553617954254
8.0,0.03149370849132538
9.0,0.030320899561047554
10.0,0.029256226494908333
11.0,0.02827993780374527
12.0,0.027354417368769646
13.0,0.02652764320373535
14.0,0.025708353146910667
15.0,0.024984758347272873
16.0,0.024254661053419113
18.0,0.02299148216843605
20.0,0.02194402739405632
22.0,0.0210008192807436
24.0,0.02019466646015644
26.0,0.019432829692959785
28.0,0.018696937710046768
30.0,0.01792980171740055
32.0,0.01711866445839405
36.0,0.01596314273774624
40.0,0.015199999324977398
44.0,0.014419082552194595
48.0,0.013636020012199879
52.0,0.013069349341094494
56.0,0.012655623257160187
60.0,0.01222864631563425
64.0,0.011721642687916756
72.0,0.010994278825819492
80.0,0.010104234330356121
88.0,0.009819475933909416
96.0,0.009663823060691357
104.0,0.008971110917627811
112.0,0.008227657526731491
120.0,0.007707425393164158
128.0,0.006935379467904568
144.0,0.005864330567419529
160.0,0.00493758637458086
176.0,0.004810988437384367
192.0,0.003507767105475068
208.0,0.0021532780956476927
224.0,0.0016609507147222757
240.0,0.0011717830784618855
256.0,0.0005982997827231884
288.0,0.00042654547723941505
320.0,0.0005316673195920885
352.0,0.0009717476787045598
384.0,0.0007923295488581061
416.0,-0.00043480980093590915
448.0,-0.0017859465442597866
480.0,-0.0015033285599201918
512.0,-0.0007347200298681855
576.0,-0.002085675485432148
640.0,-0.0016578544164076447
704.0,0.00033557246206328273
768.0,0.0012957357103005052
832.0,0.0011228581424802542
896.0,0.001283021061681211
960.0,0.0010197334922850132
1024.0,0.0025200059171766043
1152.0,-0.00025373356766067445
1280.0,-0.0017348203109577298
1408.0,-0.00043675393681041896
1536.0,-0.0017429476138204336
1664.0,8.22026704554446e-05
1792.0,0.0013096085749566555
1920.0,0.001500283950008452
2048.0,-0.0012127445079386234
2304.0,-0.0036785502452403307
2560.0,-0.0004580758395604789
2816.0,0.0029870278667658567
3072.0,0.0009814653312787414
3328.0,-0.0020304322242736816
3584.0,0.00103443069383502
3840.0,0.007021110970526934
4096.0,8.766788232605904e-05
4608.0,-0.00029610455385409296
5120.0,0.0010282732546329498
5632.0,0.0014846870908513665
6144.0,-0.0032695315312594175
6656.0,-0.00035311831743456423
7168.0,0.0007515056640841067
7680.0,0.0012143985368311405
8192.0,-0.004966416861861944
end
