version,3.0
numOfCh,1
type,point
parent_name,34766_0dot6-1dot0
ch_type,1_1
kcount,1
numberNandB,1
brightnessNandB,1
carpet pos,0
pc,0
Time (ms),CH1 Auto-Correlation
1.0,0.041366465389728546
2.0,0.038964081555604935
3.0,0.036888763308525085
4.0,0.03505222871899605
5.0,0.03339099884033203
6.0,0.031866397708654404
7.0,0.03047819994390011
8.0,0.02916172705590725
9.0,0.027965307235717773
10.0,0.02683788165450096
11.0,0.025784095749258995
12.0,0.024792343378067017
13.0,0.023900063708424568
14.0,0.02308070659637451
15.0,0.022294504567980766
16.0,0.021561911329627037
18.0,0.020230529829859734
20.0,0.0190053042024374
22.0,0.01777617447078228
24.0,0.016842246055603027
26.0,0.016154097393155098
28.0,0.015495561063289642
30.0,0.014846724458038807
32.0,0.01424821000546217
36.0,0.013304797001183033
40.0,0.012381627224385738
44.0,0.011581148020923138
48.0,0.010629825294017792
52.0,0.009630423039197922
56.0,0.008627507835626602
60.0,0.007690384052693844
64.0,0.007036714814603329
72.0,0.005137930158525705
80.0,0.0041483500972390175
88.0,0.003634887281805277
96.0,0.0031473904382437468
104.0,0.002599127357825637
112.0,0.0014637698186561465
120.0,0.00023977539967745543
128.0,-0.000558587082196027
144.0,-0.0015102634206414223
160.0,-0.0018734234618023038
176.0,-0.0021075219847261906
192.0,-0.002291250042617321
208.0,-0.0025043522473424673
224.0,-0.0017666728235781193
240.0,-0.0010393179254606366
256.0,0.00023978686658665538
288.0,0.0016267423052340746
320.0,0.0005893203779123724
352.0,-0.00029198959236964583
384.0,0.0011880589881911874
416.0,0.00018631557759363204
448.0,-0.0016500672791153193
480.0,-0.002573779784142971
512.0,-0.00286964513361454
576.0,-0.0030536733102053404
640.0,-0.00019177471403963864
704.0,0.001557555515319109
768.0,0.001431862125173211
832.0,0.00033384020207449794
896.0,-0.00034667030558921397
960.0,-0.00028737683896906674
1024.0,0.00041031287400983274
1152.0,0.0005734952283091843
1280.0,-0.0005362301017157733
1408.0,-5.215483906795271e-05
1536.0,0.0017364773666486144
1664.0,-0.0012434672098606825
1792.0,-0.0020436346530914307
1920.0,-0.001662016031332314
2048.0,-0.002429394284263253
2304.0,-0.0005986780161038041
2560.0,-0.00021948562061879784
2816.0,0.0011925906874239445
3072.0,-0.0012197487521916628
3328.0,-0.001008531078696251
3584.0,0.0023385740350931883
3840.0,0.000817576888948679
4096.0,-0.002102210186421871
4608.0,0.0003366032906342298
5120.0,0.0007014490547589958
5632.0,-0.0018827600870281458
6144.0,9.165720257442445e-05
6656.0,-0.0004548459255602211
7168.0,-0.001100905705243349
7680.0,0.0011674424167722464
8192.0,0.0008516123634763062
end
