version,3.0
numOfCh,1
type,point
parent_name,34766_0dot6-1dot0
ch_type,1_1
kcount,1
numberNandB,1
brightnessNandB,1
carpet pos,0
pc,0
Time (ms),CH1 Auto-Correlation
1.0,0.046503275632858276
2.0,0.04423092305660248
3.0,0.04224161058664322
4.0,0.04050196334719658
5.0,0.03888104483485222
6.0,0.03738805651664734
7.0,0.03602229431271553
8.0,0.03481429070234299
9.0,0.033694129437208176
10.0,0.0326896607875824
11.0,0.03169417753815651
12.0,0.03080451302230358
13.0,0.029936840757727623
14.0,0.02912299893796444
15.0,0.028306283056735992
16.0,0.02764708548784256
18.0,0.026539381593465805
20.0,0.02552732825279236
22.0,0.024550098925828934
24.0,0.023416396230459213
26.0,0.022342881187796593
28.0,0.021449845284223557
30.0,0.0207621231675148
32.0,0.020145706832408905
36.0,0.01908520981669426
40.0,0.018260791897773743
44.0,0.01733384281396866
48.0,0.01652825064957142
52.0,0.015520943328738213
56.0,0.014531850814819336
60.0,0.013641375117003918
64.0,0.01271615270525217
72.0,0.01100840512663126
80.0,0.009552227333188057
88.0,0.00871377531439066
96.0,0.008255044929683208
104.0,0.007203265558928251
112.0,0.005818974692374468
120.0,0.005012238398194313
128.0,0.00470143835991621
144.0,0.004191647749394178
160.0,0.0036404631100594997
176.0,0.004329819697886705
192.0,0.005086580291390419
208.0,0.005492714233696461
224.0,0.00475731585174799
240.0,0.004031243268400431
256.0,0.003709011245518923
288.0,0.0029008202254772186
320.0,0.002102665137499571
352.0,0.0023449992295354605
384.0,0.001768330461345613
416.0,0.000601506675593555
448.0,0.001850087195634842
480.0,0.0017498187953606248
512.0,-0.00019157426140736789
576.0,-0.0017407595878466964
640.0,-0.0009166036616079509
704.0,0.0031332510989159346
768.0,0.0017236529383808374
832.0,-0.00020186604524496943
896.0,-0.0010708115296438336
960.0,-0.00045032493653707206
1024.0,-0.0017469116719439626
1152.0,-0.0031376772094517946
1280.0,-0.002113125054165721
1408.0,-0.002010461175814271
1536.0,-0.0010266214376315475
1664.0,-0.0007747356430627406
1792.0,0.0005456914659589529
1920.0,0.001761402701959014
2048.0,-0.0011131037026643753
2304.0,-0.0027816197834908962
2560.0,-0.0004310008662287146
2816.0,0.001733229961246252
3072.0,-7.631351763848215e-05
3328.0,-0.0010048224357888103
3584.0,-0.002654951298609376
3840.0,-0.00410840380936861
4096.0,-0.002866133814677596
4608.0,-0.000669250322971493
5120.0,4.697086114902049e-05
5632.0,0.0025119225028902292
6144.0,0.004641620442271233
6656.0,-0.000484694930491969
7168.0,-0.0001447189279133454
7680.0,0.001376893138512969
8192.0,0.0020024848636239767
end
