version,3.0
numOfCh,1
type,point
parent_name,34766_0dot6-1dot0
ch_type,1_1
kcount,1
numberNandB,1
brightnessNandB,1
carpet pos,0
pc,0
Time (ms),CH1 Auto-Correlation
1.0,0.04364420101046562
2.0,0.0412835069000721
3.0,0.03912457078695297
4.0,0.03719595447182655
5.0,0.03541569411754608
6.0,0.03370359539985657
7.0,0.032178785651922226
8.0,0.030713945627212524
9.0,0.029427586123347282
10.0,0.0282506812363863
11.0,0.027126677334308624
12.0,0.026087861508131027
13.0,0.025134233757853508
14.0,0.024394867941737175
15.0,0.023746728897094727
16.0,0.023106535896658897
18.0,0.02193833515048027
20.0,0.02088303305208683
22.0,0.020069295540452003
24.0,0.019351612776517868
26.0,0.018614916130900383
28.0,0.017827076837420464
30.0,0.017220264300704002
32.0,0.01668967865407467
36.0,0.015876734629273415
40.0,0.015017115511000156
44.0,0.013986942358314991
48.0,0.013044720515608788
52.0,0.011982657015323639
56.0,0.011045139282941818
60.0,0.010185444727540016
64.0,0.009540773928165436
72.0,0.008659465238451958
80.0,0.007783826440572739
88.0,0.006903205066919327
96.0,0.006177233066409826
104.0,0.005163874477148056
112.0,0.004694949835538864
120.0,0.005154793616384268
128.0,0.005576032213866711
144.0,0.005859279539436102
160.0,0.005853509064763784
176.0,0.005734176840633154
192.0,0.005220345687121153
208.0,0.005943710450083017
224.0,0.004767772741615772
240.0,0.003982593305408955
256.0,0.002800730988383293
288.0,0.002717386232689023
320.0,0.003035417990759015
352.0,0.0028616173658519983
384.0,0.004782394040375948
416.0,0.005186355207115412
448.0,0.003048732876777649
480.0,0.0010206333827227354
512.0,0.00043884021579287946
576.0,0.0011082339333370328
640.0,-0.0005908429739065468
704.0,-0.0032959808595478535
768.0,-0.002951910952106118
832.0,-0.002619356382638216
896.0,-0.0021349815651774406
960.0,0.0006836188258603215
1024.0,0.001088906661607325
1152.0,-0.00289328396320343
1280.0,-0.003922003787010908
1408.0,-0.0024157667066901922
1536.0,-0.0014947842573747039
1664.0,-0.003435094142332673
1792.0,-0.0020246526692062616
1920.0,-0.0007560564554296434
2048.0,-0.0007111470913514495
2304.0,-0.000621772138401866
2560.0,0.002796844346448779
2816.0,-9.769629104994237e-05
3072.0,-0.0010469760745763779
3328.0,-0.004786284174770117
3584.0,-0.001169254188425839
3840.0,-0.00012803493882529438
4096.0,0.0027089500799775124
4608.0,0.0028095683082938194
5120.0,0.0018199224723502994
5632.0,-0.0007188399322330952
6144.0,-0.0014134772354736924
6656.0,0.0010738527635112405
7168.0,-0.00024127990764100105
7680.0,-0.0028612895403057337
8192.0,-0.004422666504979134
end
