version,3.0
numOfCh,1
type,point
parent_name,34766_0dot6-1dot0
ch_type,1_1
kcount,1
numberNandB,1
brightnessNandB,1
carpet pos,0
pc,0
Time (ms),CH1 Auto-Correlation
1.0,0.040084224194288254
2.0,0.0374959371984005
3.0,0.03529362007975578
4.0,0.03327368199825287
5.0,0.03147193044424057
6.0,0.029818594455718994
7.0,0.02835698239505291
8.0,0.026941074058413506
9.0,0.025592554360628128
10.0,0.024411121383309364
11.0,0.023303627967834473
12.0,0.022265827283263206
13.0,0.021327709779143333
14.0,0.02042357064783573
15.0,0.019588731229305267
16.0,0.018789393827319145
18.0,0.017350491136312485
20.0,0.015848375856876373
22.0,0.014612971805036068
24.0,0.013518813997507095
26.0,0.012478130869567394
28.0,0.01176427397876978
30.0,0.011122302152216434
32.0,0.010400841943919659
36.0,0.00946089532226324
40.0,0.008678128011524677
44.0,0.007993181236088276
48.0,0.007082368712872267
52.0,0.006111361086368561
56.0,0.005370707716792822
60.0,0.0049614571034908295
64.0,0.0046918499283492565
72.0,0.004347615875303745
80.0,0.00417944323271513
88.0,0.003943717572838068
96.0,0.003371046856045723
104.0,0.0033942083828151226
112.0,0.0032243034802377224
120.0,0.0033332237508147955
128.0,0.0033365136478096247
144.0,0.0016391228418797255
160.0,-0.00010029422264778987
176.0,-0.0003584709484130144
192.0,-0.00017619822756387293
208.0,0.00010817065049195662
224.0,-0.00045569479698315263
240.0,-0.0009790878975763917
256.0,-0.0017590679926797748
288.0,-0.0006327586597763002
320.0,-0.0008082962594926357
352.0,-0.0017687606159597635
384.0,-0.0014689682284370065
416.0,-0.00014289922546595335
448.0,-0.000134573521791026
480.0,-0.00030985428020358086
512.0,0.0005730953998863697
576.0,0.0005764974048361182
640.0,0.0003559002943802625
704.0,0.0019951271824538708
768.0,0.0022412638645619154
832.0,0.0016347592463716865
896.0,0.001065374817699194
960.0,0.00012331291509326547
1024.0,-0.000628942740149796
1152.0,-0.0018917314009740949
1280.0,-0.0014940807595849037
1408.0,0.0005046419682912529
1536.0,0.002342000836506486
1664.0,-0.0002272809506393969
1792.0,-0.0002103104197885841
1920.0,-0.0010385416680946946
2048.0,-0.0009168409160338342
2304.0,0.0009847432374954224
2560.0,-0.0013277496909722686
2816.0,-0.0005688325618393719
3072.0,0.0005199476145207882
3328.0,-0.0013011923292651772
3584.0,0.0015236872714012861
3840.0,-0.0007477825856767595
4096.0,6.714047049172223e-05
4608.0,-0.0004133820766583085
5120.0,-0.0006808527396060526
5632.0,-0.0011162024457007647
6144.0,0.00019044955843128264
6656.0,8.23990922071971e-05
7168.0,-0.0001633272331673652
7680.0,0.0006685780826956034
8192.0,-0.00039045873563736677
end
