version,3.0
numOfCh,1
type,point
parent_name,34766_0dot6-1dot0
ch_type,1_1
kcount,1
numberNandB,1
brightnessNandB,1
carpet pos,0
pc,0
Time (ms),CH1 Auto-Correlation
1.0,0.042071498930454254
2.0,0.03964490443468094
3.0,0.03747282922267914
4.0,0.03555925562977791
5.0,0.03384070843458176
6.0,0.032176725566387177
7.0,0.03059876337647438
8.0,0.029157087206840515
9.0,0.02780766598880291
10.0,0.026671087369322777
11.0,0.02557566948235035
12.0,0.02459181845188141
13.0,0.023662207648158073
14.0,0.022902168333530426
15.0,0.02226588875055313
16.0,0.021650806069374084
18.0,0.020500291138887405
20.0,0.01937165856361389
22.0,0.0183256883174181
24.0,0.01750772073864937
26.0,0.016854049637913704
28.0,0.016232287511229515
30.0,0.015653401613235474
32.0,0.015164216980338097
36.0,0.014148421585559845
40.0,0.013483002781867981
44.0,0.01287752017378807
48.0,0.01215039286762476
52.0,0.01150080282241106
56.0,0.011010240763425827
60.0,0.010732914321124554
64.0,0.010327924974262714
72.0,0.009182974696159363
80.0,0.009026520885527134
88.0,0.008713513612747192
96.0,0.00797782652080059
104.0,0.00785930547863245
112.0,0.007872415706515312
120.0,0.007531659211963415
128.0,0.00715986592695117
144.0,0.005715975537896156
160.0,0.0052428958006203175
176.0,0.005351290572434664
192.0,0.005084081552922726
208.0,0.005453247576951981
224.0,0.00458951760083437
240.0,0.004305644892156124
256.0,0.0044755032286047935
288.0,0.003801210317760706
320.0,0.003762092674151063
352.0,0.0025802673771977425
384.0,0.0018643576186150312
416.0,0.0016033806605264544
448.0,0.0010634801583364606
480.0,-0.0004678218101616949
512.0,-0.0009429099736735225
576.0,-0.0012089440133422613
640.0,0.000844998809043318
704.0,0.0007391146500594914
768.0,0.0006033405079506338
832.0,0.0010983376996591687
896.0,0.0013593161711469293
960.0,0.0031431394163519144
1024.0,0.0028364129830151796
1152.0,0.003066772362217307
1280.0,0.0006354700308293104
1408.0,-0.00017002753156702965
1536.0,0.0005297167226672173
1664.0,-0.0006079069571569562
1792.0,0.0008373401942662895
1920.0,0.0013981072697788477
2048.0,0.0005249045207165182
2304.0,0.0011158237466588616
2560.0,0.0018275694455951452
2816.0,0.002103721024468541
3072.0,0.0006908841896802187
3328.0,-0.00011478688975330442
3584.0,-0.0002397110074525699
3840.0,-0.0013154546031728387
4096.0,-0.002480982569977641
4608.0,-0.0028935279697179794
5120.0,-0.002462156815454364
5632.0,-0.0021958753932267427
6144.0,-0.0032992088235914707
6656.0,-0.0016849091043695807
7168.0,-0.006204991601407528
7680.0,0.0015177464811131358
8192.0,-0.003647669218480587
end
