version,3.0
numOfCh,1
type,point
parent_name,34766_0dot6-1dot0
ch_type,1_1
kcount,1
numberNandB,1
brightnessNandB,1
carpet pos,0
pc,0
Time (ms),CH1 Auto-Correlation
1.0,0.04738081619143486
2.0,0.0449497252702713
3.0,0.04290490597486496
4.0,0.041018348187208176
5.0,0.039309851825237274
6.0,0.03772078827023506
7.0,0.036156706511974335
8.0,0.03480229526758194
9.0,0.03356412053108215
10.0,0.03250448405742645
11.0,0.0314602255821228
12.0,0.03051840141415596
13.0,0.029711445793509483
14.0,0.02892467938363552
15.0,0.02815975993871689
16.0,0.027432095259428024
18.0,0.026028398424386978
20.0,0.02462179586291313
22.0,0.023549355566501617
24.0,0.022606922313570976
26.0,0.021895581856369972
28.0,0.021250514313578606
30.0,0.02070222981274128
32.0,0.020096370950341225
36.0,0.018743963912129402
40.0,0.017580712214112282
44.0,0.016863716766238213
48.0,0.01627909205853939
52.0,0.015645258128643036
56.0,0.01503754686564207
60.0,0.014478666707873344
64.0,0.014122064225375652
72.0,0.012949926778674126
80.0,0.011931818909943104
88.0,0.011770333163440228
96.0,0.011515261605381966
104.0,0.01127611193805933
112.0,0.011111587285995483
120.0,0.010784300975501537
128.0,0.010757998563349247
144.0,0.009669489227235317
160.0,0.008727705106139183
176.0,0.008551115170121193
192.0,0.008275866508483887
208.0,0.007609274238348007
224.0,0.007449716329574585
240.0,0.0067739337682724
256.0,0.006632042583078146
288.0,0.004643318708986044
320.0,0.004982118494808674
352.0,0.0055389697663486
384.0,0.004378811921924353
416.0,0.004153814632445574
448.0,0.003915213048458099
480.0,0.0034590084105730057
512.0,0.0029948996379971504
576.0,0.001526347827166319
640.0,-6.7970231611980125e-06
704.0,-0.002036876743659377
768.0,-0.003569019725546241
832.0,-0.0039034965448081493
896.0,-0.0031584270764142275
960.0,-0.00475649256259203
1024.0,-0.00431465357542038
1152.0,-0.005857354030013084
1280.0,-0.0063503822311758995
1408.0,-0.005122008267790079
1536.0,-0.002982317702844739
1664.0,0.00033435795921832323
1792.0,-0.0016773061361163855
1920.0,-0.0006056788261048496
2048.0,0.0019185026176273823
2304.0,0.002337225480005145
2560.0,0.004344521090388298
2816.0,0.00011750884004868567
3072.0,-0.00012327564763836563
3328.0,-0.002997418399900198
3584.0,-0.0006022279849275947
3840.0,-0.0021107501816004515
4096.0,0.0040613324381411076
4608.0,0.00012455876276362687
5120.0,0.0017494471976533532
5632.0,-0.0001649265323067084
6144.0,-0.0016807210631668568
6656.0,-0.0010193036869168282
7168.0,0.004069511312991381
7680.0,0.0022207635920494795
8192.0,-0.0017186017939820886
end
