version,3.0
numOfCh,1
type,point
parent_name,34766_0dot6-1dot0
ch_type,1_1
kcount,1
numberNandB,1
brightnessNandB,1
carpet pos,0
pc,0
Time (ms),CH1 Auto-Correlation
1.0,0.046500999480485916
2.0,0.044244054704904556
3.0,0.04224102944135666
4.0,0.04043038561940193
5.0,0.03880523145198822
6.0,0.0373094417154789
7.0,0.035858217626810074
8.0,0.034525975584983826
9.0,0.033296048641204834
10.0,0.03217940777540207
11.0,0.031047571450471878
12.0,0.030036062002182007
13.0,0.029056379571557045
14.0,0.028149036690592766
15.0,0.02719162404537201
16.0,0.026231639087200165
18.0,0.024483773857355118
20.0,0.022854914888739586
22.0,0.021453412249684334
24.0,0.020322579890489578
26.0,0.019251326099038124
28.0,0.01837935484945774
30.0,0.017628833651542664
32.0,0.016929762437939644
36.0,0.015832914039492607
40.0,0.014682868495583534
44.0,0.013629692606627941
48.0,0.012597358785569668
52.0,0.011808064766228199
56.0,0.010946045629680157
60.0,0.009870011359453201
64.0,0.009018654935061932
72.0,0.008039089851081371
80.0,0.007763982284814119
88.0,0.007527552079409361
96.0,0.00726534565910697
104.0,0.007546798791736364
112.0,0.007781096734106541
120.0,0.0076191481202840805
128.0,0.007281912956386805
144.0,0.005627695936709642
160.0,0.004439444746822119
176.0,0.0038392781279981136
192.0,0.003806581487879157
208.0,0.00402898620814085
224.0,0.003745350055396557
240.0,0.0029031015001237392
256.0,0.0024562126491218805
288.0,0.003062705509364605
320.0,0.004313826095312834
352.0,0.004588315263390541
384.0,0.002979576587677002
416.0,0.0025367268826812506
448.0,0.002937858924269676
480.0,0.002535245381295681
512.0,0.0025410593952983618
576.0,0.003326411359012127
640.0,0.0003360089031048119
704.0,-0.0008270795224234462
768.0,-0.0005308946711011231
832.0,-0.0014911943580955267
896.0,-0.0005733008729293942
960.0,-0.000554331112653017
1024.0,-0.00068446941440925
1152.0,0.0003177486069034785
1280.0,-0.001786059350706637
1408.0,-0.0035391109995543957
1536.0,-0.0013523995876312256
1664.0,-0.0003308242012280971
1792.0,0.0010488561820238829
1920.0,0.0016799174482002854
2048.0,0.0023465007543563843
2304.0,0.0005312939174473286
2560.0,0.00041084372787736356
2816.0,0.0014483140548691154
3072.0,0.0011931448243558407
3328.0,-0.0011201332090422511
3584.0,-0.001331664272584021
3840.0,0.0001524953404441476
4096.0,-0.0017866456182673573
4608.0,2.124346610798966e-05
5120.0,0.0017998585244640708
5632.0,0.000562842411454767
6144.0,-0.0011351370485499501
6656.0,-0.00028977953479625285
7168.0,-0.0009367678430862725
7680.0,-0.00010598250082693994
8192.0,-0.0014486246509477496
end
