version,3.0
numOfCh,1
type,point
parent_name,34766_0dot6-1dot0
ch_type,1_1
kcount,1
numberNandB,1
brightnessNandB,1
carpet pos,0
pc,0
Time (ms),CH1 Auto-Correlation
1.0,0.04429667070508003
2.0,0.04187396913766861
3.0,0.03966255113482475
4.0,0.03759818151593208
5.0,0.035777777433395386
6.0,0.03411775454878807
7.0,0.03260287642478943
8.0,0.031193122267723083
9.0,0.029832299798727036
10.0,0.028574014082551003
11.0,0.027381550520658493
12.0,0.026313597336411476
13.0,0.025332991033792496
14.0,0.024406928569078445
15.0,0.023590831086039543
16.0,0.022918887436389923
18.0,0.021687617525458336
20.0,0.020724626258015633
22.0,0.019992437213659286
24.0,0.019228791818022728
26.0,0.018503662198781967
28.0,0.017825573682785034
30.0,0.017009461298584938
32.0,0.0163494311273098
36.0,0.01505895797163248
40.0,0.014189443551003933
44.0,0.013586199842393398
48.0,0.01302237156778574
52.0,0.012516340240836143
56.0,0.012321652844548225
60.0,0.012021934613585472
64.0,0.011670920066535473
72.0,0.011276441626250744
80.0,0.010498585179448128
88.0,0.010074373334646225
96.0,0.009342806413769722
104.0,0.008867711760103703
112.0,0.00852865818887949
120.0,0.008166572079062462
128.0,0.007913028821349144
144.0,0.00739117618650198
160.0,0.0060592470690608025
176.0,0.003972935024648905
192.0,0.002654081443324685
208.0,0.0010830546962097287
224.0,0.0006825709133408964
240.0,0.0007632844499312341
256.0,0.0011362091172486544
288.0,0.000597784819547087
320.0,-0.001582450233399868
352.0,-0.0023241424933075905
384.0,-0.0027153589762747288
416.0,-0.0012578617315739393
448.0,-5.0356458814349025e-05
480.0,-0.001103907241486013
512.0,5.009670530853327e-06
576.0,0.000646586820948869
640.0,0.0019623134285211563
704.0,0.0023595611564815044
768.0,0.0016795559786260128
832.0,0.001467534457333386
896.0,0.0008593731326982379
960.0,-0.0002616296405903995
1024.0,-0.002660590223968029
1152.0,-0.001523828599601984
1280.0,0.0006043203175067902
1408.0,-0.0009602290228940547
1536.0,-0.0017035265918821096
1664.0,-0.0017064757412299514
1792.0,-0.0030406888108700514
1920.0,-0.0017299444880336523
2048.0,0.0012159098405390978
2304.0,0.0018301806412637234
2560.0,5.5599899496883154e-05
2816.0,1.71093488461338e-05
3072.0,6.790297629777342e-05
3328.0,-0.0008616299601271749
3584.0,-0.0030534903053194284
3840.0,-0.0010631164768710732
4096.0,-0.001762138563208282
4608.0,0.0005229230155237019
5120.0,0.0017912851180881262
5632.0,-0.00043725865543819964
6144.0,-0.001206441200338304
6656.0,-0.002165905898436904
7168.0,0.0014823105884715915
7680.0,0.00015323722618632019
8192.0,-0.0015776035143062472
end
