version,3.0
numOfCh,1
type,point
parent_name,34766_0dot6-1dot0
ch_type,1_1
kcount,1
numberNandB,1
brightnessNandB,1
carpet pos,0
pc,0
Time (ms),CH1 Auto-Correlation
1.0,0.047563519328832626
2.0,0.04526664316654205
3.0,0.0431831032037735
4.0,0.04124533385038376
5.0,0.039511244744062424
6.0,0.03792145103216171
7.0,0.0364619679749012
8.0,0.035120267421007156
9.0,0.033868689090013504
10.0,0.03260546550154686
11.0,0.03141460567712784
12.0,0.0302977804094553
13.0,0.029280683025717735
14.0,0.02830328233540058
15.0,0.027396759018301964
16.0,0.026526978239417076
18.0,0.024874961003661156
20.0,0.023421645164489746
22.0,0.02208145707845688
24.0,0.02092527411878109
26.0,0.019854050129652023
28.0,0.018835583701729774
30.0,0.017803221940994263
32.0,0.017022786661982536
36.0,0.01598416455090046
40.0,0.015064472332596779
44.0,0.01422718446701765
48.0,0.013797994703054428
52.0,0.013391352258622646
56.0,0.013079129159450531
60.0,0.012842919677495956
64.0,0.012860085815191269
72.0,0.011801021173596382
80.0,0.010664662346243858
88.0,0.009539538063108921
96.0,0.008831469342112541
104.0,0.007804920896887779
112.0,0.006842694710940123
120.0,0.005793640855699778
128.0,0.004325507674366236
144.0,0.0029843461234122515
160.0,0.0015078684082254767
176.0,0.0015240428037941456
192.0,0.0023887953720986843
208.0,0.001817306037992239
224.0,0.0008232103427872062
240.0,0.0006528826779685915
256.0,0.0008237283327616751
288.0,0.0010046958923339844
320.0,0.0024166028015315533
352.0,0.002518775872886181
384.0,0.0013849843526259065
416.0,0.001805154257453978
448.0,0.0015704517718404531
480.0,0.0010818723822012544
512.0,0.0010462852660566568
576.0,0.00040619299397803843
640.0,-5.8215133321937174e-05
704.0,-0.001744614914059639
768.0,-0.002258102409541607
832.0,0.00037607181002385914
896.0,-0.000595281133428216
960.0,-0.000953502778429538
1024.0,0.00010182391997659579
1152.0,0.002341367769986391
1280.0,-0.0020644532050937414
1408.0,0.0009014693787321448
1536.0,0.0009893217356875539
1664.0,0.0016325776232406497
1792.0,0.003345837816596031
1920.0,-0.0004207337333355099
2048.0,-3.5475142794894055e-05
2304.0,0.0014945942675694823
2560.0,-0.002999204909428954
2816.0,-0.0012169223045930266
3072.0,-0.0003551863774191588
3328.0,-0.0031865923665463924
3584.0,-0.0034921253100037575
3840.0,-0.002949825022369623
4096.0,0.0017692401306703687
4608.0,-0.000446356920292601
5120.0,-0.0019957595504820347
5632.0,-0.0018533600959926844
6144.0,-1.8568116502137855e-05
6656.0,-0.00021706415282096714
7168.0,-0.0018308492144569755
7680.0,-0.0019522231305018067
8192.0,0.0009617553441785276
end
