version,3.0
numOfCh,1
type,point
parent_name,34766_0dot6-1dot0
ch_type,1_1
kcount,1
numberNandB,1
brightnessNandB,1
carpet pos,0
pc,0
Time (ms),CH1 Auto-Correlation
1.0,0.04713999852538109
2.0,0.04452506825327873
3.0,0.04223830997943878
4.0,0.0402221605181694
5.0,0.038353241980075836
6.0,0.03665792942047119
7.0,0.03517431765794754
8.0,0.0339171402156353
9.0,0.03265305981040001
10.0,0.031456075608730316
11.0,0.030306925997138023
12.0,0.02919609844684601
13.0,0.02816273272037506
14.0,0.027232224121689796
15.0,0.0263188686221838
16.0,0.02545083872973919
18.0,0.02383464388549328
20.0,0.022359495982527733
22.0,0.020912524312734604
24.0,0.01961646042764187
26.0,0.018537890166044235
28.0,0.01742834784090519
30.0,0.01634867489337921
32.0,0.015310903079807758
36.0,0.013378416188061237
40.0,0.011495228856801987
44.0,0.009645217098295689
48.0,0.008222605101764202
52.0,0.0070763034746050835
56.0,0.005970105994492769
60.0,0.005240797530859709
64.0,0.004735772032290697
72.0,0.0034830933436751366
80.0,0.0027970848605036736
88.0,0.0024372923653572798
96.0,0.0015591189730912447
104.0,0.0006829471094533801
112.0,0.0005723687936551869
120.0,0.0009276349446736276
128.0,0.0009270478622056544
144.0,0.0015388717874884605
160.0,0.002243580063804984
176.0,0.002507344586774707
192.0,0.0021620248444378376
208.0,0.00216869218274951
224.0,0.000728071085177362
240.0,0.0004078577330801636
256.0,0.0004696471442002803
288.0,2.3952923584147356e-05
320.0,0.0007370116072706878
352.0,0.0015892831142991781
384.0,0.0015305004781112075
416.0,0.00021510508668143302
448.0,-0.00023839977802708745
480.0,0.0006883077439852059
512.0,0.0013684120494872332
576.0,-0.0004352918185759336
640.0,0.002028925344347954
704.0,0.003212232608348131
768.0,0.0022638863883912563
832.0,0.0008762602228671312
896.0,0.00016413164848927408
960.0,0.0016965036047622561
1024.0,0.001026190584525466
1152.0,0.0006034095422364771
1280.0,1.8905244360212237e-05
1408.0,-0.0009879290591925383
1536.0,-0.0004192592459730804
1664.0,0.0007993936305865645
1792.0,-0.0007263302686624229
1920.0,0.001140375854447484
2048.0,-0.0007264502928592265
2304.0,-0.0020950811449438334
2560.0,-0.0016329437494277954
2816.0,-0.00097848370205611
3072.0,-0.0033135826233774424
3328.0,-0.0027902768924832344
3584.0,-0.002272950252518058
3840.0,-0.00021212646970525384
4096.0,-0.0019217022927477956
4608.0,-0.002148526720702648
5120.0,-0.0010790885426104069
5632.0,0.0006050655501894653
6144.0,0.002704550512135029
6656.0,0.0009583849459886551
7168.0,0.0023018596693873405
7680.0,0.0017895314376801252
8192.0,0.0013979505747556686
end
