version,3.0
numOfCh,1
type,point
parent_name,34766_0dot6-1dot0
ch_type,1_1
kcount,1
numberNandB,1
brightnessNandB,1
carpet pos,0
pc,0
Time (ms),CH1 Auto-Correlation
1.0,0.047260161489248276
2.0,0.04497972130775452
3.0,0.04299807921051979
4.0,0.0412462055683136
5.0,0.03967534378170967
6.0,0.03823041543364525
7.0,0.036916617304086685
8.0,0.035615306347608566
9.0,0.03443121165037155
10.0,0.03326953947544098
11.0,0.03221917897462845
12.0,0.03132117539644241
13.0,0.030487671494483948
14.0,0.02968280017375946
15.0,0.02896496281027794
16.0,0.028286289423704147
18.0,0.027087965980172157
20.0,0.025986425578594208
22.0,0.02491375058889389
24.0,0.02397916279733181
26.0,0.02311633713543415
28.0,0.022212496027350426
30.0,0.02144325152039528
32.0,0.02071143127977848
36.0,0.019293637946248055
40.0,0.018083952367305756
44.0,0.016860732808709145
48.0,0.01570989191532135
52.0,0.014847689308226109
56.0,0.0142690883949399
60.0,0.013912394642829895
64.0,0.013456124812364578
72.0,0.012770483270287514
80.0,0.012384996749460697
88.0,0.011766992509365082
96.0,0.011455953121185303
104.0,0.01097078900784254
112.0,0.010480094701051712
120.0,0.010175470262765884
128.0,0.009848887100815773
144.0,0.009227359667420387
160.0,0.00829504057765007
176.0,0.007101105060428381
192.0,0.006015891674906015
208.0,0.005507990717887878
224.0,0.0055031972005963326
240.0,0.004678272642195225
256.0,0.004777413792908192
288.0,0.005364644806832075
320.0,0.0059283096343278885
352.0,0.006931267213076353
384.0,0.006373226176947355
416.0,0.0054434966295957565
448.0,0.004903406836092472
480.0,0.0039891889318823814
512.0,0.0028158181812614202
576.0,0.0019467284437268972
640.0,0.0018474142998456955
704.0,0.001987277064472437
768.0,0.0013143931282684207
832.0,0.0004637228848878294
896.0,-0.0008135329699143767
960.0,0.0006307224975898862
1024.0,0.0020502270199358463
1152.0,0.00033163605257868767
1280.0,-0.0004160015669185668
1408.0,0.0007396673900075257
1536.0,-0.0003038002469111234
1664.0,-0.0020199124701321125
1792.0,0.0014323911163955927
1920.0,0.004015851300209761
2048.0,0.0006155059672892094
2304.0,-0.0010922460351139307
2560.0,-0.001536099473014474
2816.0,-0.0029712452087551355
3072.0,-0.002801247639581561
3328.0,-0.001427726703695953
3584.0,0.000560895015951246
3840.0,0.001570917316712439
4096.0,-0.0004967629793100059
4608.0,-0.0004098541976418346
5120.0,-0.0034857611171901226
5632.0,0.0005890823085792363
6144.0,-0.002198021160438657
6656.0,-0.004587389994412661
7168.0,-0.002669867128133774
7680.0,0.00016716068785171956
8192.0,-0.0035038497298955917
end
