version,3.0
numOfCh,1
type,point
parent_name,34766_0dot6-1dot0
ch_type,1_1
kcount,1
numberNandB,1
brightnessNandB,1
carpet pos,0
pc,0
Time (ms),CH1 Auto-Correlation
1.0,0.046991556882858276
2.0,0.044576339423656464
3.0,0.04245149716734886
4.0,0.040482427924871445
5.0,0.03867330402135849
6.0,0.03703242912888527
7.0,0.03550788015127182
8.0,0.03410832956433296
9.0,0.032935358583927155
10.0,0.03177182376384735
11.0,0.030630221590399742
12.0,0.029581641778349876
13.0,0.028606900945305824
14.0,0.027704497799277306
15.0,0.02691115066409111
16.0,0.026133915409445763
18.0,0.02464643120765686
20.0,0.023421810939908028
22.0,0.02226594276726246
24.0,0.02126923017203808
26.0,0.020497871562838554
28.0,0.019807083532214165
30.0,0.019322620704770088
32.0,0.018959062173962593
36.0,0.018003052100539207
40.0,0.0169566310942173
44.0,0.01626722328364849
48.0,0.015815166756510735
52.0,0.015124624595046043
56.0,0.014410071074962616
60.0,0.013651666231453419
64.0,0.012828212231397629
72.0,0.01193699985742569
80.0,0.010811456479132175
88.0,0.010004508309066296
96.0,0.009506533853709698
104.0,0.008931734599173069
112.0,0.009013527072966099
120.0,0.009262938983738422
128.0,0.008855767548084259
144.0,0.006954282056540251
160.0,0.005775487050414085
176.0,0.005079022608697414
192.0,0.003340934170410037
208.0,0.002380532678216696
224.0,0.0018145402427762747
240.0,0.0004609835450537503
256.0,7.65484364819713e-05
288.0,0.0005637945141643286
320.0,0.0008569872006773949
352.0,0.002275598468258977
384.0,0.002918517217040062
416.0,0.003596751717850566
448.0,0.001932085957378149
480.0,0.0013454058207571507
512.0,0.0005563435261137784
576.0,-0.0011752574937418103
640.0,-0.002459455281496048
704.0,-0.0049848961643874645
768.0,-0.0032579200342297554
832.0,-0.001495403703302145
896.0,-0.0030139198061078787
960.0,-0.0017701397882774472
1024.0,-0.000807365751825273
1152.0,-0.0005668807425536215
1280.0,-0.0009253796306438744
1408.0,-0.0006799587281420827
1536.0,0.0003428742929827422
1664.0,-0.0011990269413217902
1792.0,-0.00284608849324286
1920.0,-0.0033729728311300278
2048.0,-0.0010069297859445214
2304.0,0.0009416464599780738
2560.0,0.0027286671102046967
2816.0,0.0019528683042153716
3072.0,0.00034581622458063066
3328.0,0.00023524038260802627
3584.0,0.00319311348721385
3840.0,0.0007550884620286524
4096.0,-0.0027166116051375866
4608.0,-0.00325819943100214
5120.0,-0.00040367714245803654
5632.0,-0.0024791033938527107
6144.0,-0.0021164848003536463
6656.0,0.0012558518210425973
7168.0,0.002525818068534136
7680.0,-0.002622039755806327
8192.0,-0.003541236277669668
end
