version,3.0
numOfCh,1
type,point
parent_name,34766_0dot6-1dot0
ch_type,1_1
kcount,1
numberNandB,1
brightnessNandB,1
carpet pos,0
pc,0
Time (ms),CH1 Auto-Correlation
1.0,0.04687783867120743
2.0,0.04434025660157204
3.0,0.04207221418619156
4.0,0.03999607637524605
5.0,0.03815991431474686
6.0,0.03641199693083763
7.0,0.03486543521285057
8.0,0.03335293009877205
9.0,0.031978901475667953
10.0,0.030692322179675102
11.0,0.029579780995845795
12.0,0.028547629714012146
13.0,0.027486301958560944
14.0,0.026529526337981224
15.0,0.025656845420598984
16.0,0.024767883121967316
18.0,0.023200739175081253
20.0,0.021778922528028488
22.0,0.020474692806601524
24.0,0.01938578672707081
26.0,0.018399085849523544
28.0,0.01758282631635666
30.0,0.01689114235341549
32.0,0.01620030589401722
36.0,0.014736134558916092
40.0,0.01333813276141882
44.0,0.012160125188529491
48.0,0.010995808057487011
52.0,0.010392418131232262
56.0,0.010302100330591202
60.0,0.010374091565608978
64.0,0.010686167515814304
72.0,0.010644126683473587
80.0,0.00990357156842947
88.0,0.009462172165513039
96.0,0.008996568620204926
104.0,0.00822078064084053
112.0,0.007358189206570387
120.0,0.006869038101285696
128.0,0.006500287912786007
144.0,0.005008112173527479
160.0,0.004634594079107046
176.0,0.0034927097149193287
192.0,0.0024027081672102213
208.0,0.0020489180460572243
224.0,0.002707244362682104
240.0,0.002680514706298709
256.0,0.0018593197455629706
288.0,0.0015656037721782923
320.0,0.0014034060295671225
352.0,0.0007984861731529236
384.0,0.001507565495558083
416.0,0.002482793526723981
448.0,0.0008558615809306502
480.0,-0.001159614883363247
512.0,0.0001595656794961542
576.0,0.0012833374785259366
640.0,0.0017069310415536165
704.0,0.0011916959192603827
768.0,0.0016208552988246083
832.0,0.00022922208881936967
896.0,0.0001741760497679934
960.0,0.0007827606168575585
1024.0,0.002136095194146037
1152.0,-0.0003852078225463629
1280.0,-0.0005691031110472977
1408.0,-0.0002506762102711946
1536.0,-0.0022157346829771996
1664.0,0.0006004763417877257
1792.0,-0.0014006462879478931
1920.0,-0.002656996948644519
2048.0,-0.0010136471828445792
2304.0,-0.004268406890332699
2560.0,-0.0014176320983096957
2816.0,0.0008800950599834323
3072.0,0.001417816849425435
3328.0,-0.0005242799525149167
3584.0,-0.004385516047477722
3840.0,-0.0021605417132377625
4096.0,0.0014283094787970185
4608.0,-0.0013299518031999469
5120.0,-0.0010716150281950831
5632.0,-7.048402039799839e-05
6144.0,0.0028703000862151384
6656.0,-0.0008251215913332999
7168.0,0.0006816486129537225
7680.0,-0.0005956256645731628
8192.0,0.0015562574844807386
end
