version,3.0
numOfCh,1
type,point
parent_name,34766_0dot6-1dot0
ch_type,1_1
kcount,1
numberNandB,1
brightnessNandB,1
carpet pos,0
pc,0
Time (ms),CH1 Auto-Correlation
1.0,0.04438783973455429
2.0,0.04196629673242569
3.0,0.03975197672843933
4.0,0.037779681384563446
5.0,0.03604010120034218
6.0,0.03444916009902954
7.0,0.03303975611925125
8.0,0.031764011830091476
9.0,0.03053973615169525
10.0,0.029404273256659508
11.0,0.028370670974254608
12.0,0.02736397460103035
13.0,0.02631171979010105
14.0,0.025409696623682976
15.0,0.024518584832549095
16.0,0.023696474730968475
18.0,0.02236982062458992
20.0,0.02123681642115116
22.0,0.020255016162991524
24.0,0.01937425695359707
26.0,0.018596742302179337
28.0,0.017913667485117912
30.0,0.01722976751625538
32.0,0.016482826322317123
36.0,0.01499023474752903
40.0,0.013623244129121304
44.0,0.01272493600845337
48.0,0.011846390552818775
52.0,0.011043423786759377
56.0,0.010488537140190601
60.0,0.010075337253510952
64.0,0.009641662240028381
72.0,0.009359101764857769
80.0,0.009025773033499718
88.0,0.008341163396835327
96.0,0.007763616740703583
104.0,0.007237180136144161
112.0,0.00674292491748929
120.0,0.006034826394170523
128.0,0.004930664785206318
144.0,0.00409517390653491
160.0,0.0040778229013085365
176.0,0.004092026501893997
192.0,0.003433579346165061
208.0,0.0031702604610472918
224.0,0.003537919372320175
240.0,0.0033711730502545834
256.0,0.001744964043609798
288.0,0.0016017565503716469
320.0,0.0004722409648820758
352.0,-0.00018528604414314032
384.0,-0.0018982961773872375
416.0,-0.00024293405294883996
448.0,0.002396006602793932
480.0,0.0021845505107194185
512.0,0.0018097823485732079
576.0,0.0007692801300436258
640.0,-0.0008747753454372287
704.0,0.0006845942116342485
768.0,-0.0006323991692624986
832.0,-0.0028759785927832127
896.0,-0.004556670784950256
960.0,-0.00209589465521276
1024.0,-0.001770065282471478
1152.0,-0.0014822843950241804
1280.0,-0.0011735160369426012
1408.0,-0.0019207820296287537
1536.0,0.0008229556842707098
1664.0,0.002589880721643567
1792.0,0.0017967827152460814
1920.0,-0.0002564940950833261
2048.0,1.3006876542931423e-05
2304.0,-0.0005453303456306458
2560.0,-0.0029275480192154646
2816.0,-0.0023811147548258305
3072.0,-0.0011308221146464348
3328.0,0.0007438524044118822
3584.0,0.0014975778758525848
3840.0,0.0007016200688667595
4096.0,-0.0018981065368279815
4608.0,0.0008641778840683401
5120.0,-0.0018207553075626493
5632.0,-0.0009139687172137201
6144.0,-0.001733554876409471
6656.0,0.0011180889559909701
7168.0,0.0011199554428458214
7680.0,0.0009153207065537572
8192.0,0.0024166414514184
end
