version,3.0
numOfCh,1
type,point
parent_name,34766_0dot6-1dot0
ch_type,1_1
kcount,1
numberNandB,1
brightnessNandB,1
carpet pos,0
pc,0
Time (ms),CH1 Auto-Correlation
1.0,0.04868559539318085
2.0,0.04634184017777443
3.0,0.044258370995521545
4.0,0.04235491156578064
5.0,0.04061733931303024
6.0,0.039013516157865524
7.0,0.03757373243570328
8.0,0.03627397492527962
9.0,0.03494560718536377
10.0,0.03370628133416176
11.0,0.032563112676143646
12.0,0.03143924102187157
13.0,0.030366335064172745
14.0,0.02932564914226532
15.0,0.028434844687581062
16.0,0.02758222259581089
18.0,0.026061125099658966
20.0,0.024737592786550522
22.0,0.023633187636733055
24.0,0.022598091512918472
26.0,0.021678118035197258
28.0,0.020882418379187584
30.0,0.02006281539797783
32.0,0.019231991842389107
36.0,0.017858847975730896
40.0,0.016678394749760628
44.0,0.015635566785931587
48.0,0.014774037525057793
52.0,0.013704980723559856
56.0,0.012848692014813423
60.0,0.012062563560903072
64.0,0.011391024105250835
72.0,0.010322303511202335
80.0,0.00961129181087017
88.0,0.009151004254817963
96.0,0.008736655116081238
104.0,0.008694818243384361
112.0,0.008407216519117355
120.0,0.008029605261981487
128.0,0.007307122461497784
144.0,0.006971987895667553
160.0,0.006471341010183096
176.0,0.005875072441995144
192.0,0.005387060344219208
208.0,0.004761166870594025
224.0,0.004510241094976664
240.0,0.003588732797652483
256.0,0.0019198767840862274
288.0,0.0007218352402560413
320.0,0.0006621899665333331
352.0,0.0010004965588450432
384.0,0.00017375327297486365
416.0,-0.0017006071284413338
448.0,0.00027051387587562203
480.0,-0.00033837801311165094
512.0,-0.0016253386856988072
576.0,0.0006823815056122839
640.0,0.003082502167671919
704.0,0.0029918160289525986
768.0,0.0010936991311609745
832.0,-0.0011835996992886066
896.0,0.000807133677881211
960.0,0.001152674900367856
1024.0,0.0013258260441944003
1152.0,0.0032302772160619497
1280.0,0.003328799270093441
1408.0,0.0031995726749300957
1536.0,-0.00018912498489953578
1664.0,-0.0018126992508769035
1792.0,0.00020174698147457093
1920.0,0.0028682213742285967
2048.0,0.0029941813554614782
2304.0,0.0013783351751044393
2560.0,0.001595612266100943
2816.0,0.0002288917312398553
3072.0,0.000584225810598582
3328.0,0.002304146299138665
3584.0,-0.0021588290110230446
3840.0,-0.0011962715070694685
4096.0,-0.0013742699520662427
4608.0,0.00013856426812708378
5120.0,0.0005870158202014863
5632.0,-0.001847379026003182
6144.0,-0.001994638703763485
6656.0,0.001993855694308877
7168.0,-0.00586898997426033
7680.0,0.0008870184537954628
8192.0,-0.004897287581115961
end
