version,3.0
numOfCh,1
type,point
parent_name,8-cuts
ch_type,1_1
kcount,1
numberNandB,1
brightnessNandB,1
carpet pos,0
pc,0
Time (ms),CH1 Auto-Correlation
1.0,0.019173717126250267
2.0,0.018797971308231354
3.0,0.018432442098855972
4.0,0.01808294467628002
5.0,0.017742108553647995
6.0,0.017407262697815895
7.0,0.01708606630563736
8.0,0.01677773706614971
9.0,0.016479916870594025
10.0,0.016192827373743057
11.0,0.01590646058320999
12.0,0.01562952622771263
13.0,0.015360698103904724
14.0,0.015094239264726639
15.0,0.014837921597063541
16.0,0.014597381465137005
18.0,0.014124550856649876
20.0,0.013685539364814758
22.0,0.013294545002281666
24.0,0.012923293747007847
26.0,0.012571439146995544
28.0,0.012244186364114285
30.0,0.011925758793950081
32.0,0.011642483994364738
36.0,0.0111285001039505
40.0,0.010626365430653095
44.0,0.010148686356842518
48.0,0.009699271060526371
52.0,0.00926695391535759
56.0,0.008901924826204777
60.0,0.008615533821284771
64.0,0.008369938470423222
72.0,0.007959628477692604
80.0,0.007491608615964651
88.0,0.006967309862375259
96.0,0.006437577307224274
104.0,0.0060259075835347176
112.0,0.005527008790522814
120.0,0.00487557565793395
128.0,0.00422358512878418
144.0,0.003240048186853528
160.0,0.002668156987056136
176.0,0.00224730814807117
192.0,0.0016512495931237936
208.0,0.0010998306097462773
224.0,0.0009365089354105294
240.0,0.00109918974339962
256.0,0.0012972361873835325
288.0,0.001531035522930324
320.0,0.0014406404225155711
352.0,0.001370172598399222
384.0,0.0002696867159102112
416.0,-0.0005006171995773911
448.0,-0.000786757911555469
480.0,-0.0009291020105592906
512.0,-0.00115490285679698
576.0,-0.0010243974393233657
640.0,-0.0021962004248052835
704.0,-0.002623886102810502
768.0,-0.002127464860677719
832.0,-0.0005437907529994845
896.0,0.0005110300844535232
960.0,0.0007708189077675343
1024.0,0.0005476372316479683
1152.0,0.0016161845996975899
1280.0,0.0022266835439950228
1408.0,0.0012912737438455224
1536.0,0.0019763114396482706
1664.0,0.0003654778702184558
1792.0,0.00022728829935658723
1920.0,0.000349830137565732
2048.0,0.0014281525509431958
2304.0,0.0006634357268922031
2560.0,-0.0006615958991460502
2816.0,-0.0008546487079001963
3072.0,-0.00016531751316506416
3328.0,0.0005274721188470721
3584.0,-0.00013287014735396951
3840.0,-0.0012646965915337205
4096.0,-0.0002749813429545611
4608.0,-0.0001106496638385579
5120.0,-0.001163266017101705
5632.0,-0.002303151413798332
6144.0,0.0006613704026676714
6656.0,-0.0016132874879986048
7168.0,-0.0006398519035428762
7680.0,-0.001591989304870367
8192.0,-0.0006376519449986517
9216.0,-0.0005923458957113326
10240.0,0.0005701027694158256
11264.0,0.0009280105587095022
12288.0,0.001500624348409474
13312.0,0.0002403644466539845
14336.0,-8.08279037300963e-06
end
