version,3.0
numOfCh,1
type,point
parent_name,8-cuts
ch_type,1_1
kcount,1
numberNandB,1
brightnessNandB,1
carpet pos,0
pc,0
Time (ms),CH1 Auto-Correlation
1.0,0.058141421526670456
2.0,0.05692439526319504
3.0,0.0557720847427845
4.0,0.054647598415613174
5.0,0.05355028063058853
6.0,0.05251992121338844
7.0,0.05150717869400978
8.0,0.05051429569721222
9.0,0.04956057667732239
10.0,0.0486578568816185
11.0,0.047786589711904526
12.0,0.04691952466964722
13.0,0.046099431812763214
14.0,0.045300647616386414
15.0,0.04450707882642746
16.0,0.04376750439405441
18.0,0.04240099713206291
20.0,0.04105379432439804
22.0,0.03974912688136101
24.0,0.038570109754800797
26.0,0.037488292902708054
28.0,0.036473747342824936
30.0,0.03547209873795509
32.0,0.034553222358226776
36.0,0.03278239816427231
40.0,0.031023750081658363
44.0,0.029355546459555626
48.0,0.027750397101044655
52.0,0.02641015127301216
56.0,0.02517656981945038
60.0,0.023851145058870316
64.0,0.022727198898792267
72.0,0.020708415657281876
80.0,0.01894698664546013
88.0,0.017356373369693756
96.0,0.015919074416160583
104.0,0.01479773037135601
112.0,0.013641629368066788
120.0,0.012499703094363213
128.0,0.011538769118487835
144.0,0.010010500438511372
160.0,0.0090562142431736
176.0,0.009020743891596794
192.0,0.009395107626914978
208.0,0.01039896160364151
224.0,0.01086626760661602
240.0,0.00990679208189249
256.0,0.008344203233718872
288.0,0.00535838445648551
320.0,0.004800716415047646
352.0,0.005521105136722326
384.0,0.005865338258445263
416.0,0.004959492478519678
448.0,0.004014895297586918
480.0,0.002789742313325405
512.0,0.0014639173168689013
576.0,0.0010492692235857248
640.0,-0.0006285791750997305
704.0,-0.0036541237495839596
768.0,-0.001580655574798584
832.0,0.0025778349954634905
896.0,-0.0031122714281082153
960.0,-0.0050365799106657505
1024.0,-0.003470147028565407
1152.0,-0.00023746963415760547
1280.0,0.002237014938145876
1408.0,0.00028739101253449917
1536.0,-0.0015270935837179422
1664.0,0.0008145161555148661
1792.0,0.0014201435260474682
1920.0,-0.0014525336446240544
2048.0,-0.001130875782109797
2304.0,-0.0007779808947816491
2560.0,-5.2267947467043996e-05
2816.0,-0.0011496151564642787
3072.0,-0.0038309097290039062
3328.0,-0.0039475467056035995
3584.0,-0.0005392702296376228
3840.0,0.0018964979099109769
4096.0,0.0020543651189655066
4608.0,-0.0008706259541213512
5120.0,-0.0033454899676144123
5632.0,0.0005627928767353296
6144.0,0.0027520216535776854
6656.0,0.004038091748952866
7168.0,0.0055261519737541676
7680.0,-0.00032567986636422575
8192.0,-0.005515854340046644
9216.0,0.0004721512086689472
10240.0,-0.008009389974176884
11264.0,-0.0008408851572312415
12288.0,-0.0014805598184466362
13312.0,0.012837906368076801
14336.0,0.0003655028122011572
end
