version,3.0
numOfCh,1
type,point
parent_name,8-cuts
ch_type,1_1
kcount,1
numberNandB,1
brightnessNandB,1
carpet pos,0
pc,0
Time (ms),CH1 Auto-Correlation
1.0,0.06576671451330185
2.0,0.06460341066122055
3.0,0.06344501674175262
4.0,0.06233248859643936
5.0,0.06126108020544052
6.0,0.06021493300795555
7.0,0.059234630316495895
8.0,0.05831361189484596
9.0,0.05743682011961937
10.0,0.05661915987730026
11.0,0.05582590401172638
12.0,0.055063214153051376
13.0,0.05431896448135376
14.0,0.0535852387547493
15.0,0.05288010835647583
16.0,0.05217934027314186
18.0,0.050780899822711945
20.0,0.049440283328294754
22.0,0.048177558928728104
24.0,0.04703967273235321
26.0,0.04603191465139389
28.0,0.04502854868769646
30.0,0.044089123606681824
32.0,0.04316432401537895
36.0,0.04137500748038292
40.0,0.03974258899688721
44.0,0.03832448646426201
48.0,0.03705504164099693
52.0,0.035839006304740906
56.0,0.03461034968495369
60.0,0.03337178751826286
64.0,0.03220503032207489
72.0,0.030204199254512787
80.0,0.028164325281977654
88.0,0.026196718215942383
96.0,0.0241470318287611
104.0,0.022394567728042603
112.0,0.021302158012986183
120.0,0.020567510277032852
128.0,0.020007621496915817
144.0,0.018919749185442924
160.0,0.017716312780976295
176.0,0.017108706757426262
192.0,0.015511253848671913
208.0,0.014496865682303905
224.0,0.01290591899305582
240.0,0.011065732687711716
256.0,0.009570269845426083
288.0,0.0077899182215332985
320.0,0.00830930471420288
352.0,0.007932671345770359
384.0,0.006695085670799017
416.0,0.005527141038328409
448.0,0.004017685540020466
480.0,0.0035751922987401485
512.0,0.0057609593495726585
576.0,0.005026089958846569
640.0,0.0023453976027667522
704.0,0.0011222156463190913
768.0,0.002708861604332924
832.0,0.0022812404204159975
896.0,0.0023636172991245985
960.0,0.003211730159819126
1024.0,0.002811513841152191
1152.0,0.008886120282113552
1280.0,0.00214273389428854
1408.0,-0.006213919725269079
1536.0,-0.008773185312747955
1664.0,-0.008067040704190731
1792.0,-0.0033833133056759834
1920.0,-0.0034853024408221245
2048.0,-0.003314672037959099
2304.0,-0.002781871473416686
2560.0,-0.0038492202293127775
2816.0,0.0027158481534570456
3072.0,0.002886429661884904
3328.0,-0.0061601437628269196
3584.0,-0.00791630707681179
3840.0,-0.001100656925700605
4096.0,0.00605740724131465
4608.0,0.0005378714413382113
5120.0,-0.00028306993772275746
5632.0,0.0019716613460332155
6144.0,0.0002191856619901955
6656.0,0.0014026521239429712
7168.0,-0.0015415230300277472
7680.0,-0.003172521246597171
8192.0,-0.0019938573241233826
9216.0,-0.010739916004240513
10240.0,-0.006876018829643726
11264.0,0.011237981729209423
12288.0,0.004541975911706686
13312.0,-0.003512193448841572
14336.0,-0.0007123034447431564
end
