version,3.0
numOfCh,1
type,point
parent_name,8-cuts
ch_type,1_1
kcount,1
numberNandB,1
brightnessNandB,1
carpet pos,0
pc,0
Time (ms),CH1 Auto-Correlation
1.0,0.037278786301612854
2.0,0.03666471317410469
3.0,0.03606202453374863
4.0,0.035468295216560364
5.0,0.03488226234912872
6.0,0.03431612625718117
7.0,0.0337618850171566
8.0,0.03321124240756035
9.0,0.03268009424209595
10.0,0.032176729291677475
11.0,0.03170164301991463
12.0,0.03125124052166939
13.0,0.03082418069243431
14.0,0.03038686141371727
15.0,0.029964903369545937
16.0,0.029563724994659424
18.0,0.028794383630156517
20.0,0.028095625340938568
22.0,0.02742421254515648
24.0,0.026783298701047897
26.0,0.026148224249482155
28.0,0.025531060993671417
30.0,0.02494438737630844
32.0,0.02436610497534275
36.0,0.023380588740110397
40.0,0.022503457963466644
44.0,0.021641572937369347
48.0,0.020861417055130005
52.0,0.020165076479315758
56.0,0.019459350034594536
60.0,0.018750997260212898
64.0,0.017923695966601372
72.0,0.01641799882054329
80.0,0.015105358324944973
88.0,0.01384815014898777
96.0,0.01273701898753643
104.0,0.01169810350984335
112.0,0.010768513195216656
120.0,0.010097047314047813
128.0,0.009663434699177742
144.0,0.008847031742334366
160.0,0.00836054515093565
176.0,0.008143674582242966
192.0,0.00787108950316906
208.0,0.007221581880003214
224.0,0.006762116216123104
240.0,0.006255148444324732
256.0,0.005115917418152094
288.0,0.004827143158763647
320.0,0.004804081749171019
352.0,0.0046827360056340694
384.0,0.00407205056399107
416.0,0.003146622097119689
448.0,0.0024888371117413044
480.0,0.0013263631844893098
512.0,0.0016890058759599924
576.0,0.001937145134434104
640.0,-0.0002505162847228348
704.0,-0.0020865253172814846
768.0,-0.0019269561162218451
832.0,-0.0027464227750897408
896.0,-0.0035349917598068714
960.0,-0.00365877035073936
1024.0,-0.0032230871729552746
1152.0,-0.003474422264844179
1280.0,-0.004678699187934399
1408.0,-0.004494746681302786
1536.0,-0.002986113540828228
1664.0,-0.003728854702785611
1792.0,-0.001816352247260511
1920.0,-0.0009092227555811405
2048.0,-0.0032082160469144583
2304.0,-0.0007606729632243514
2560.0,0.0029175595846027136
2816.0,0.001786859822459519
3072.0,0.0013242517597973347
3328.0,-0.0016933443257585168
3584.0,-9.225810208590701e-05
3840.0,-0.002132038353011012
4096.0,-0.0028447972144931555
4608.0,-0.0028064402285963297
5120.0,-0.0007727450574748218
5632.0,0.003786624176427722
6144.0,0.004384004045277834
6656.0,-0.003468272276222706
7168.0,-0.002421857789158821
7680.0,0.0013513831654563546
8192.0,7.088101119734347e-05
9216.0,0.0015988227678462863
10240.0,0.0010312750237062573
11264.0,-0.0011103207943961024
12288.0,-0.0033368307631462812
13312.0,0.0002172417298424989
14336.0,0.0035007845144718885
end
