version,3.0
numOfCh,1
type,point
parent_name,8-cuts
ch_type,1_1
kcount,1
numberNandB,1
brightnessNandB,1
carpet pos,0
pc,0
Time (ms),CH1 Auto-Correlation
1.0,0.027420654892921448
2.0,0.02681923471391201
3.0,0.02624455839395523
4.0,0.025679325684905052
5.0,0.025119446218013763
6.0,0.024584732949733734
7.0,0.024063972756266594
8.0,0.023546313866972923
9.0,0.02306428551673889
10.0,0.022603293880820274
11.0,0.022144202142953873
12.0,0.021689526736736298
13.0,0.021240880712866783
14.0,0.02079981379210949
15.0,0.020364824682474136
16.0,0.019944993779063225
18.0,0.01912117376923561
20.0,0.018336348235607147
22.0,0.01763291098177433
24.0,0.016975505277514458
26.0,0.016343586146831512
28.0,0.015734652057290077
30.0,0.015160291455686092
32.0,0.014647546224296093
36.0,0.0136830173432827
40.0,0.012864417396485806
44.0,0.012126647867262363
48.0,0.011417110450565815
52.0,0.010688702575862408
56.0,0.010030844248831272
60.0,0.009504404850304127
64.0,0.009035512804985046
72.0,0.008206845261156559
80.0,0.007559162564575672
88.0,0.006972355302423239
96.0,0.006345294415950775
104.0,0.0055857147090137005
112.0,0.004823227412998676
120.0,0.0042496793903410435
128.0,0.003781756851822138
144.0,0.0034492837730795145
160.0,0.0033082636073231697
176.0,0.003076514694839716
192.0,0.002598803024739027
208.0,0.002201428869739175
224.0,0.002294939011335373
240.0,0.0025503651704639196
256.0,0.0027370823081582785
288.0,0.0031836405396461487
320.0,0.003518704092130065
352.0,0.00225405627861619
384.0,0.0009017054690048099
416.0,0.001494795666076243
448.0,0.002404505619779229
480.0,0.0032680172007530928
512.0,0.00333843263797462
576.0,0.0018383992137387395
640.0,0.0011803546221926808
704.0,0.002120001707226038
768.0,0.0029525591526180506
832.0,0.0018799378303810954
896.0,0.0013706849422305822
960.0,1.4866349374642596e-05
1024.0,-0.0006174604059197009
1152.0,0.0004808056983165443
1280.0,0.001118117943406105
1408.0,0.0023429254069924355
1536.0,-0.00034271826734766364
1664.0,0.0002554937673266977
1792.0,0.00045379644143395126
1920.0,0.0025193735491484404
2048.0,0.0014204451581463218
2304.0,-0.000768014055211097
2560.0,-0.0016293474473059177
2816.0,-0.00048647448420524597
3072.0,-0.0012746177380904555
3328.0,0.0003382879658602178
3584.0,0.0001532306632725522
3840.0,-0.001791169517673552
4096.0,-0.002478750189766288
4608.0,-0.0034201699309051037
5120.0,-0.0022391239181160927
5632.0,-0.0029162499122321606
6144.0,-0.004198204725980759
6656.0,-0.0012695370241999626
7168.0,-0.00012223233352415264
7680.0,-0.0005059564718976617
8192.0,0.0010951176518574357
9216.0,0.0023465335834771395
10240.0,0.0024457243271172047
11264.0,0.002202396048232913
12288.0,0.00268951547332108
13312.0,-0.0032767488155514
14336.0,-0.005650785285979509
end
