version,3.0
numOfCh,1
type,point
parent_name,8-cuts
ch_type,1_1
kcount,1
numberNandB,1
brightnessNandB,1
carpet pos,0
pc,0
Time (ms),CH1 Auto-Correlation
1.0,0.03303242102265358
2.0,0.032464344054460526
3.0,0.03192191943526268
4.0,0.03140733018517494
5.0,0.030917204916477203
6.0,0.030425433069467545
7.0,0.029947688803076744
8.0,0.029484758153557777
9.0,0.02903805486857891
10.0,0.028598079457879066
11.0,0.0281736608594656
12.0,0.02777264453470707
13.0,0.02739151567220688
14.0,0.0270253773778677
15.0,0.02667934261262417
16.0,0.02635875903069973
18.0,0.025750471279025078
20.0,0.025179201737046242
22.0,0.02462349459528923
24.0,0.024081025272607803
26.0,0.02352498099207878
28.0,0.022969232872128487
30.0,0.02242167480289936
32.0,0.021900426596403122
36.0,0.02088313363492489
40.0,0.019949575886130333
44.0,0.019101284444332123
48.0,0.01838330365717411
52.0,0.017717203125357628
56.0,0.01708189770579338
60.0,0.016429966315627098
64.0,0.015863632783293724
72.0,0.014648949727416039
80.0,0.013551090843975544
88.0,0.012553390115499496
96.0,0.011548551730811596
104.0,0.010493188165128231
112.0,0.009657453745603561
120.0,0.009177318774163723
128.0,0.008856737054884434
144.0,0.008299227803945541
160.0,0.0077796620316803455
176.0,0.007275641895830631
192.0,0.006802753545343876
208.0,0.006278940476477146
224.0,0.005736926570534706
240.0,0.005405064206570387
256.0,0.005305480677634478
288.0,0.0049272081814706326
320.0,0.004676715936511755
352.0,0.00461589964106679
384.0,0.0038250754587352276
416.0,0.0034473782870918512
448.0,0.0033917399123311043
480.0,0.004107041750103235
512.0,0.004408027045428753
576.0,0.002530529163777828
640.0,-0.00021654099691659212
704.0,8.681386134412605e-06
768.0,0.0012039224384352565
832.0,0.0012837660033255816
896.0,0.0003435800317674875
960.0,-0.00046185191604308784
1024.0,-0.0016942512011155486
1152.0,-0.0016906352248042822
1280.0,0.0006712304311804473
1408.0,0.0023905106354504824
1536.0,-0.0008010645397007465
1664.0,0.0006465858314186335
1792.0,-0.0020309460815042257
1920.0,-0.004159615375101566
2048.0,-0.002815894316881895
2304.0,-0.0036731914151459932
2560.0,-0.0011061407858505845
2816.0,-0.0021102530881762505
3072.0,-0.003009146312251687
3328.0,-0.004061650950461626
3584.0,-0.004549022763967514
3840.0,0.00042951645446009934
4096.0,0.0013609790476039052
4608.0,0.003089171601459384
5120.0,0.0029542746488004923
5632.0,0.005203102249652147
6144.0,0.00046369360643438995
6656.0,-0.00011790363350883126
7168.0,-9.819366096053272e-05
7680.0,-0.0038955695927143097
8192.0,-0.000552948797121644
9216.0,-0.001880496391095221
10240.0,0.0019377331482246518
11264.0,-0.0018643857911229134
12288.0,-0.0008664901251904666
13312.0,-0.0035637321416288614
14336.0,-0.0024916871916502714
end
