version,3.0
numOfCh,1
type,point
parent_name,8-cuts
ch_type,1_1
kcount,1
numberNandB,1
brightnessNandB,1
carpet pos,0
pc,0
Time (ms),CH1 Auto-Correlation
1.0,0.031254447996616364
2.0,0.03067116253077984
3.0,0.03011755272746086
4.0,0.029569530859589577
5.0,0.029031740501523018
6.0,0.028526095673441887
7.0,0.028027573600411415
8.0,0.027542361989617348
9.0,0.027087129652500153
10.0,0.026649057865142822
11.0,0.026248302310705185
12.0,0.025850651785731316
13.0,0.025472961366176605
14.0,0.025095921009778976
15.0,0.024740157648921013
16.0,0.024381868541240692
18.0,0.023682018741965294
20.0,0.023028351366519928
22.0,0.02242862991988659
24.0,0.021863743662834167
26.0,0.021333184093236923
28.0,0.020871805027127266
30.0,0.020406287163496017
32.0,0.019954023882746696
36.0,0.01911207102239132
40.0,0.018291914835572243
44.0,0.01751740090548992
48.0,0.016767272725701332
52.0,0.016080770641565323
56.0,0.015307062305510044
60.0,0.014525728300213814
64.0,0.013842434622347355
72.0,0.012733008712530136
80.0,0.011636209674179554
88.0,0.010640528053045273
96.0,0.009826099500060081
104.0,0.009136061184108257
112.0,0.008572308346629143
120.0,0.00787592027336359
128.0,0.007227099966257811
144.0,0.006268071010708809
160.0,0.005214419215917587
176.0,0.004184013698250055
192.0,0.003620306495577097
208.0,0.002603179542347789
224.0,0.0017362376675009727
240.0,0.0012402101419866085
256.0,0.0010363204637542367
288.0,0.00046887286589480937
320.0,-5.19529239682015e-05
352.0,-0.0015421297866851091
384.0,-0.0031254154164344072
416.0,-0.00410960940644145
448.0,-0.004639477003365755
480.0,-0.004369963891804218
512.0,-0.003714393125846982
576.0,-0.001925213378854096
640.0,-0.00040892534889280796
704.0,-0.0003198027261532843
768.0,-0.00022846586944069713
832.0,-0.000828613992780447
896.0,-0.0004086670815013349
960.0,-0.0007227688911370933
1024.0,-0.0010426538065075874
1152.0,-0.0011060204124078155
1280.0,-0.0011690868996083736
1408.0,-2.1933876723778667e-06
1536.0,-0.0014071278274059296
1664.0,0.0006612488650716841
1792.0,-0.0008212396642193198
1920.0,-0.00048205972416326404
2048.0,0.0005699524190276861
2304.0,0.00046340402332134545
2560.0,-0.004614881239831448
2816.0,-0.00238795205950737
3072.0,0.0054005468264222145
3328.0,0.001031786552630365
3584.0,-0.00327400304377079
3840.0,-0.0017843773821368814
4096.0,-0.0026082368567585945
4608.0,0.0012452703667804599
5120.0,0.0037906249053776264
5632.0,-0.0020325586665421724
6144.0,0.0016445654910057783
6656.0,-0.0014280052855610847
7168.0,-0.0027314068283885717
7680.0,-0.0005217743455432355
8192.0,0.0015414092922583222
9216.0,0.0005841621896252036
10240.0,0.0004070517315994948
11264.0,-0.0002277225285070017
12288.0,-0.0014800638891756535
13312.0,-0.0014049472520127892
14336.0,0.001088285818696022
end
