version,3.0
numOfCh,1
type,point
parent_name,8-cuts
ch_type,1_1
kcount,1
numberNandB,1
brightnessNandB,1
carpet pos,0
pc,0
Time (ms),CH1 Auto-Correlation
1.0,0.02290833368897438
2.0,0.02251623384654522
3.0,0.022131145000457764
4.0,0.021761290729045868
5.0,0.02140224725008011
6.0,0.021053915843367577
7.0,0.020719297230243683
8.0,0.020401276648044586
9.0,0.020100848749279976
10.0,0.019808785989880562
11.0,0.01952301524579525
12.0,0.019243914633989334
13.0,0.018974384292960167
14.0,0.018719859421253204
15.0,0.018468959257006645
16.0,0.018224209547042847
18.0,0.017751697450876236
20.0,0.017284125089645386
22.0,0.016833292320370674
24.0,0.01639881171286106
26.0,0.016000382602214813
28.0,0.015609757974743843
30.0,0.015233506448566914
32.0,0.014872625470161438
36.0,0.014203019440174103
40.0,0.013533839955925941
44.0,0.012890134006738663
48.0,0.012247790582478046
52.0,0.011607070453464985
56.0,0.011039696633815765
60.0,0.010504132136702538
64.0,0.009966295212507248
72.0,0.009159049950540066
80.0,0.008439315482974052
88.0,0.007765826769173145
96.0,0.007153556682169437
104.0,0.00664220517501235
112.0,0.006179668940603733
120.0,0.005738011095672846
128.0,0.005279232282191515
144.0,0.004472371190786362
160.0,0.0038489692378789186
176.0,0.0031460917089134455
192.0,0.0027423000428825617
208.0,0.0027438525576144457
224.0,0.002915988676249981
240.0,0.0028300483245402575
256.0,0.0025231351610273123
288.0,0.0025633294135332108
320.0,0.0031738311517983675
352.0,0.003695081453770399
384.0,0.003580282209441066
416.0,0.003931810613721609
448.0,0.004013592842966318
480.0,0.0035751790273934603
512.0,0.0032007144764065742
576.0,0.003259971970692277
640.0,0.0032057752832770348
704.0,0.0027196905575692654
768.0,0.002277991734445095
832.0,0.0024300396908074617
896.0,0.0020867479033768177
960.0,0.0020844205282628536
1024.0,0.0033933015074580908
1152.0,0.003487770212814212
1280.0,0.002415681490674615
1408.0,0.0005956679815426469
1536.0,0.00046775813098065555
1664.0,0.0011119813425466418
1792.0,0.0002731952117756009
1920.0,-0.0007578558870591223
2048.0,-0.0018435314996168017
2304.0,-0.0018112207762897015
2560.0,-0.004806935787200928
2816.0,-0.0036291431169956923
3072.0,-0.004822609946131706
3328.0,-0.0030092746019363403
3584.0,-0.004328194539994001
3840.0,-0.004019109066575766
4096.0,-0.0030568439979106188
4608.0,-0.0009430253994651139
5120.0,0.0007617841474711895
5632.0,0.0019687197636812925
6144.0,0.002761597279459238
6656.0,0.0037752653006464243
7168.0,0.0036007401067763567
7680.0,0.000635589356534183
8192.0,0.00041059020441025496
9216.0,-0.002340665552765131
10240.0,-0.002841533161699772
11264.0,-0.00213877041824162
12288.0,-5.4449017625302076e-05
13312.0,0.0011735185980796814
14336.0,0.0012980365427210927
end
