version,3.0
numOfCh,1
type,point
parent_name,8-cuts
ch_type,1_1
kcount,1
numberNandB,1
brightnessNandB,1
carpet pos,0
pc,0
Time (ms),CH1 Auto-Correlation
1.0,0.022096486762166023
2.0,0.021702559664845467
3.0,0.021325476467609406
4.0,0.02095925249159336
5.0,0.02060137689113617
6.0,0.02025352418422699
7.0,0.019913485273718834
8.0,0.01957530528306961
9.0,0.01925707422196865
10.0,0.01894724927842617
11.0,0.018649667501449585
12.0,0.018357284367084503
13.0,0.01806931383907795
14.0,0.017788350582122803
15.0,0.01751313917338848
16.0,0.017241375520825386
18.0,0.016736632212996483
20.0,0.016260353848338127
22.0,0.015812765806913376
24.0,0.015360049903392792
26.0,0.014923280104994774
28.0,0.014521991834044456
30.0,0.014148969203233719
32.0,0.013805277645587921
36.0,0.013174536637961864
40.0,0.012546704150736332
44.0,0.011963202618062496
48.0,0.011424032039940357
52.0,0.01091750431805849
56.0,0.010415979661047459
60.0,0.0099319564178586
64.0,0.009476163424551487
72.0,0.008680434897542
80.0,0.007986299693584442
88.0,0.0074195098131895065
96.0,0.0070260148495435715
104.0,0.00679124565795064
112.0,0.00673461239784956
120.0,0.006580073852092028
128.0,0.00627918541431427
144.0,0.005834605544805527
160.0,0.0057930368930101395
176.0,0.0057943714782595634
192.0,0.005599272437393665
208.0,0.005346492864191532
224.0,0.005322596989572048
240.0,0.005398497451096773
256.0,0.005101386923342943
288.0,0.003837407333776355
320.0,0.002929562935605645
352.0,0.0025055392179638147
384.0,0.002495153108611703
416.0,0.0031892992556095123
448.0,0.003522366750985384
480.0,0.003748590126633644
512.0,0.0039042416028678417
576.0,0.0030514684040099382
640.0,0.0031437180005013943
704.0,0.0035968078300356865
768.0,0.003144531976431608
832.0,0.0028189877048134804
896.0,0.0029212648514658213
960.0,0.0034747656900435686
1024.0,0.004148441832512617
1152.0,0.0042002759873867035
1280.0,0.0031044543720781803
1408.0,0.0026083579286932945
1536.0,0.00278007285669446
1664.0,0.0015548290684819221
1792.0,0.000178826623596251
1920.0,0.0007851544651202857
2048.0,8.825819531921297e-05
2304.0,0.0013841522159054875
2560.0,-0.0009484780021011829
2816.0,-0.00247464538551867
3072.0,-0.001900324015878141
3328.0,-0.0034459263551980257
3584.0,-0.002286437666043639
3840.0,-0.002751503372564912
4096.0,-0.005036532413214445
4608.0,-0.002403232268989086
5120.0,-0.003212726442143321
5632.0,-0.002795356558635831
6144.0,-0.0019244682043790817
6656.0,-0.002183222211897373
7168.0,0.0005209306254982948
7680.0,-0.0001439460611436516
8192.0,0.0018573012202978134
9216.0,0.002180048730224371
10240.0,0.0005986906471662223
11264.0,-0.0008997857221402228
12288.0,-0.001308521837927401
13312.0,0.0005863199476152658
14336.0,0.002131490735337138
end
