version,3.0
numOfCh,1
type,point
parent_name,8-cuts
ch_type,1_1
kcount,1
numberNandB,1
brightnessNandB,1
carpet pos,0
pc,0
Time (ms),CH1 Auto-Correlation
1.0,0.0621885247528553
2.0,0.060921672731637955
3.0,0.05969403311610222
4.0,0.058519892394542694
5.0,0.057412661612033844
6.0,0.05631692335009575
7.0,0.055251795798540115
8.0,0.0542135052382946
9.0,0.05322980135679245
10.0,0.05228906869888306
11.0,0.051359761506319046
12.0,0.05044303834438324
13.0,0.04957440868020058
14.0,0.04871262609958649
15.0,0.04787331447005272
16.0,0.04705623537302017
18.0,0.04550885781645775
20.0,0.04399241879582405
22.0,0.04257521778345108
24.0,0.041250795125961304
26.0,0.04001721739768982
28.0,0.03881330415606499
30.0,0.03763356804847717
32.0,0.036492180079221725
36.0,0.034447669982910156
40.0,0.03238891065120697
44.0,0.030582230538129807
48.0,0.028825929388403893
52.0,0.02713029645383358
56.0,0.025581376627087593
60.0,0.02404756098985672
64.0,0.02263818122446537
72.0,0.019960740581154823
80.0,0.01756078563630581
88.0,0.015483079478144646
96.0,0.014077062718570232
104.0,0.01278781145811081
112.0,0.011784767732024193
120.0,0.01099312398582697
128.0,0.010334058664739132
144.0,0.008787212893366814
160.0,0.008263565599918365
176.0,0.008373928256332874
192.0,0.008431409485638142
208.0,0.00819537416100502
224.0,0.0069574336521327496
240.0,0.00528673455119133
256.0,0.0032580550760030746
288.0,0.0020039293449372053
320.0,-0.00019801943562924862
352.0,-0.0010433346033096313
384.0,-0.001314897439442575
416.0,-0.0018520531011745334
448.0,-0.0015485789626836777
480.0,-0.0007340989541262388
512.0,-0.00033111791708506644
576.0,-0.0015418126713484526
640.0,-0.0037256015930324793
704.0,-0.005255991127341986
768.0,-0.005795310251414776
832.0,-0.003935345448553562
896.0,-0.0028598695062100887
960.0,-0.0009221131331287324
1024.0,0.0018496484262868762
1152.0,-0.00037992873694747686
1280.0,0.001066428143531084
1408.0,0.0006347974995151162
1536.0,0.0014512609923258424
1664.0,-0.00024849039618857205
1792.0,0.00044116165372543037
1920.0,0.0014000720111653209
2048.0,5.4316265050147194e-06
2304.0,-0.00040112255373969674
2560.0,-0.0006848630728200078
2816.0,-0.002325603738427162
3072.0,-0.0027001253329217434
3328.0,0.002703005215153098
3584.0,0.00556925917044282
3840.0,0.0019596724305301905
4096.0,-0.002856735372915864
4608.0,-0.0016427062219008803
5120.0,0.001730298507027328
5632.0,-0.0005701701156795025
6144.0,-0.0005246546934358776
6656.0,-0.0009446478798054159
7168.0,-0.004041898064315319
7680.0,1.3018596291658469e-05
8192.0,0.001090805628336966
9216.0,-0.000726506405044347
10240.0,-0.005827872082591057
11264.0,0.004726390354335308
12288.0,-0.0024647959508001804
13312.0,-0.0017391340807080269
14336.0,0.005525869317352772
end
