version,3.0
numOfCh,1
type,point
parent_name,8-cuts
ch_type,1_1
kcount,1
numberNandB,1
brightnessNandB,1
carpet pos,0
pc,0
Time (ms),CH1 Auto-Correlation
1.0,0.024347683414816856
2.0,0.02395179308950901
3.0,0.02356332540512085
4.0,0.023185476660728455
5.0,0.022814983502030373
6.0,0.022440586239099503
7.0,0.022082913666963577
8.0,0.021739453077316284
9.0,0.0214103814214468
10.0,0.02109450288116932
11.0,0.020783299580216408
12.0,0.020480040460824966
13.0,0.020180432125926018
14.0,0.019902179017663002
15.0,0.01963058114051819
16.0,0.01937754452228546
18.0,0.018898170441389084
20.0,0.018453938886523247
22.0,0.018041186034679413
24.0,0.017652977257966995
26.0,0.017306402325630188
28.0,0.01696668565273285
30.0,0.016638098284602165
32.0,0.016327429562807083
36.0,0.01574573665857315
40.0,0.01516382023692131
44.0,0.014615190215408802
48.0,0.014119056053459644
52.0,0.013699949719011784
56.0,0.013365514576435089
60.0,0.013071462512016296
64.0,0.01280489657074213
72.0,0.012327035889029503
80.0,0.011912268586456776
88.0,0.011560456827282906
96.0,0.01118631660938263
104.0,0.010788400657474995
112.0,0.010404965840280056
120.0,0.01000930555164814
128.0,0.00963228102773428
144.0,0.008786814287304878
160.0,0.008091889321804047
176.0,0.007623627316206694
192.0,0.00711802626028657
208.0,0.006765680853277445
224.0,0.006635627709329128
240.0,0.006415541749447584
256.0,0.006205323617905378
288.0,0.005949884187430143
320.0,0.0058918120339512825
352.0,0.004759976174682379
384.0,0.0034461587201803923
416.0,0.0026513917837291956
448.0,0.0017484130803495646
480.0,0.0016081416979432106
512.0,0.0015246161492541432
576.0,0.0012531729880720377
640.0,0.0008304096409119666
704.0,0.00039694964652881026
768.0,-0.0006769946194253862
832.0,-0.0007893170695751905
896.0,-0.0007154463673941791
960.0,-0.0013119522482156754
1024.0,-0.00063074886566028
1152.0,-0.0013304568128660321
1280.0,-0.001261821947991848
1408.0,0.00019456245354376733
1536.0,0.0005970955244265497
1664.0,-0.00010378586011938751
1792.0,-0.0001495151373092085
1920.0,0.000296102836728096
2048.0,0.0007675949018448591
2304.0,0.0007937474874779582
2560.0,-0.0009584755753166974
2816.0,-0.0020744106732308865
3072.0,-0.002207870129495859
3328.0,-0.00014048287994228303
3584.0,-0.0008753141155466437
3840.0,-0.003355194116011262
4096.0,-0.0036162128672003746
4608.0,-0.0027961833402514458
5120.0,-0.0003584988880902529
5632.0,-0.0005429250304587185
6144.0,0.0010688035981729627
6656.0,0.004042889457195997
7168.0,7.378415466519073e-05
7680.0,-0.0006706388667225838
8192.0,-0.00029076135251671076
9216.0,-0.001401324407197535
10240.0,-0.001482366118580103
11264.0,0.0002044109278358519
12288.0,-0.0022756587713956833
13312.0,0.0014965052250772715
14336.0,-0.000791301776189357
end
