version,3.0
numOfCh,1
type,point
parent_name,8-cuts
ch_type,1_1
kcount,1
numberNandB,1
brightnessNandB,1
carpet pos,0
pc,0
Time (ms),CH1 Auto-Correlation
1.0,0.021404404193162918
2.0,0.020987894386053085
3.0,0.020566808059811592
4.0,0.020155342295765877
5.0,0.01974884234368801
6.0,0.019362209364771843
7.0,0.01898464746773243
8.0,0.018619423732161522
9.0,0.018280988559126854
10.0,0.017949292436242104
11.0,0.01762384921312332
12.0,0.017313597723841667
13.0,0.017012180760502815
14.0,0.016723552718758583
15.0,0.01645013503730297
16.0,0.016191961243748665
18.0,0.01571265608072281
20.0,0.015261958353221416
22.0,0.0148307541385293
24.0,0.014439796097576618
26.0,0.01408233493566513
28.0,0.013770229183137417
30.0,0.013491585850715637
32.0,0.013219988904893398
36.0,0.012732592411339283
40.0,0.01233327854424715
44.0,0.011983536183834076
48.0,0.011645874939858913
52.0,0.0112630445510149
56.0,0.010905697010457516
60.0,0.010618397034704685
64.0,0.01041104830801487
72.0,0.009888595901429653
80.0,0.009349411353468895
88.0,0.00885314866900444
96.0,0.00832981988787651
104.0,0.007923319935798645
112.0,0.007678733207285404
120.0,0.007423189468681812
128.0,0.007111179176717997
144.0,0.006239685229957104
160.0,0.0054090204648673534
176.0,0.0045985872857272625
192.0,0.004158447962254286
208.0,0.0037475903518497944
224.0,0.0033651646226644516
240.0,0.0030119328293949366
256.0,0.0027325227856636047
288.0,0.0025580767542123795
320.0,0.0022376487031579018
352.0,0.0024294210597872734
384.0,0.0020641996525228024
416.0,0.001518899342045188
448.0,0.000746994570363313
480.0,0.0005763188819400966
512.0,0.0004688466724473983
576.0,-0.00014593233936466277
640.0,0.0002515741216484457
704.0,0.001485134824179113
768.0,0.0016731700161471963
832.0,0.0016745523316785693
896.0,0.0013011042028665543
960.0,0.001285042380914092
1024.0,0.0017775938613340259
1152.0,0.0011982228606939316
1280.0,0.001174259465187788
1408.0,0.0010622511617839336
1536.0,0.0006914023542776704
1664.0,0.0005327220424078405
1792.0,0.00172998767811805
1920.0,0.001852497924119234
2048.0,0.003729378804564476
2304.0,0.0028668378945440054
2560.0,0.0024262983351945877
2816.0,0.0017395594622939825
3072.0,0.00018705606635194272
3328.0,0.0016900103073567152
3584.0,0.0018207136308774352
3840.0,0.00034983400837518275
4096.0,-0.00028358143754303455
4608.0,-0.0007044692756608129
5120.0,-0.00012677159975282848
5632.0,0.0005601581069640815
6144.0,-0.0013202739646658301
6656.0,-0.0009854858508333564
7168.0,-0.0013132935855537653
7680.0,-0.0018712147139012814
8192.0,-0.0023562677670270205
9216.0,-0.003753101686015725
10240.0,-0.003691325196996331
11264.0,-0.0010129391448572278
12288.0,-0.0047219679690897465
13312.0,-0.0012441928265616298
14336.0,0.0001843375648604706
end
