version,3.0
numOfCh,1
type,point
parent_name,8-cuts
ch_type,1_1
kcount,1
numberNandB,1
brightnessNandB,1
carpet pos,0
pc,0
Time (ms),CH1 Auto-Correlation
1.0,0.058107879012823105
2.0,0.05692383646965027
3.0,0.05577830970287323
4.0,0.05465412884950638
5.0,0.05353694409132004
6.0,0.05244302749633789
7.0,0.05140398442745209
8.0,0.05041278526186943
9.0,0.04944672808051109
10.0,0.048495542258024216
11.0,0.047550786286592484
12.0,0.04662492871284485
13.0,0.045734427869319916
14.0,0.04485747590661049
15.0,0.04400895908474922
16.0,0.04318847134709358
18.0,0.04166161268949509
20.0,0.04016271233558655
22.0,0.038698710501194
24.0,0.03726056590676308
26.0,0.03585872799158096
28.0,0.034543726593256
30.0,0.03333447501063347
32.0,0.0322079062461853
36.0,0.03012780286371708
40.0,0.028283987194299698
44.0,0.026719599962234497
48.0,0.025220245122909546
52.0,0.023799534887075424
56.0,0.022533541545271873
60.0,0.021358603611588478
64.0,0.02035854011774063
72.0,0.018865548074245453
80.0,0.01794334687292576
88.0,0.01682683639228344
96.0,0.015279517509043217
104.0,0.013438811525702477
112.0,0.01173165813088417
120.0,0.010436641052365303
128.0,0.009052629582583904
144.0,0.006931372918188572
160.0,0.005473683588206768
176.0,0.004722433164715767
192.0,0.005026643630117178
208.0,0.006278016604483128
224.0,0.006758901756256819
240.0,0.005711960606276989
256.0,0.0044006104581058025
288.0,0.003274543210864067
320.0,0.0014811947476118803
352.0,0.00047481933142989874
384.0,0.001335368026047945
416.0,0.0004063243686687201
448.0,0.0016870000399649143
480.0,0.0038435969036072493
512.0,0.004196817986667156
576.0,0.004052313044667244
640.0,0.000910836854018271
704.0,-0.0022614679764956236
768.0,0.0007921901415102184
832.0,0.0037843503523617983
896.0,0.006118499208241701
960.0,0.007054442074149847
1024.0,0.004933276679366827
1152.0,0.002086938126012683
1280.0,-0.0016028900863602757
1408.0,0.0024571113754063845
1536.0,0.004633321892470121
1664.0,0.006365683861076832
1792.0,-3.2216876206803136e-06
1920.0,0.000631116796284914
2048.0,0.0006461988086812198
2304.0,-0.003846990643069148
2560.0,0.0031298582907766104
2816.0,0.0027366045396775007
3072.0,-0.0044730608351528645
3328.0,-0.0034076343290507793
3584.0,-0.0063222674652934074
3840.0,-0.00805219728499651
4096.0,-0.004629761911928654
4608.0,-0.004305657930672169
5120.0,-0.004262649919837713
5632.0,-0.004388374742120504
6144.0,-0.0032327284570783377
6656.0,-0.004957697819918394
7168.0,-0.0018617071909829974
7680.0,0.0007280655554495752
8192.0,-0.0003021510492544621
9216.0,0.004661468788981438
10240.0,0.006211432628333569
11264.0,0.002860668580979109
12288.0,-0.001511076116003096
13312.0,-0.002828836441040039
14336.0,-0.006389286369085312
end
