version,3.0
numOfCh,1
type,point
parent_name,8-cuts
ch_type,1_1
kcount,1
numberNandB,1
brightnessNandB,1
carpet pos,0
pc,0
Time (ms),CH1 Auto-Correlation
1.0,0.034067049622535706
2.0,0.0334780253469944
3.0,0.032917946577072144
4.0,0.03236506134271622
5.0,0.03181992471218109
6.0,0.03128121420741081
7.0,0.030756326392292976
8.0,0.030248165130615234
9.0,0.02975490875542164
10.0,0.02927735075354576
11.0,0.02880735509097576
12.0,0.028343768790364265
13.0,0.027883045375347137
14.0,0.02745809219777584
15.0,0.027047285810112953
16.0,0.02666565030813217
18.0,0.02593900077044964
20.0,0.025246938690543175
22.0,0.024575550109148026
24.0,0.023921705782413483
26.0,0.02325800433754921
28.0,0.02259865030646324
30.0,0.0219352375715971
32.0,0.021290281787514687
36.0,0.020109398290514946
40.0,0.01896902732551098
44.0,0.017948567867279053
48.0,0.017042772844433784
52.0,0.016222773119807243
56.0,0.015550810843706131
60.0,0.014899367466568947
64.0,0.014184477739036083
72.0,0.01280264463275671
80.0,0.01168845221400261
88.0,0.010902504436671734
96.0,0.010216845199465752
104.0,0.009698099456727505
112.0,0.00931420549750328
120.0,0.00896533578634262
128.0,0.008657784201204777
144.0,0.008096775971353054
160.0,0.007675198372453451
176.0,0.007530369330197573
192.0,0.0070902323350310326
208.0,0.006706876214593649
224.0,0.005791511852294207
240.0,0.005435526371002197
256.0,0.0053269220516085625
288.0,0.004196588881313801
320.0,0.003086517099291086
352.0,0.002638846170157194
384.0,0.0027278228662908077
416.0,0.0026765738148242235
448.0,0.003360545029863715
480.0,0.0039927470497787
512.0,0.0038491066079586744
576.0,0.0018245050450786948
640.0,0.001450659241527319
704.0,6.58173012197949e-05
768.0,-0.0010657991515472531
832.0,-0.0007126206764951348
896.0,-0.0018190254922956228
960.0,-0.0026520059909671545
1024.0,-0.0018281919183209538
1152.0,3.244049003114924e-05
1280.0,-0.000339137070113793
1408.0,-0.0004135528870392591
1536.0,-0.0035025111865252256
1664.0,-0.0020843339152634144
1792.0,-0.0023773685097694397
1920.0,-0.00243434333242476
2048.0,-0.00391846289858222
2304.0,-0.0006844831514172256
2560.0,0.00031644993578083813
2816.0,0.0013163336552679539
3072.0,0.0001001112032099627
3328.0,-0.0010873913997784257
3584.0,-0.0015495498664677143
3840.0,-0.0006729724700562656
4096.0,0.0003861633886117488
4608.0,0.0010182851692661643
5120.0,-0.0008355182944796979
5632.0,0.0008858949295245111
6144.0,-0.0014593970263376832
6656.0,-0.0015291109448298812
7168.0,0.0023485557176172733
7680.0,0.000530415098182857
8192.0,-0.000388928601751104
9216.0,-0.004483524244278669
10240.0,-0.0006612811121158302
11264.0,0.001967117190361023
12288.0,0.0005131376092322171
13312.0,0.0002517833490855992
14336.0,0.0022080624476075172
end
