version,3.0
numOfCh,1
type,point
parent_name,8-cuts
ch_type,1_1
kcount,1
numberNandB,1
brightnessNandB,1
carpet pos,0
pc,0
Time (ms),CH1 Auto-Correlation
1.0,0.02771887555718422
2.0,0.02714943140745163
3.0,0.026595667004585266
4.0,0.02605004422366619
5.0,0.025517961010336876
6.0,0.02497735247015953
7.0,0.024464093148708344
8.0,0.023974377661943436
9.0,0.02350619249045849
10.0,0.023061158135533333
11.0,0.022624291479587555
12.0,0.022204574197530746
13.0,0.02179635316133499
14.0,0.021403638646006584
15.0,0.02100670523941517
16.0,0.02062658779323101
18.0,0.019866259768605232
20.0,0.019153207540512085
22.0,0.018488295376300812
24.0,0.01788594014942646
26.0,0.017353374511003494
28.0,0.01687077432870865
30.0,0.016427291557192802
32.0,0.01600184477865696
36.0,0.01512183714658022
40.0,0.014296484179794788
44.0,0.013511043973267078
48.0,0.012791278772056103
52.0,0.01215767115354538
56.0,0.011579453945159912
60.0,0.011043975129723549
64.0,0.010501931421458721
72.0,0.009309710003435612
80.0,0.008223423734307289
88.0,0.007339212577790022
96.0,0.0067842439748346806
104.0,0.00653094844892621
112.0,0.0063726711086928844
120.0,0.006197941955178976
128.0,0.005842749960720539
144.0,0.0045616417191922665
160.0,0.003304957179352641
176.0,0.0027241106145083904
192.0,0.002281836699694395
208.0,0.0017698699375614524
224.0,0.0014043976552784443
240.0,0.0014184548053890467
256.0,0.0010118186473846436
288.0,0.0004822103655897081
320.0,0.00048266351222991943
352.0,0.00021189388644415885
384.0,-0.0006428041378967464
416.0,-0.0010017025051638484
448.0,-0.0011727826204150915
480.0,-0.0014029532903805375
512.0,-0.0015844739973545074
576.0,-0.0012582562630996108
640.0,-0.0015309798764064908
704.0,-0.002453153021633625
768.0,-0.0020162644796073437
832.0,-0.0008203163743019104
896.0,-0.00042616980499587953
960.0,5.2634426538133994e-05
1024.0,-0.0021520336158573627
1152.0,-0.0014300027396529913
1280.0,-0.0016271497588604689
1408.0,-0.0018311329185962677
1536.0,-0.0012407158501446247
1664.0,-0.002148261060938239
1792.0,-0.0018196821911260486
1920.0,-0.0015200061025097966
2048.0,-0.00023790236446075141
2304.0,0.000372833339497447
2560.0,6.688520807074383e-05
2816.0,-1.0447110071254428e-05
3072.0,-0.0003579590702429414
3328.0,0.0003799147089011967
3584.0,0.0013467433163896203
3840.0,0.0010521801887080073
4096.0,0.002173901302739978
4608.0,-0.00022089634148869663
5120.0,-0.0026735709980130196
5632.0,0.001033604727126658
6144.0,0.0001180838662548922
6656.0,0.001936337212100625
7168.0,-0.0013979508075863123
7680.0,-0.0019994245376437902
8192.0,-0.001055268687196076
9216.0,0.0022595643531531096
10240.0,-0.0006434074603021145
11264.0,-0.0017300910549238324
12288.0,-0.000340361351845786
13312.0,0.004414763301610947
14336.0,-0.004940349608659744
end
