version,3.0
numOfCh,1
type,point
parent_name,8-cuts
ch_type,1_1
kcount,1
numberNandB,1
brightnessNandB,1
carpet pos,0
pc,0
Time (ms),CH1 Auto-Correlation
1.0,0.018446674570441246
2.0,0.018023204058408737
3.0,0.017612231895327568
4.0,0.017228180542588234
5.0,0.01685497723519802
6.0,0.016498535871505737
7.0,0.016161218285560608
8.0,0.015825912356376648
9.0,0.015499076806008816
10.0,0.01518524531275034
11.0,0.01487661898136139
12.0,0.014572418294847012
13.0,0.014265119098126888
14.0,0.013979505747556686
15.0,0.013712787069380283
16.0,0.013442981988191605
18.0,0.012939383275806904
20.0,0.01248062215745449
22.0,0.012039907276630402
24.0,0.011619050987064838
26.0,0.011217812076210976
28.0,0.010831136256456375
30.0,0.01047319546341896
32.0,0.010130711831152439
36.0,0.009528578259050846
40.0,0.009023034945130348
44.0,0.008590536192059517
48.0,0.008222957141697407
52.0,0.007898152805864811
56.0,0.007590459659695625
60.0,0.007316966541111469
64.0,0.0070318314246833324
72.0,0.00640903552994132
80.0,0.005727593321353197
88.0,0.005042614880949259
96.0,0.004504291340708733
104.0,0.004010248463600874
112.0,0.003525744890794158
120.0,0.0031652632169425488
128.0,0.002933272859081626
144.0,0.002293566707521677
160.0,0.0016467297682538629
176.0,0.0009172276477329433
192.0,0.0005918279057368636
208.0,0.0002143789897672832
224.0,-0.0002877199149224907
240.0,-0.0003050321829505265
256.0,-0.0001505511609138921
288.0,8.293354039778933e-05
320.0,0.00011864011321449652
352.0,0.00017113985086325556
384.0,4.4804211938753724e-05
416.0,0.00017612127703614533
448.0,0.0003186988178640604
480.0,0.0006893259123899043
512.0,0.0010021671187132597
576.0,0.0010846819495782256
640.0,9.06702371139545e-06
704.0,-0.0011262858752161264
768.0,-0.0008163622114807367
832.0,-0.0004520208458416164
896.0,0.0004183434648439288
960.0,0.0006812717765569687
1024.0,-0.0003053682448808104
1152.0,-0.0001738534920150414
1280.0,0.0011093855137005448
1408.0,0.0017497519729658961
1536.0,0.0006067280191928148
1664.0,0.0007148520089685917
1792.0,0.000445484125521034
1920.0,-0.0011517942184582353
2048.0,-0.0012015113607048988
2304.0,-0.0006459929863922298
2560.0,-0.00017246234347112477
2816.0,-0.001072305953130126
3072.0,0.0005582668236456811
3328.0,-0.0003127709496766329
3584.0,-0.0013753677485510707
3840.0,-0.0003394566592760384
4096.0,0.00010790958913275972
4608.0,-0.0004369959351606667
5120.0,-0.0009569431422278285
5632.0,-0.0010634101927280426
6144.0,0.00026841709041036665
6656.0,0.0003974175197072327
7168.0,-0.000504002149682492
7680.0,3.595262751332484e-05
8192.0,0.0011382903903722763
9216.0,0.0006527029327116907
10240.0,0.0008625268237665296
11264.0,-0.0015621630009263754
12288.0,0.0008866384159773588
13312.0,0.0008710425463505089
14336.0,-0.003891166066750884
end
