version,3.0
numOfCh,1
type,point
parent_name,8-cuts
ch_type,1_1
kcount,1
numberNandB,1
brightnessNandB,1
carpet pos,0
pc,0
Time (ms),CH1 Auto-Correlation
1.0,0.04352859780192375
2.0,0.04285925254225731
3.0,0.042209263890981674
4.0,0.041578564792871475
5.0,0.040974974632263184
6.0,0.04040568321943283
7.0,0.03984484449028969
8.0,0.039317838847637177
9.0,0.038824137300252914
10.0,0.03835989162325859
11.0,0.03791513666510582
12.0,0.037473589181900024
13.0,0.03702777996659279
14.0,0.03660742565989494
15.0,0.03619853034615517
16.0,0.03578303009271622
18.0,0.035041164606809616
20.0,0.03432447835803032
22.0,0.03362664580345154
24.0,0.032949935644865036
26.0,0.032315921038389206
28.0,0.03169548511505127
30.0,0.03106060065329075
32.0,0.030434386804699898
36.0,0.029329650104045868
40.0,0.028379036113619804
44.0,0.027512414380908012
48.0,0.026758557185530663
52.0,0.0260367002338171
56.0,0.025372358039021492
60.0,0.024799127131700516
64.0,0.024241477251052856
72.0,0.02305918186903
80.0,0.022014304995536804
88.0,0.021200692281126976
96.0,0.020520169287919998
104.0,0.019977929070591927
112.0,0.019374247640371323
120.0,0.018753506243228912
128.0,0.01827382482588291
144.0,0.017664095386862755
160.0,0.016741815954446793
176.0,0.015425993129611015
192.0,0.014190015383064747
208.0,0.013430328108370304
224.0,0.012563261203467846
240.0,0.011708083562552929
256.0,0.010613973252475262
288.0,0.008184727281332016
320.0,0.006992201786488295
352.0,0.004770893137902021
384.0,0.003481765743345022
416.0,0.0007298140553757548
448.0,-0.0017117331735789776
480.0,-0.0029345473740249872
512.0,-0.0045441510155797005
576.0,-0.004938639234751463
640.0,-0.008047428913414478
704.0,-0.01060575619339943
768.0,-0.00984212290495634
832.0,-0.009149760007858276
896.0,-0.008232432417571545
960.0,-0.006975480820983648
1024.0,-0.006992394104599953
1152.0,-0.0029264786280691624
1280.0,-0.0016214533243328333
1408.0,-0.00024666148237884045
1536.0,-0.0007220663828775287
1664.0,-0.0022816136479377747
1792.0,-0.0024259286001324654
1920.0,-0.0013120878720656037
2048.0,0.0006411588401533663
2304.0,0.0017723310738801956
2560.0,0.003648594953119755
2816.0,0.005261274985969067
3072.0,0.006595088168978691
3328.0,0.001938545610755682
3584.0,-0.0009036337141878903
3840.0,-0.004916133359074593
4096.0,-0.0016705550951883197
4608.0,0.0025772880762815475
5120.0,-0.0009716954664327204
5632.0,-0.002430095337331295
6144.0,0.00155255279969424
6656.0,-0.000904727668967098
7168.0,-0.0011270531686022878
7680.0,0.001941479160450399
8192.0,0.0011298615718260407
9216.0,-0.0013566594570875168
10240.0,0.002540932036936283
11264.0,-0.006732513662427664
12288.0,0.000751787971239537
13312.0,3.199255843355786e-06
14336.0,-0.002396962372586131
end
