version,3.0
numOfCh,1
type,point
parent_name,8-cuts
ch_type,1_1
kcount,1
numberNandB,1
brightnessNandB,1
carpet pos,0
pc,0
Time (ms),CH1 Auto-Correlation
1.0,0.03313964977860451
2.0,0.03250358626246452
3.0,0.03188826143741608
4.0,0.03128872811794281
5.0,0.03071337565779686
6.0,0.03016057051718235
7.0,0.029635580256581306
8.0,0.029128380119800568
9.0,0.028617013245821
10.0,0.02813050150871277
11.0,0.027665529400110245
12.0,0.027201948687434196
13.0,0.02675272710621357
14.0,0.026309575885534286
15.0,0.025878358632326126
16.0,0.025459783151745796
18.0,0.024656161665916443
20.0,0.02389742061495781
22.0,0.0231822207570076
24.0,0.022463349625468254
26.0,0.021759657189249992
28.0,0.02107648365199566
30.0,0.02042483724653721
32.0,0.019824771210551262
36.0,0.018681857734918594
40.0,0.017595505341887474
44.0,0.016625959426164627
48.0,0.015744443982839584
52.0,0.01492555346339941
56.0,0.014184619300067425
60.0,0.01352947112172842
64.0,0.012861562892794609
72.0,0.011709030717611313
80.0,0.010674512013792992
88.0,0.009692111983895302
96.0,0.00886114127933979
104.0,0.00814333651214838
112.0,0.007281935773789883
120.0,0.006295569706708193
128.0,0.005416352301836014
144.0,0.003950583282858133
160.0,0.002800032263621688
176.0,0.0022903101053088903
192.0,0.0018752150936052203
208.0,0.0016037094173952937
224.0,0.0010720851132646203
240.0,0.0006865935283713043
256.0,0.0009671784937381744
288.0,0.0012743989937007427
320.0,0.0004695730749517679
352.0,-0.00025760248536244035
384.0,-4.4955268094781786e-05
416.0,-0.00032739335438236594
448.0,-0.0010043865768238902
480.0,0.00024145359930116683
512.0,0.001683406881056726
576.0,0.00047812872799113393
640.0,0.0006261887610889971
704.0,-0.000159442366566509
768.0,0.00044594984501600266
832.0,0.00026829310809262097
896.0,0.000787857046816498
960.0,0.000942536280490458
1024.0,-0.0006743732374161482
1152.0,-0.0006980593316257
1280.0,-0.00020095733634661883
1408.0,0.000353586656274274
1536.0,0.0009638551855459809
1664.0,-0.000616421748418361
1792.0,-0.0007112507009878755
1920.0,0.001031055231578648
2048.0,0.00041137405787594616
2304.0,0.0023816386237740517
2560.0,0.0018302422249689698
2816.0,-0.001385873882099986
3072.0,0.0010751915397122502
3328.0,-0.0031758942641317844
3584.0,5.1659084419952706e-05
3840.0,-0.0021288429852575064
4096.0,-0.003628904465585947
4608.0,-8.585651812609285e-05
5120.0,-0.0013034561416134238
5632.0,-0.0021865786984562874
6144.0,-0.0027143917977809906
6656.0,-0.00028355285758152604
7168.0,-0.0007589649758301675
7680.0,0.0010798979783430696
8192.0,0.00020240378216840327
9216.0,0.0006508483202196658
10240.0,0.0018266314873471856
11264.0,-0.00016273408255074173
12288.0,-0.0003218555939383805
13312.0,-9.568408859195188e-05
14336.0,0.0002602014283183962
end
