version,3.0
numOfCh,1
type,point
parent_name,8-cuts
ch_type,1_1
kcount,1
numberNandB,1
brightnessNandB,1
carpet pos,0
pc,0
Time (ms),CH1 Auto-Correlation
1.0,0.019484197720885277
2.0,0.01910262741148472
3.0,0.0187238696962595
4.0,0.018361296504735947
5.0,0.018009120598435402
6.0,0.01766887865960598
7.0,0.01734144613146782
8.0,0.017026854678988457
9.0,0.016719341278076172
10.0,0.016410483047366142
11.0,0.016103211790323257
12.0,0.01580464281141758
13.0,0.015518206171691418
14.0,0.015234921127557755
15.0,0.014961213804781437
16.0,0.014695174992084503
18.0,0.014192323200404644
20.0,0.013715004548430443
22.0,0.013265897519886494
24.0,0.012839007191359997
26.0,0.012441130355000496
28.0,0.012070570141077042
30.0,0.01170051284134388
32.0,0.011352208442986012
36.0,0.010730764828622341
40.0,0.010173363611102104
44.0,0.009656581096351147
48.0,0.009192229248583317
52.0,0.008784406818449497
56.0,0.008400171995162964
60.0,0.008075139485299587
64.0,0.007798030506819487
72.0,0.007205795496702194
80.0,0.006659049540758133
88.0,0.006255537271499634
96.0,0.005998374428600073
104.0,0.005835061427205801
112.0,0.005668599158525467
120.0,0.005453777965158224
128.0,0.005242013838142157
144.0,0.004846011754125357
160.0,0.004397752229124308
176.0,0.004156950395554304
192.0,0.003761816071346402
208.0,0.0032046933192759752
224.0,0.002602220047265291
240.0,0.0019328504567965865
256.0,0.0015822886489331722
288.0,0.0015008053742349148
320.0,0.001700294786132872
352.0,0.0011050824541598558
384.0,0.0007480952190235257
416.0,0.0008707428351044655
448.0,0.0006456673727370799
480.0,0.0007950409199111164
512.0,0.0012755128554999828
576.0,0.0009132287814281881
640.0,0.0005628340295515954
704.0,0.00010185797873418778
768.0,-0.0004121360252611339
832.0,-0.0008155683754011989
896.0,-0.0005567184998653829
960.0,-0.0009427060140296817
1024.0,-0.0015140961622819304
1152.0,-0.0008571940124966204
1280.0,-0.0005621992168016732
1408.0,-0.0012358833337202668
1536.0,-0.0008623515604995191
1664.0,-0.00020098889945074916
1792.0,-0.0007697097607888281
1920.0,-0.0015269317664206028
2048.0,-0.0013312142109498382
2304.0,-0.0007422876078635454
2560.0,0.0009522564359940588
2816.0,0.0014887269353494048
3072.0,-0.0010840848553925753
3328.0,-0.00026593432994559407
3584.0,-0.0015773819759488106
3840.0,-0.0010980110382661223
4096.0,-0.002023852663114667
4608.0,-0.0004079047357663512
5120.0,0.00045159965520724654
5632.0,1.2545680874609388e-05
6144.0,0.0010744791943579912
6656.0,-0.0005225892527960241
7168.0,0.0005630876985378563
7680.0,0.0016288466285914183
8192.0,0.0015847071772441268
9216.0,-0.0004902899381704628
10240.0,-0.0014655983541160822
11264.0,0.0010790027445182204
12288.0,-0.001952043967321515
13312.0,-0.0013290632050484419
14336.0,0.0011992549989372492
end
