version,3.0
numOfCh,1
type,point
parent_name,8-cuts
ch_type,1_1
kcount,1
numberNandB,1
brightnessNandB,1
carpet pos,0
pc,0
Time (ms),CH1 Auto-Correlation
1.0,0.022358065471053123
2.0,0.02195633575320244
3.0,0.02157112956047058
4.0,0.021188385784626007
5.0,0.020815202966332436
6.0,0.020459013059735298
7.0,0.02011762373149395
8.0,0.01978270523250103
9.0,0.0194608885794878
10.0,0.019139360636472702
11.0,0.018822219222784042
12.0,0.018508274108171463
13.0,0.018206365406513214
14.0,0.01792249269783497
15.0,0.017653465270996094
16.0,0.017391473054885864
18.0,0.016881069168448448
20.0,0.016392964869737625
22.0,0.015926124528050423
24.0,0.015474848449230194
26.0,0.015019201673567295
28.0,0.014583501033484936
30.0,0.014177568256855011
32.0,0.013804352842271328
36.0,0.01316178496927023
40.0,0.012580095790326595
44.0,0.012040097266435623
48.0,0.011489750817418098
52.0,0.01091583352535963
56.0,0.010342206805944443
60.0,0.00982358492910862
64.0,0.009351189248263836
72.0,0.00859514344483614
80.0,0.0078068505972623825
88.0,0.0071137091144919395
96.0,0.006669051479548216
104.0,0.006237191613763571
112.0,0.005852535832673311
120.0,0.005611528176814318
128.0,0.005358493886888027
144.0,0.004884714726358652
160.0,0.0046610152348876
176.0,0.00449742004275322
192.0,0.004129128530621529
208.0,0.003485440043732524
224.0,0.003166999900713563
240.0,0.003286261111497879
256.0,0.00318792462348938
288.0,0.0026296323630958796
320.0,0.002623690525069833
352.0,0.0021596879232674837
384.0,0.0013926858082413673
416.0,0.0009827170288190246
448.0,-5.498400787473656e-05
480.0,-0.00048516789684072137
512.0,-0.00033166163484565914
576.0,0.0006203106604516506
640.0,-0.00018281975644640625
704.0,0.0002994753886014223
768.0,0.0011808493873104453
832.0,-0.0006169644184410572
896.0,-0.0005361358635127544
960.0,-0.0006158702308312058
1024.0,-0.000997668830677867
1152.0,-0.0008409709553234279
1280.0,-0.001062328228726983
1408.0,-0.0007250221678987145
1536.0,0.0012373318895697594
1664.0,0.0026690163649618626
1792.0,0.0028473520651459694
1920.0,0.001774272182956338
2048.0,-0.00017018869402818382
2304.0,-0.0007744437898509204
2560.0,-0.00033744823304004967
2816.0,-0.0021112507674843073
3072.0,-0.00035690789809450507
3328.0,0.0025876136496663094
3584.0,-0.0003991565899923444
3840.0,-0.0024703145027160645
4096.0,-0.0011423436226323247
4608.0,-0.0010433266870677471
5120.0,-0.0004485211684368551
5632.0,-0.001869061728939414
6144.0,-0.0015079004224389791
6656.0,0.000843293615616858
7168.0,-0.002966182539239526
7680.0,-0.0008230042294599116
8192.0,0.0007439262117259204
9216.0,0.001102725393138826
10240.0,0.0009597583557479084
11264.0,0.00028700020629912615
12288.0,0.001419896725565195
13312.0,0.0002381728118052706
14336.0,-0.0011535873636603355
end
