version,3.0
numOfCh,1
type,point
parent_name,8-cuts
ch_type,1_1
kcount,1
numberNandB,1
brightnessNandB,1
carpet pos,0
pc,0
Time (ms),CH1 Auto-Correlation
1.0,0.03080735355615616
2.0,0.030224662274122238
3.0,0.02964513562619686
4.0,0.02907460927963257
5.0,0.028523216024041176
6.0,0.027995239943265915
7.0,0.027477672323584557
8.0,0.026978731155395508
9.0,0.02650357596576214
10.0,0.02603917568922043
11.0,0.025597792118787766
12.0,0.025161121040582657
13.0,0.024743612855672836
14.0,0.024337323382496834
15.0,0.023938072845339775
16.0,0.023540416732430458
18.0,0.022763945162296295
20.0,0.022009259089827538
22.0,0.021268662065267563
24.0,0.020546576008200645
26.0,0.019860215485095978
28.0,0.01917845942080021
30.0,0.01850234717130661
32.0,0.017840638756752014
36.0,0.016593214124441147
40.0,0.015415634028613567
44.0,0.014377068728208542
48.0,0.013496490195393562
52.0,0.012685813941061497
56.0,0.012027585878968239
60.0,0.011437891982495785
64.0,0.010875151492655277
72.0,0.00978612806648016
80.0,0.008762906305491924
88.0,0.007748373784124851
96.0,0.0069134351797401905
104.0,0.006123635917901993
112.0,0.005300422664731741
120.0,0.004500092938542366
128.0,0.003820565063506365
144.0,0.0032232480589300394
160.0,0.003065399592742324
176.0,0.0033129961229860783
192.0,0.003457985119894147
208.0,0.0032804638613015413
224.0,0.0030948410276323557
240.0,0.0033663203939795494
256.0,0.0035934981424361467
288.0,0.0035023095551878214
320.0,0.0036854720674455166
352.0,0.0036979103460907936
384.0,0.0022128047421574593
416.0,0.0015417496906593442
448.0,0.0014569300692528486
480.0,0.0008333696168847382
512.0,-0.0001519039215054363
576.0,-0.0017641644226387143
640.0,-0.0024103056639432907
704.0,-0.002453682478517294
768.0,-0.0033590628299862146
832.0,-0.004157331306487322
896.0,-0.0036630271933972836
960.0,-0.0012604782823473215
1024.0,-3.61140955646988e-05
1152.0,-0.0002431475295452401
1280.0,-0.0009398849797435105
1408.0,0.002413036534562707
1536.0,0.0016730021452531219
1664.0,-4.5146556658437476e-05
1792.0,-0.0006990899564698339
1920.0,-0.0009847936453297734
2048.0,-0.0012368708848953247
2304.0,0.001193966600112617
2560.0,0.001863140962086618
2816.0,0.0021177525632083416
3072.0,0.00042186654172837734
3328.0,2.4078826754703186e-05
3584.0,-0.0012316021602600813
3840.0,-0.0014960910193622112
4096.0,-0.0020172186195850372
4608.0,-0.0019753111992031336
5120.0,0.0004132611502427608
5632.0,0.0010721717262640595
6144.0,-0.0011722455965355039
6656.0,0.001626916928216815
7168.0,-0.00034720616531558335
7680.0,-7.822936458978802e-05
8192.0,0.0012315677013248205
9216.0,-0.0010010243859142065
10240.0,-0.0007804760243743658
11264.0,-0.002091709990054369
12288.0,0.0003251774760428816
13312.0,-0.0014609199715778232
14336.0,-0.00038567694718949497
end
