version,3.0
numOfCh,1
type,point
parent_name,8-cuts
ch_type,1_1
kcount,1
numberNandB,1
brightnessNandB,1
carpet pos,0
pc,0
Time (ms),CH1 Auto-Correlation
1.0,0.06496375054121017
2.0,0.06377299875020981
3.0,0.06260804086923599
4.0,0.06145529821515083
5.0,0.06033017486333847
6.0,0.05924176052212715
7.0,0.05817660316824913
8.0,0.05714930593967438
9.0,0.05617053061723709
10.0,0.05523695424199104
11.0,0.05434408783912659
12.0,0.05345919355750084
13.0,0.052606742829084396
14.0,0.05177536606788635
15.0,0.05094200000166893
16.0,0.0501357764005661
18.0,0.048624973744153976
20.0,0.04717682674527168
22.0,0.0458127036690712
24.0,0.04458371922373772
26.0,0.043404221534729004
28.0,0.042291171848773956
30.0,0.041183628141880035
32.0,0.040085405111312866
36.0,0.037854183465242386
40.0,0.03582961484789848
44.0,0.03404221683740616
48.0,0.03256242722272873
52.0,0.03107096627354622
56.0,0.029643645510077477
60.0,0.028256068006157875
64.0,0.02701595425605774
72.0,0.025059768930077553
80.0,0.023281211033463478
88.0,0.0212763212621212
96.0,0.019672909751534462
104.0,0.018100105226039886
112.0,0.016555288806557655
120.0,0.01493284571915865
128.0,0.01331983134150505
144.0,0.010979237966239452
160.0,0.010475585237145424
176.0,0.01073874905705452
192.0,0.010593624785542488
208.0,0.009722596034407616
224.0,0.009327623061835766
240.0,0.009455900639295578
256.0,0.00903506949543953
288.0,0.007525397930294275
320.0,0.007784772198647261
352.0,0.007465531583875418
384.0,0.005132535006850958
416.0,0.0041465177200734615
448.0,0.0029987546149641275
480.0,-0.000383811624487862
512.0,-0.0005975213716737926
576.0,0.001257077557966113
640.0,-0.0030802919063717127
704.0,-0.006793141830712557
768.0,-0.006390492897480726
832.0,-0.005724852439016104
896.0,-0.005184021312743425
960.0,-0.004985727835446596
1024.0,-0.00414274400100112
1152.0,-0.005344697739928961
1280.0,-0.0024335868656635284
1408.0,-0.004578647669404745
1536.0,-0.00012846464233007282
1664.0,-0.0007129141595214605
1792.0,0.0011901839170604944
1920.0,0.005685929208993912
2048.0,0.004411002155393362
2304.0,0.0008037264342419803
2560.0,-0.002183576812967658
2816.0,6.996962474659085e-05
3072.0,-0.0010443376377224922
3328.0,-0.005306071601808071
3584.0,-0.00801987573504448
3840.0,-0.005416453815996647
4096.0,-0.0019963006488978863
4608.0,0.0037932314444333315
5120.0,-0.0004482274525798857
5632.0,-0.0040068356320261955
6144.0,-0.0031264852732419968
6656.0,0.0017510221805423498
7168.0,-0.0008744318620301783
7680.0,0.0031343463342636824
8192.0,0.0026971863117069006
9216.0,0.0001409631222486496
10240.0,-0.0024542456958442926
11264.0,-0.0025832741521298885
12288.0,0.0030288645066320896
13312.0,-0.00011690297105815262
14336.0,0.0022120545618236065
end
