version,3.0
numOfCh,1
type,point
parent_name,8-cuts
ch_type,1_1
kcount,1
numberNandB,1
brightnessNandB,1
carpet pos,0
pc,0
Time (ms),CH1 Auto-Correlation
1.0,0.018195416778326035
2.0,0.01782919652760029
3.0,0.017480723559856415
4.0,0.01714753359556198
5.0,0.016830945387482643
6.0,0.016526103019714355
7.0,0.01622946560382843
8.0,0.015931975096464157
9.0,0.015642158687114716
10.0,0.01536206528544426
11.0,0.01509022619575262
12.0,0.014830964617431164
13.0,0.014574121683835983
14.0,0.01431512925773859
15.0,0.014065373688936234
16.0,0.01381850615143776
18.0,0.01333994884043932
20.0,0.012879413552582264
22.0,0.012439776211977005
24.0,0.012043796479701996
26.0,0.011686059646308422
28.0,0.011362524703145027
30.0,0.011040568351745605
32.0,0.010721874423325062
36.0,0.010130269452929497
40.0,0.009581096470355988
44.0,0.009086345322430134
48.0,0.008621088229119778
52.0,0.008169641718268394
56.0,0.007765856571495533
60.0,0.007437718100845814
64.0,0.007118466775864363
72.0,0.006399418227374554
80.0,0.005811970680952072
88.0,0.005337476264685392
96.0,0.004948497284203768
104.0,0.004579681903123856
112.0,0.004169761668890715
120.0,0.0038023001980036497
128.0,0.00342113827355206
144.0,0.002578386105597019
160.0,0.001752206007950008
176.0,0.001066228374838829
192.0,0.00042671640403568745
208.0,-0.00011577677651075646
224.0,-0.0003902704338543117
240.0,-0.0003230033617001027
256.0,-4.718146738014184e-05
288.0,0.00040548472316004336
320.0,0.00016493548173457384
352.0,-0.000102107303973753
384.0,-0.0002435495116515085
416.0,-0.00025520057533867657
448.0,-1.338943729933817e-05
480.0,0.00010774582187877968
512.0,0.00033221530611626804
576.0,0.0004829121462535113
640.0,1.347465058643138e-05
704.0,2.90308307739906e-05
768.0,0.0005154597456566989
832.0,0.0012087925570085645
896.0,0.0014875840861350298
960.0,0.001298751449212432
1024.0,0.0007708272896707058
1152.0,-0.0009341390687040985
1280.0,-0.0010255216620862484
1408.0,-0.00011437918146839365
1536.0,-0.00017537885287310928
1664.0,-0.0004848744429182261
1792.0,-0.0001670584169914946
1920.0,0.00015697540948167443
2048.0,-0.0012247251579537988
2304.0,-9.836578101385385e-05
2560.0,0.0006585136288776994
2816.0,0.0006803115247748792
3072.0,-0.0008697976591065526
3328.0,-0.0019182096002623439
3584.0,0.0006627078983001411
3840.0,-5.653254265780561e-05
4096.0,-0.0008601013687439263
4608.0,-5.688934470526874e-05
5120.0,-0.0003397315158508718
5632.0,-0.0010442399652674794
6144.0,-0.00015557196456938982
6656.0,-0.0007378934533335268
7168.0,-0.00013904841034673154
7680.0,-0.000763092131819576
8192.0,-0.0017589532071724534
9216.0,-7.156107312766835e-05
10240.0,-0.0002927161694969982
11264.0,0.0024421506095677614
12288.0,4.5084161683917046e-05
13312.0,0.0005376906483434141
14336.0,-0.002401779405772686
end
