version,3.0
numOfCh,1
type,point
parent_name,8-cuts
ch_type,1_1
kcount,1
numberNandB,1
brightnessNandB,1
carpet pos,0
pc,0
Time (ms),CH1 Auto-Correlation
1.0,0.0221750158816576
2.0,0.02180112712085247
3.0,0.021443679928779602
4.0,0.02109704352915287
5.0,0.020762775093317032
6.0,0.020444462075829506
7.0,0.020137248560786247
8.0,0.019838711246848106
9.0,0.01954778842628002
10.0,0.01926940493285656
11.0,0.018994955345988274
12.0,0.01872747391462326
13.0,0.01846381090581417
14.0,0.018203869462013245
15.0,0.017946889623999596
16.0,0.017698384821414948
18.0,0.017222851514816284
20.0,0.016781236976385117
22.0,0.016369802877306938
24.0,0.015985192731022835
26.0,0.015584034845232964
28.0,0.015213078819215298
30.0,0.014848983846604824
32.0,0.014474606141448021
36.0,0.013777695596218109
40.0,0.013172052800655365
44.0,0.012615859508514404
48.0,0.01212396938353777
52.0,0.011700745671987534
56.0,0.011302829720079899
60.0,0.010902444832026958
64.0,0.010474133305251598
72.0,0.009635007940232754
80.0,0.00882825255393982
88.0,0.008151854388415813
96.0,0.007537325844168663
104.0,0.0070065842010080814
112.0,0.006581103429198265
120.0,0.006121400743722916
128.0,0.0056047202087938786
144.0,0.004733644425868988
160.0,0.00408613495528698
176.0,0.0036931296344846487
192.0,0.0034969919361174107
208.0,0.003538186429068446
224.0,0.0035959496162831783
240.0,0.003715336322784424
256.0,0.0038519222289323807
288.0,0.004326270427554846
320.0,0.004599277395755053
352.0,0.0048499442636966705
384.0,0.004518202040344477
416.0,0.004121480975300074
448.0,0.0036716272588819265
480.0,0.003312022192403674
512.0,0.0029675173573195934
576.0,0.0014225825434550643
640.0,0.0006415806128643453
704.0,-0.0003868037019856274
768.0,-0.0012107731308788061
832.0,-0.0018916291883215308
896.0,-0.001802882761694491
960.0,-0.0017984326696023345
1024.0,-0.001970716053619981
1152.0,-0.0017124806763604283
1280.0,-0.002759185153990984
1408.0,-0.003325382247567177
1536.0,-0.002606850117444992
1664.0,-0.0020582769066095352
1792.0,-0.0018465970642864704
1920.0,-0.002956104464828968
2048.0,-0.004136943258345127
2304.0,-0.0033335338812321424
2560.0,-0.0008964259177446365
2816.0,-0.0006552654085680842
3072.0,0.0010405565844848752
3328.0,0.0010212012566626072
3584.0,0.0011305607622489333
3840.0,0.00018137686129193753
4096.0,0.00010578457295196131
4608.0,0.0013324376195669174
5120.0,0.0007784974295645952
5632.0,-0.0004699127748608589
6144.0,0.0006164454389363527
6656.0,0.0005369625869207084
7168.0,-0.001821922487579286
7680.0,-0.002095142612233758
8192.0,-0.0025264504365622997
9216.0,0.0025464165955781937
10240.0,0.003125532064586878
11264.0,-0.00501002324745059
12288.0,-0.001452858094125986
13312.0,0.003785972483456135
14336.0,0.002620191313326359
end
