version,3.0
numOfCh,1
type,point
parent_name,8-cuts
ch_type,1_1
kcount,1
numberNandB,1
brightnessNandB,1
carpet pos,0
pc,0
Time (ms),CH1 Auto-Correlation
1.0,0.018229534849524498
2.0,0.01785370334982872
3.0,0.017481058835983276
4.0,0.017118094488978386
5.0,0.016777368262410164
6.0,0.016455983743071556
7.0,0.016145093366503716
8.0,0.01584629900753498
9.0,0.015557067468762398
10.0,0.015285185538232327
11.0,0.015024575404822826
12.0,0.014766954816877842
13.0,0.01452474296092987
14.0,0.014292912557721138
15.0,0.014078051783144474
16.0,0.013874967582523823
18.0,0.01350425649434328
20.0,0.01314608845859766
22.0,0.012780801393091679
24.0,0.012415589764714241
26.0,0.01205320656299591
28.0,0.011692332103848457
30.0,0.011354885064065456
32.0,0.011016394011676311
36.0,0.010375323705375195
40.0,0.009778805077075958
44.0,0.009198395535349846
48.0,0.00866219773888588
52.0,0.00815101433545351
56.0,0.00768880033865571
60.0,0.00727231428027153
64.0,0.0069157895632088184
72.0,0.006396074779331684
80.0,0.005868555046617985
88.0,0.005372632760554552
96.0,0.0050153047777712345
104.0,0.004633714444935322
112.0,0.0042509231716394424
120.0,0.003957624081522226
128.0,0.003769185394048691
144.0,0.0035374502185732126
160.0,0.0033686303067952394
176.0,0.003077763132750988
192.0,0.002745714271441102
208.0,0.0023398925550282
224.0,0.001822462654672563
240.0,0.0014917178777977824
256.0,0.0013040053891018033
288.0,0.0012655691243708134
320.0,0.001373473322018981
352.0,0.0008905985741876066
384.0,0.00010739774006651714
416.0,-0.00019562871602829546
448.0,-0.00024200655752792954
480.0,-1.1225596608710475e-05
512.0,2.2087207980803214e-05
576.0,0.000563636829610914
640.0,0.0006857250118628144
704.0,0.0008303145878016949
768.0,0.00046518968883901834
832.0,0.00034220528323203325
896.0,0.0001881732459878549
960.0,-0.00013427012891042978
1024.0,-0.00034391472581773996
1152.0,-0.0004627934249583632
1280.0,0.0014972506323829293
1408.0,0.0004939541686326265
1536.0,-0.00010669442417565733
1664.0,-0.0006866849143989384
1792.0,-0.0010372601682320237
1920.0,-0.0006506250938400626
2048.0,-0.0012111037503927946
2304.0,-5.2850995416520163e-05
2560.0,0.000627986912149936
2816.0,-0.000564549642149359
3072.0,-0.002443285658955574
3328.0,-0.0012090110685676336
3584.0,-0.00010534989996813238
3840.0,-0.0006652299198321998
4096.0,-0.00149916869122535
4608.0,-0.0006423663580790162
5120.0,0.002065968932583928
5632.0,0.0011273283744230866
6144.0,0.002227409277111292
6656.0,-0.0003164610534440726
7168.0,-0.00016419202438555658
7680.0,-0.0011777111794799566
8192.0,-0.0017053635092452168
9216.0,-0.0009426219621673226
10240.0,-0.00220392900519073
11264.0,0.0011681768810376525
12288.0,-0.000338537385687232
13312.0,0.0011631754459813237
14336.0,0.0007988766301423311
end
