version,3.0
numOfCh,1
type,point
parent_name,8-cuts
ch_type,1_1
kcount,1
numberNandB,1
brightnessNandB,1
carpet pos,0
pc,0
Time (ms),CH1 Auto-Correlation
1.0,0.020955534651875496
2.0,0.020536234602332115
3.0,0.020129652693867683
4.0,0.019734526053071022
5.0,0.019349200651049614
6.0,0.01897556148469448
7.0,0.018619336187839508
8.0,0.018278151750564575
9.0,0.01795080676674843
10.0,0.017642036080360413
11.0,0.017344050109386444
12.0,0.017056401818990707
13.0,0.016770819202065468
14.0,0.0164896659553051
15.0,0.016202861443161964
16.0,0.015924254432320595
18.0,0.015370414592325687
20.0,0.014848906546831131
22.0,0.014350635930895805
24.0,0.013871806673705578
26.0,0.013416296802461147
28.0,0.012980843894183636
30.0,0.012566477991640568
32.0,0.012179316021502018
36.0,0.011482879519462585
40.0,0.01086434070020914
44.0,0.010308920405805111
48.0,0.009849240072071552
52.0,0.00949577521532774
56.0,0.009181325323879719
60.0,0.008871057070791721
64.0,0.008557991124689579
72.0,0.007970629259943962
80.0,0.007361934520304203
88.0,0.00684211403131485
96.0,0.0064017279073596
104.0,0.005947288125753403
112.0,0.005436799023300409
120.0,0.004922124557197094
128.0,0.004635626915842295
144.0,0.004220365546643734
160.0,0.0038651805371046066
176.0,0.003498181700706482
192.0,0.0031921740155667067
208.0,0.003153664292767644
224.0,0.003027699189260602
240.0,0.0027178137097507715
256.0,0.0027331935707479715
288.0,0.0025893463753163815
320.0,0.0019629078451544046
352.0,0.0009514863486401737
384.0,0.0009777400409802794
416.0,0.0008353472221642733
448.0,0.00023819087073206902
480.0,-0.00028749436023645103
512.0,-0.0003336459049023688
576.0,-0.0008001849055290222
640.0,-0.0008092824136838317
704.0,-0.0003897756105288863
768.0,-0.001565956394188106
832.0,-0.0018246711697429419
896.0,-0.0014825807884335518
960.0,-0.0006194360903464258
1024.0,-0.0006494629196822643
1152.0,-0.0007091698353178799
1280.0,-0.0010138660436496139
1408.0,-0.0003577684983611107
1536.0,0.0007914722082205117
1664.0,0.001152730081230402
1792.0,0.0003550599794834852
1920.0,-0.0004063245723955333
2048.0,-0.0008836932829581201
2304.0,-0.00022593642643187195
2560.0,-0.0008788423147052526
2816.0,-0.0006531057879328728
3072.0,0.0005070706829428673
3328.0,0.0022617806680500507
3584.0,0.001465636189095676
3840.0,-0.0001277896371902898
4096.0,-0.00016036853776313365
4608.0,-0.0005386850680224597
5120.0,-0.0017047722358256578
5632.0,-0.003128211246803403
6144.0,-0.0009753361227922142
6656.0,0.0002529065532144159
7168.0,-0.0011018859222531319
7680.0,0.0008082715212367475
8192.0,0.002121069934219122
9216.0,-0.0012126800138503313
10240.0,0.00047575755161233246
11264.0,0.0016323685413226485
12288.0,-0.0010659644613042474
13312.0,-7.893511792644858e-05
14336.0,0.0010184110142290592
end
