version,3.0
numOfCh,1
type,point
parent_name,8-cuts
ch_type,1_1
kcount,1
numberNandB,1
brightnessNandB,1
carpet pos,0
pc,0
Time (ms),CH1 Auto-Correlation
1.0,0.02943352609872818
2.0,0.028818683698773384
3.0,0.028227081522345543
4.0,0.027661750093102455
5.0,0.027108024805784225
6.0,0.026560300961136818
7.0,0.026015708222985268
8.0,0.025497792288661003
9.0,0.02502029575407505
10.0,0.024550536647439003
11.0,0.02410038188099861
12.0,0.023655928671360016
13.0,0.02322126366198063
14.0,0.02280573919415474
15.0,0.02240276336669922
16.0,0.022021645680069923
18.0,0.021286746487021446
20.0,0.0205710269510746
22.0,0.019922994077205658
24.0,0.019321812316775322
26.0,0.018775073811411858
28.0,0.018262028694152832
30.0,0.017721908167004585
32.0,0.017181040719151497
36.0,0.01617826707661152
40.0,0.015253514051437378
44.0,0.01433743629604578
48.0,0.013468015938997269
52.0,0.012682466767728329
56.0,0.012046433053910732
60.0,0.011482630856335163
64.0,0.010895880870521069
72.0,0.009777558967471123
80.0,0.008790050633251667
88.0,0.007922867313027382
96.0,0.007402033545076847
104.0,0.006887324154376984
112.0,0.006437258329242468
120.0,0.006270235870033503
128.0,0.006360435392707586
144.0,0.006541296374052763
160.0,0.006360918283462524
176.0,0.006240050308406353
192.0,0.005855615250766277
208.0,0.005527314729988575
224.0,0.005533392075449228
240.0,0.005616163834929466
256.0,0.00573467742651701
288.0,0.005681137088686228
320.0,0.005698064342141151
352.0,0.005401948932558298
384.0,0.00495947664603591
416.0,0.00385858491063118
448.0,0.002583511872217059
480.0,0.0016459543257951736
512.0,0.0020905376877635717
576.0,0.0017873290926218033
640.0,0.001884214929305017
704.0,0.0015747578581795096
768.0,0.0026717078872025013
832.0,0.0037997388280928135
896.0,0.0020725070498883724
960.0,2.4701961592654698e-05
1024.0,0.00020054417836945504
1152.0,0.0021084160543978214
1280.0,0.0009503340115770698
1408.0,0.0025316905230283737
1536.0,0.0024878408294171095
1664.0,0.0005900282994844019
1792.0,0.0008166873594745994
1920.0,0.0011399576906114817
2048.0,0.0018263637321069837
2304.0,0.0021285268012434244
2560.0,-0.0001888891711132601
2816.0,0.0005856116767972708
3072.0,0.0018087371718138456
3328.0,0.002707613864913583
3584.0,0.002183145610615611
3840.0,0.002358402358368039
4096.0,-0.00030985314515419304
4608.0,0.00015050008369144052
5120.0,-0.000548555632121861
5632.0,-0.0008673290139995515
6144.0,-0.0031369253993034363
6656.0,-0.0031562589574605227
7168.0,-0.001778672682121396
7680.0,-0.0039751543663442135
8192.0,-0.003594612702727318
9216.0,-0.002839370397850871
10240.0,-0.00229325657710433
11264.0,-0.004384216852486134
12288.0,-0.0018800724064931273
13312.0,0.0003932604449801147
14336.0,0.0027636380400508642
end
