version,3.0
numOfCh,1
type,point
parent_name,8-cuts
ch_type,1_1
kcount,1
numberNandB,1
brightnessNandB,1
carpet pos,0
pc,0
Time (ms),CH1 Auto-Correlation
1.0,0.0685378760099411
2.0,0.06727080792188644
3.0,0.06602572649717331
4.0,0.06481342017650604
5.0,0.06364766508340836
6.0,0.06250081956386566
7.0,0.06139880046248436
8.0,0.06036292761564255
9.0,0.05939353629946709
10.0,0.05849137157201767
11.0,0.05762747675180435
12.0,0.056767310947179794
13.0,0.05590280145406723
14.0,0.05503585562109947
15.0,0.05421574041247368
16.0,0.05340718477964401
18.0,0.051898710429668427
20.0,0.05049235001206398
22.0,0.04917537048459053
24.0,0.047871630638837814
26.0,0.04656982421875
28.0,0.04523848369717598
30.0,0.043982695788145065
32.0,0.04280867800116539
36.0,0.0407860167324543
40.0,0.039140041917562485
44.0,0.03770867735147476
48.0,0.036424677819013596
52.0,0.035381123423576355
56.0,0.03462442010641098
60.0,0.033928561955690384
64.0,0.03302648290991783
72.0,0.031443506479263306
80.0,0.029961636289954185
88.0,0.028365034610033035
96.0,0.026545647531747818
104.0,0.024821564555168152
112.0,0.023271283134818077
120.0,0.02220158651471138
128.0,0.021320905536413193
144.0,0.01940234750509262
160.0,0.017117228358983994
176.0,0.015069011598825455
192.0,0.013407503254711628
208.0,0.012229586951434612
224.0,0.011727944947779179
240.0,0.011102419346570969
256.0,0.011365790851414204
288.0,0.010032379999756813
320.0,0.008596744388341904
352.0,0.009006972424685955
384.0,0.008612743578851223
416.0,0.009357468225061893
448.0,0.01096303015947342
480.0,0.01120216865092516
512.0,0.012835645116865635
576.0,0.01442704163491726
640.0,0.01599215716123581
704.0,0.014657669700682163
768.0,0.011472112499177456
832.0,0.007626130245625973
896.0,0.005623743403702974
960.0,0.004919047001749277
1024.0,0.006518281996250153
1152.0,0.009364611469209194
1280.0,0.010859050787985325
1408.0,0.010962264612317085
1536.0,0.009315754286944866
1664.0,0.006257856264710426
1792.0,0.009301538579165936
1920.0,0.0073679592460393906
2048.0,0.0038844854570925236
2304.0,0.004391942173242569
2560.0,0.0015489141223952174
2816.0,0.00034653229522518814
3072.0,-0.0034530034754425287
3328.0,-0.006932710763067007
3584.0,-0.004801217932254076
3840.0,-0.0032121676485985518
4096.0,-0.004799547605216503
4608.0,-0.003915080334991217
5120.0,-0.007103272248059511
5632.0,-0.009480159729719162
6144.0,-0.008072885684669018
6656.0,-0.010992473922669888
7168.0,-0.012046514078974724
7680.0,-0.009555386379361153
8192.0,-0.012958521023392677
9216.0,-0.005357807967811823
10240.0,0.002605213550850749
11264.0,0.015319236554205418
12288.0,0.008981558494269848
13312.0,0.00029648549389094114
14336.0,-0.006262195762246847
end
