version,3.0
numOfCh,1
type,point
parent_name,8-cuts
ch_type,1_1
kcount,1
numberNandB,1
brightnessNandB,1
carpet pos,0
pc,0
Time (ms),CH1 Auto-Correlation
1.0,0.05898526310920715
2.0,0.05773390084505081
3.0,0.05649248883128166
4.0,0.05529347434639931
5.0,0.054144974797964096
6.0,0.05303836986422539
7.0,0.05198090150952339
8.0,0.050974614918231964
9.0,0.05002058669924736
10.0,0.049082834273576736
11.0,0.04815969988703728
12.0,0.047271665185689926
13.0,0.046410806477069855
14.0,0.04555876553058624
15.0,0.044724322855472565
16.0,0.04394926503300667
18.0,0.042558956891298294
20.0,0.04119708016514778
22.0,0.03985247015953064
24.0,0.038561973720788956
26.0,0.03737500309944153
28.0,0.036235686391592026
30.0,0.03510630875825882
32.0,0.03399406746029854
36.0,0.03186216950416565
40.0,0.02991599030792713
44.0,0.028166307136416435
48.0,0.026643773540854454
52.0,0.02508523501455784
56.0,0.023523205891251564
60.0,0.022194907069206238
64.0,0.02091960608959198
72.0,0.018038343638181686
80.0,0.015700630843639374
88.0,0.014045787043869495
96.0,0.01261784229427576
104.0,0.011468285694718361
112.0,0.010726841166615486
120.0,0.009865564294159412
128.0,0.008548774756491184
144.0,0.0070655872114002705
160.0,0.00703695323318243
176.0,0.006659065373241901
192.0,0.006174939684569836
208.0,0.006297942716628313
224.0,0.005786805413663387
240.0,0.0055897971615195274
256.0,0.006122240796685219
288.0,0.005928408354520798
320.0,0.0025371487718075514
352.0,0.0005170379881747067
384.0,-1.8872447981266305e-05
416.0,0.00017579118139110506
448.0,-0.0006746542057953775
480.0,-0.0025871051475405693
512.0,-0.004455250222235918
576.0,-0.0012130496324971318
640.0,0.003201458603143692
704.0,0.001470416085794568
768.0,-0.0037069134414196014
832.0,-0.004243132192641497
896.0,-0.0018552448600530624
960.0,-0.002782038878649473
1024.0,-0.0058096908032894135
1152.0,-0.005230453331023455
1280.0,0.0006078105070628226
1408.0,0.0006743670091964304
1536.0,0.0030823496636003256
1664.0,0.00041146480361931026
1792.0,-0.0003891364031005651
1920.0,0.00319283502176404
2048.0,0.0030112063977867365
2304.0,0.0025711755733937025
2560.0,-0.0016453060088679194
2816.0,-0.0004905950627289712
3072.0,-0.0036106575280427933
3328.0,-0.005425026640295982
3584.0,-0.003028457285836339
3840.0,-0.003288408275693655
4096.0,0.0003320829418953508
4608.0,-0.002378456061705947
5120.0,0.00031580732320435345
5632.0,0.001156248734332621
6144.0,-0.004487987607717514
6656.0,0.0007365280180238187
7168.0,0.003721530782058835
7680.0,-0.0031191096641123295
8192.0,-0.00412243977189064
9216.0,0.004447360523045063
10240.0,-0.0010679186088964343
11264.0,0.002288282150402665
12288.0,0.0025835309643298388
13312.0,0.002088185865432024
14336.0,-0.0042335763573646545
end
