version,3.0
numOfCh,1
type,point
parent_name,8-cuts
ch_type,1_1
kcount,1
numberNandB,1
brightnessNandB,1
carpet pos,0
pc,0
Time (ms),CH1 Auto-Correlation
1.0,0.03975255787372589
2.0,0.039143867790699005
3.0,0.03854983299970627
4.0,0.037981510162353516
5.0,0.03742196410894394
6.0,0.03688037395477295
7.0,0.036350127309560776
8.0,0.03583921864628792
9.0,0.035349804908037186
10.0,0.03487854078412056
11.0,0.034419167786836624
12.0,0.033981963992118835
13.0,0.03355450555682182
14.0,0.033133599907159805
15.0,0.03271326422691345
16.0,0.0323014073073864
18.0,0.03154013678431511
20.0,0.030799882486462593
22.0,0.030074546113610268
24.0,0.029382340610027313
26.0,0.028716880828142166
28.0,0.028106043115258217
30.0,0.027570758014917374
32.0,0.027040349319577217
36.0,0.02596794068813324
40.0,0.024947693571448326
44.0,0.023945732042193413
48.0,0.0229761004447937
52.0,0.02208445966243744
56.0,0.021317461505532265
60.0,0.02055496908724308
64.0,0.019727136939764023
72.0,0.018155107274651527
80.0,0.016787709668278694
88.0,0.015596555545926094
96.0,0.014555567875504494
104.0,0.013822286389768124
112.0,0.013243226334452629
120.0,0.012800010852515697
128.0,0.012330395169556141
144.0,0.01127111166715622
160.0,0.010100032202899456
176.0,0.009142703376710415
192.0,0.00864302646368742
208.0,0.008200835436582565
224.0,0.008484438993036747
240.0,0.008533595129847527
256.0,0.008213200606405735
288.0,0.006843529175966978
320.0,0.005405128467828035
352.0,0.0036843474954366684
384.0,0.002749750856310129
416.0,0.0016567958518862724
448.0,-1.2758415323332883e-05
480.0,-0.001267873216420412
512.0,-0.0018616915913298726
576.0,-0.0034492607228457928
640.0,-0.004497954156249762
704.0,-0.004446174018085003
768.0,-0.002613765187561512
832.0,-0.0023757009766995907
896.0,-0.002484034514054656
960.0,-0.0023472930770367384
1024.0,-0.0001647901372052729
1152.0,0.002199098700657487
1280.0,0.0027506789192557335
1408.0,0.0014991357456892729
1536.0,0.00044105431879870594
1664.0,-0.0019651225302368402
1792.0,-0.0007294173119589686
1920.0,0.0018116519786417484
2048.0,0.000886304012965411
2304.0,-0.001171258045360446
2560.0,-0.006095412187278271
2816.0,-0.006156133022159338
3072.0,6.0296206356724724e-05
3328.0,-0.0001928805431816727
3584.0,-0.002225368982180953
3840.0,-0.003536742180585861
4096.0,-0.0044763037003576756
4608.0,-0.0005226219655014575
5120.0,0.00415254570543766
5632.0,0.0004594541678670794
6144.0,-0.003052949206903577
6656.0,0.0021210573613643646
7168.0,0.0023575087543576956
7680.0,-0.004587057512253523
8192.0,0.0005314328009262681
9216.0,0.0021071420051157475
10240.0,0.0021285521797835827
11264.0,0.0002979051787406206
12288.0,-0.0025955173186957836
13312.0,-0.01205290388315916
14336.0,0.0025340369902551174
end
