version,3.0
numOfCh,1
type,point
parent_name,8-cuts
ch_type,1_1
kcount,1
numberNandB,1
brightnessNandB,1
carpet pos,0
pc,0
Time (ms),CH1 Auto-Correlation
1.0,0.062182582914829254
2.0,0.06095137074589729
3.0,0.05974451079964638
4.0,0.05860194191336632
5.0,0.057478826493024826
6.0,0.05641990154981613
7.0,0.05537119507789612
8.0,0.05435686558485031
9.0,0.053363390266895294
10.0,0.052416324615478516
11.0,0.05149730667471886
12.0,0.05059593543410301
13.0,0.04970231652259827
14.0,0.04885697737336159
15.0,0.048027973622083664
16.0,0.04722661152482033
18.0,0.04565533623099327
20.0,0.04412126541137695
22.0,0.04260196164250374
24.0,0.04120245203375816
26.0,0.039910707622766495
28.0,0.03870074450969696
30.0,0.03752778470516205
32.0,0.03638265281915665
36.0,0.034201785922050476
40.0,0.03214472904801369
44.0,0.03027193807065487
48.0,0.02861301228404045
52.0,0.027089867740869522
56.0,0.025781190022826195
60.0,0.024653509259223938
64.0,0.023760316893458366
72.0,0.022329948842525482
80.0,0.020708875730633736
88.0,0.019145170226693153
96.0,0.017639469355344772
104.0,0.015948070213198662
112.0,0.014793075621128082
120.0,0.013915437273681164
128.0,0.013252193108201027
144.0,0.01135868951678276
160.0,0.009110195562243462
176.0,0.007462137844413519
192.0,0.007109253667294979
208.0,0.006639426574110985
224.0,0.0064854733645915985
240.0,0.005234348122030497
256.0,0.003742436645552516
288.0,-0.00037878836155869067
320.0,-0.0026564861182123423
352.0,-0.00317472405731678
384.0,-0.0016698039835318923
416.0,-0.0007546951528638601
448.0,-0.0022471346892416477
480.0,-0.0016955775208771229
512.0,-0.001149095711298287
576.0,-0.0006748585146851838
640.0,-0.002735684160143137
704.0,-0.0058986409567296505
768.0,-0.006227229256182909
832.0,-0.005382143426686525
896.0,-0.0027037470135837793
960.0,-0.0009616410825401545
1024.0,0.0002438645315123722
1152.0,-0.0019998406060039997
1280.0,-0.0007605390856042504
1408.0,0.0038195049855858088
1536.0,0.004462739452719688
1664.0,0.003215043805539608
1792.0,0.004575271159410477
1920.0,0.004311619326472282
2048.0,-0.0028942718636244535
2304.0,-0.003335022134706378
2560.0,0.004110695328563452
2816.0,-0.0001395606086589396
3072.0,-0.004667570814490318
3328.0,-0.0016971619334071875
3584.0,-0.003952106926590204
3840.0,-0.0029176189564168453
4096.0,-0.008855318650603294
4608.0,-0.0015330415917560458
5120.0,-0.00015163795615080744
5632.0,-0.004105343949049711
6144.0,-0.0018111409153789282
6656.0,-0.0005817271885462105
7168.0,-0.0011826594127342105
7680.0,0.007093851454555988
8192.0,0.0007204858120530844
9216.0,0.008289355784654617
10240.0,-0.00044762183097191155
11264.0,-0.0026980997063219547
12288.0,-0.004522474482655525
13312.0,-0.004068862646818161
14336.0,0.005020606331527233
end
