version,3.0
numOfCh,1
type,point
parent_name,8-cuts
ch_type,1_1
kcount,1
numberNandB,1
brightnessNandB,1
carpet pos,0
pc,0
Time (ms),CH1 Auto-Correlation
1.0,0.018987765535712242
2.0,0.018599260598421097
3.0,0.01821734383702278
4.0,0.01784016378223896
5.0,0.01747201569378376
6.0,0.017118273302912712
7.0,0.01677101105451584
8.0,0.016441134735941887
9.0,0.01612192764878273
10.0,0.015820283442735672
11.0,0.0155287254601717
12.0,0.015252487733960152
13.0,0.014982638880610466
14.0,0.0147250359877944
15.0,0.014473645016551018
16.0,0.014230264350771904
18.0,0.01376320980489254
20.0,0.013322261162102222
22.0,0.012899620458483696
24.0,0.012507408857345581
26.0,0.012130660936236382
28.0,0.011748855002224445
30.0,0.011375869624316692
32.0,0.01098724640905857
36.0,0.01023603230714798
40.0,0.009538081474602222
44.0,0.00894087553024292
48.0,0.008347392082214355
52.0,0.0078041283413767815
56.0,0.007300108205527067
60.0,0.006825513206422329
64.0,0.006414724048227072
72.0,0.005775488447397947
80.0,0.005189208779484034
88.0,0.004591383971273899
96.0,0.0039885807782411575
104.0,0.003494221717119217
112.0,0.003114001825451851
120.0,0.0028120260685682297
128.0,0.0026654228568077087
144.0,0.0025136470794677734
160.0,0.002317811129614711
176.0,0.0018135549034923315
192.0,0.001450199051760137
208.0,0.001153456512838602
224.0,0.000797857588622719
240.0,0.0004884644295088947
256.0,-0.00017313305579591542
288.0,-0.00010197591473115608
320.0,0.0005543255247175694
352.0,0.0012601818889379501
384.0,0.0017032123869284987
416.0,0.0018914792453870177
448.0,0.0021240704227238894
480.0,0.002456005197018385
512.0,0.002322783460840583
576.0,0.0008792469743639231
640.0,0.0011588926427066326
704.0,0.0010847040684893727
768.0,-5.826858978252858e-05
832.0,-0.0004665559681598097
896.0,0.0001970291050383821
960.0,0.00019710919877979904
1024.0,0.0003409004712011665
1152.0,0.00046467361971735954
1280.0,0.0006085212808102369
1408.0,-0.001090144389308989
1536.0,-0.0012303616385906935
1664.0,7.199568790383637e-05
1792.0,-0.0001351787941530347
1920.0,-0.0012380421394482255
2048.0,-0.0003307189326733351
2304.0,-0.00041399672045372427
2560.0,0.0007276664255186915
2816.0,-0.0010380902094766498
3072.0,-0.00045466620940715075
3328.0,-8.286583761218935e-05
3584.0,0.000769160978961736
3840.0,0.0008969028713181615
4096.0,0.00020266330102458596
4608.0,0.0012962654000148177
5120.0,0.0005747359828092158
5632.0,9.31489048525691e-05
6144.0,-0.0002445071586407721
6656.0,-0.0019147037528455257
7168.0,-0.00231431657448411
7680.0,-0.0017777257598936558
8192.0,-0.00041377602610737085
9216.0,0.0008693619747646153
10240.0,-0.0004267549957148731
11264.0,-0.0018244723323732615
12288.0,-0.0014596580294892192
13312.0,0.0016966434195637703
14336.0,-0.0011808390263468027
end
