version,3.0
numOfCh,1
type,point
parent_name,8-cuts
ch_type,1_1
kcount,1
numberNandB,1
brightnessNandB,1
carpet pos,0
pc,0
Time (ms),CH1 Auto-Correlation
1.0,0.037315867841243744
2.0,0.036691512912511826
3.0,0.036102019250392914
4.0,0.03551917150616646
5.0,0.03494957461953163
6.0,0.034401919692754745
7.0,0.033882830291986465
8.0,0.03338402882218361
9.0,0.03291218727827072
10.0,0.03246200829744339
11.0,0.03203810378909111
12.0,0.03164432942867279
13.0,0.03126903623342514
14.0,0.030917944386601448
15.0,0.030574899166822433
16.0,0.03025137074291706
18.0,0.029593802988529205
20.0,0.02896062657237053
22.0,0.028341637924313545
24.0,0.027706999331712723
26.0,0.027098217979073524
28.0,0.026544002816081047
30.0,0.026025263592600822
32.0,0.025515738874673843
36.0,0.02462119795382023
40.0,0.023830462247133255
44.0,0.0230339877307415
48.0,0.022342970594763756
52.0,0.02168489433825016
56.0,0.021003851667046547
60.0,0.02038395032286644
64.0,0.019809527322649956
72.0,0.01880504935979843
80.0,0.017979856580495834
88.0,0.01712493784725666
96.0,0.01624048501253128
104.0,0.01525733433663845
112.0,0.014318800531327724
120.0,0.013594308868050575
128.0,0.013095050118863583
144.0,0.012472578324377537
160.0,0.011774865910410881
176.0,0.011094232089817524
192.0,0.010252675041556358
208.0,0.009452491998672485
224.0,0.008671707473695278
240.0,0.007573588751256466
256.0,0.006505363620817661
288.0,0.004626339767128229
320.0,0.003406689502298832
352.0,0.0019152939785271883
384.0,0.0001649697805987671
416.0,-0.000308304704958573
448.0,-0.00016425941430497915
480.0,-0.0007138579967431724
512.0,-0.001694272505119443
576.0,-0.0040440792217850685
640.0,-0.0022455838043242693
704.0,-0.00041806887020356953
768.0,0.0003352625062689185
832.0,0.0023759661708027124
896.0,0.0034495170693844557
960.0,0.004720579832792282
1024.0,0.004064885899424553
1152.0,-0.0010252153733745217
1280.0,-0.0031327467877417803
1408.0,-0.002167332684621215
1536.0,-0.0024983426555991173
1664.0,-0.0017527240561321378
1792.0,0.001570418244227767
1920.0,0.0029988789465278387
2048.0,0.0018242491642013192
2304.0,-0.0008513261564075947
2560.0,-0.003324386663734913
2816.0,-0.0013468805700540543
3072.0,-0.00222558225505054
3328.0,-0.0008861099486239254
3584.0,0.002865501679480076
3840.0,0.006077662110328674
4096.0,0.002984248334541917
4608.0,0.0005337649490684271
5120.0,-0.0033669285476207733
5632.0,-0.0025782426819205284
6144.0,-0.0033981408923864365
6656.0,-0.001859194366261363
7168.0,-0.004592894110828638
7680.0,-0.0031148067209869623
8192.0,0.0019301802385598421
9216.0,-0.0018406892195343971
10240.0,-0.0005754036828875542
11264.0,-0.0019479093607515097
12288.0,0.0066883256658911705
13312.0,-0.0013773799873888493
14336.0,-0.0016123265959322453
end
