version,3.0
numOfCh,1
type,point
parent_name,8-cuts
ch_type,1_1
kcount,1
numberNandB,1
brightnessNandB,1
carpet pos,0
pc,0
Time (ms),CH1 Auto-Correlation
1.0,0.02861737087368965
2.0,0.028049122542142868
3.0,0.027500806376338005
4.0,0.02698296494781971
5.0,0.02649013139307499
6.0,0.02601616457104683
7.0,0.025553641840815544
8.0,0.025113103911280632
9.0,0.024669162929058075
10.0,0.024232495576143265
11.0,0.023800866678357124
12.0,0.02339215762913227
13.0,0.023011978715658188
14.0,0.022631971165537834
15.0,0.02225460298359394
16.0,0.021878160536289215
18.0,0.021175241097807884
20.0,0.02051963098347187
22.0,0.019908109679818153
24.0,0.019340012222528458
26.0,0.018793676048517227
28.0,0.018276112154126167
30.0,0.01780054159462452
32.0,0.01735667511820793
36.0,0.01644889824092388
40.0,0.01554024312645197
44.0,0.014657805673778057
48.0,0.013815706595778465
52.0,0.01299246959388256
56.0,0.012261439114809036
60.0,0.011543330736458302
64.0,0.010898295789957047
72.0,0.009748087264597416
80.0,0.008780964650213718
88.0,0.007990222424268723
96.0,0.007328233681619167
104.0,0.006906040944159031
112.0,0.0065052141435444355
120.0,0.006173822097480297
128.0,0.006028519943356514
144.0,0.005652257241308689
160.0,0.005278272554278374
176.0,0.004874087870121002
192.0,0.004220221191644669
208.0,0.003831730457022786
224.0,0.0034468108788132668
240.0,0.0030256351456046104
256.0,0.0025854643899947405
288.0,0.0020843150559812784
320.0,0.0023677845019847155
352.0,0.002695323433727026
384.0,0.0023629474453628063
416.0,0.0022280863486230373
448.0,0.0028878168668597937
480.0,0.0028442642651498318
512.0,0.0019281123531982303
576.0,0.002582568908110261
640.0,0.0015527791110798717
704.0,0.0009194645681418478
768.0,-0.0008493125787936151
832.0,0.0002608755312394351
896.0,0.0009472750243730843
960.0,0.0015568265225738287
1024.0,0.0012596477754414082
1152.0,-0.0005256464937701821
1280.0,-0.0018928785575553775
1408.0,-0.0012030006619170308
1536.0,0.0029825468081980944
1664.0,0.0009352320339530706
1792.0,-0.0006172978319227695
1920.0,-0.0027957360725849867
2048.0,-0.00135821255389601
2304.0,-0.0013565471163019538
2560.0,-0.0006278414512053132
2816.0,-0.001192212919704616
3072.0,0.0005021176184527576
3328.0,0.00034921441692858934
3584.0,-0.002220568945631385
3840.0,-0.0025230522733181715
4096.0,-0.004058954771608114
4608.0,0.0001046345496433787
5120.0,-5.400277586886659e-05
5632.0,-0.0005272117559798062
6144.0,0.002037505153566599
6656.0,0.002296712016686797
7168.0,-8.849371806718409e-05
7680.0,0.0020341547206044197
8192.0,2.4945516997831874e-05
9216.0,3.25604596582707e-05
10240.0,-0.004486418329179287
11264.0,-0.002016525249928236
12288.0,-0.0007434547878801823
13312.0,-0.0023317832965403795
14336.0,0.005774971097707748
end
