version,3.0
numOfCh,1
type,point
parent_name,8-cuts
ch_type,1_1
kcount,1
numberNandB,1
brightnessNandB,1
carpet pos,0
pc,0
Time (ms),CH1 Auto-Correlation
1.0,0.021005189046263695
2.0,0.020604193210601807
3.0,0.02021351456642151
4.0,0.019823558628559113
5.0,0.019448233768343925
6.0,0.019078122451901436
7.0,0.018714068457484245
8.0,0.018360694870352745
9.0,0.018030406907200813
10.0,0.017706217244267464
11.0,0.017391586676239967
12.0,0.0170975960791111
13.0,0.01680471934378147
14.0,0.01651749201118946
15.0,0.016247089952230453
16.0,0.015976861119270325
18.0,0.015454445965588093
20.0,0.014924947172403336
22.0,0.01441066712141037
24.0,0.013932549394667149
26.0,0.013493236154317856
28.0,0.013103500008583069
30.0,0.012753154151141644
32.0,0.012416799552738667
36.0,0.011735220439732075
40.0,0.011090809479355812
44.0,0.010545136407017708
48.0,0.010083436965942383
52.0,0.009685183875262737
56.0,0.009298865683376789
60.0,0.008918354287743568
64.0,0.008542142808437347
72.0,0.007921976037323475
80.0,0.007398244924843311
88.0,0.0068366872146725655
96.0,0.006391857750713825
104.0,0.005891675595194101
112.0,0.005422842688858509
120.0,0.005114203318953514
128.0,0.004814064595848322
144.0,0.004372179042547941
160.0,0.003773666685447097
176.0,0.0033440717961639166
192.0,0.0029215121176093817
208.0,0.0028399161528795958
224.0,0.002794004511088133
240.0,0.002937096869572997
256.0,0.002902889857068658
288.0,0.0030044515151530504
320.0,0.0026215601246804
352.0,0.0022316433023661375
384.0,0.0022113965824246407
416.0,0.0022024367935955524
448.0,0.0023658263962715864
480.0,0.0017342290375381708
512.0,0.0008180334698408842
576.0,0.0005078805261291564
640.0,-0.00038955113268457353
704.0,-0.00028535438468679786
768.0,1.8676486433832906e-05
832.0,-0.00020816936739720404
896.0,-0.0012957812286913395
960.0,-0.0016775588737800717
1024.0,-0.0011038383236154914
1152.0,2.3967379092937335e-05
1280.0,0.0024649356491863728
1408.0,0.0025108575355261564
1536.0,0.0022335441317409277
1664.0,0.0011368716368451715
1792.0,0.0025403969921171665
1920.0,0.0007738933782093227
2048.0,6.877613031974761e-06
2304.0,-0.00039669667603448033
2560.0,0.0014784932136535645
2816.0,0.001790231210179627
3072.0,0.0019054419826716185
3328.0,0.0005594530957750976
3584.0,0.0011637675343081355
3840.0,0.0010267093311995268
4096.0,0.0009171367273665965
4608.0,-0.0008484175777994096
5120.0,-0.0007599475793540478
5632.0,0.00043938762973994017
6144.0,-0.002035113051533699
6656.0,-0.0003056869318243116
7168.0,-0.0008200419251807034
7680.0,-0.002861040411517024
8192.0,-0.0010871348204091191
9216.0,-0.0015069390647113323
10240.0,-0.0013109884457662702
11264.0,-0.0021177385933697224
12288.0,-0.001349806901998818
13312.0,-0.0012094767298549414
14336.0,0.001509537803940475
end
