version,3.0
numOfCh,1
type,point
parent_name,8-cuts
ch_type,1_1
kcount,1
numberNandB,1
brightnessNandB,1
carpet pos,0
pc,0
Time (ms),CH1 Auto-Correlation
1.0,0.027829047292470932
2.0,0.027430258691310883
3.0,0.027044961228966713
4.0,0.026671234518289566
5.0,0.026306254789233208
6.0,0.0259612537920475
7.0,0.025617368519306183
8.0,0.025278445333242416
9.0,0.024936659261584282
10.0,0.024605238810181618
11.0,0.024271052330732346
12.0,0.023963848128914833
13.0,0.023661650717258453
14.0,0.02336929738521576
15.0,0.023085778579115868
16.0,0.022801216691732407
18.0,0.022270875051617622
20.0,0.02175724320113659
22.0,0.021284686401486397
24.0,0.020851297304034233
26.0,0.02042900025844574
28.0,0.02000119909644127
30.0,0.019606882706284523
32.0,0.019228292629122734
36.0,0.018588215112686157
40.0,0.017997954040765762
44.0,0.017436327412724495
48.0,0.01687518134713173
52.0,0.016299108043313026
56.0,0.015792241320014
60.0,0.015304602682590485
64.0,0.014865481294691563
72.0,0.014097978360950947
80.0,0.01330492738634348
88.0,0.012466181069612503
96.0,0.01168749202042818
104.0,0.01115328073501587
112.0,0.010618223808705807
120.0,0.010104140266776085
128.0,0.009587161242961884
144.0,0.008700689300894737
160.0,0.0077528683468699455
176.0,0.007084429729729891
192.0,0.0069540818221867085
208.0,0.006999040022492409
224.0,0.006901848129928112
240.0,0.0065486556850373745
256.0,0.006029957439750433
288.0,0.005122496746480465
320.0,0.004581153392791748
352.0,0.0038389896508306265
384.0,0.0030115214176476
416.0,0.002807869343087077
448.0,0.002997148549184203
480.0,0.003210487775504589
512.0,0.003934656735509634
576.0,0.0036967105697840452
640.0,0.003839088836684823
704.0,0.004064601380378008
768.0,0.0045312452130019665
832.0,0.00434551015496254
896.0,0.002644446911290288
960.0,0.0013290358474478126
1024.0,0.0013319997815415263
1152.0,0.001358803827315569
1280.0,0.0005330845015123487
1408.0,0.0005629141232930124
1536.0,0.0007427671225741506
1664.0,-3.1692667107563466e-05
1792.0,-0.00029852575971744955
1920.0,0.0007491374271921813
2048.0,-0.0001137558210757561
2304.0,-0.0005739926127716899
2560.0,-0.0004591982869897038
2816.0,-0.0012600490590557456
3072.0,-0.001772353076376021
3328.0,-0.0010530046420171857
3584.0,-0.001233292161487043
3840.0,-0.00029329844983294606
4096.0,0.00016008219972718507
4608.0,0.0012000392889603972
5120.0,4.654376607504673e-05
5632.0,-0.0007083617383614182
6144.0,-0.002025838941335678
6656.0,-0.0018210610141977668
7168.0,-0.0014229464577510953
7680.0,-0.002924306085333228
8192.0,-0.00629534013569355
9216.0,0.001111494144424796
10240.0,0.002735737944021821
11264.0,0.0003282313991803676
12288.0,0.001368598430417478
13312.0,-0.002081802813336253
14336.0,-0.006874727550894022
end
