version,3.0
numOfCh,1
type,point
parent_name,8-cuts
ch_type,1_1
kcount,1
numberNandB,1
brightnessNandB,1
carpet pos,0
pc,0
Time (ms),CH1 Auto-Correlation
1.0,0.029229145497083664
2.0,0.028617756441235542
3.0,0.02802984230220318
4.0,0.02746075764298439
5.0,0.026907796040177345
6.0,0.026374179869890213
7.0,0.02586936205625534
8.0,0.02538098394870758
9.0,0.024912262335419655
10.0,0.024462271481752396
11.0,0.024034637957811356
12.0,0.02360895276069641
13.0,0.02321435697376728
14.0,0.022833719849586487
15.0,0.0224540326744318
16.0,0.022090720012784004
18.0,0.021426919847726822
20.0,0.020806826651096344
22.0,0.020187128335237503
24.0,0.019574401900172234
26.0,0.018968069925904274
28.0,0.01840057224035263
30.0,0.017917145043611526
32.0,0.01747693493962288
36.0,0.01660146564245224
40.0,0.015760738402605057
44.0,0.01497166883200407
48.0,0.014209912158548832
52.0,0.013471303507685661
56.0,0.012697101570665836
60.0,0.012027041055262089
64.0,0.011480473913252354
72.0,0.010571260936558247
80.0,0.009996099397540092
88.0,0.009646948426961899
96.0,0.009414559230208397
104.0,0.00932425819337368
112.0,0.009025977924466133
120.0,0.008569384925067425
128.0,0.008150730282068253
144.0,0.0073900106362998486
160.0,0.006816678214818239
176.0,0.005908876657485962
192.0,0.004814168903976679
208.0,0.0037288025487214327
224.0,0.0023577299434691668
240.0,0.00131750269792974
256.0,0.0009939310839399695
288.0,0.0006689551519230008
320.0,0.0005227591609582305
352.0,-0.0006407173932529986
384.0,-0.0008408161229453981
416.0,-0.0016863819910213351
448.0,-0.0023823734372854233
480.0,-0.0028929889667779207
512.0,-0.003183474764227867
576.0,-0.002109719207510352
640.0,-0.0017252034740522504
704.0,-0.001798755838535726
768.0,-0.0019559108186513186
832.0,-0.0022994838654994965
896.0,-0.0011532313656061888
960.0,0.0009382275748066604
1024.0,0.001129915239289403
1152.0,0.0014730703551322222
1280.0,0.0005339758354239166
1408.0,-0.0015214281156659126
1536.0,-0.0023888181895017624
1664.0,-0.0030359397642314434
1792.0,-0.0008188931969925761
1920.0,-0.0007199448882602155
2048.0,-0.003114622551947832
2304.0,-0.002606235444545746
2560.0,-0.0011875088093802333
2816.0,-0.001242556725628674
3072.0,0.0014615386025980115
3328.0,-6.735379429301247e-05
3584.0,0.00035312905674800277
3840.0,0.0015556359430775046
4096.0,0.00151544448453933
4608.0,0.00167229981161654
5120.0,-8.296118176076561e-05
5632.0,0.0012280687224119902
6144.0,-0.0010326632764190435
6656.0,-0.0031954210717231035
7168.0,-0.0003492287069093436
7680.0,-0.0011618112912401557
8192.0,-0.0011849666479974985
9216.0,0.0014002097304910421
10240.0,-0.0016299895942211151
11264.0,-0.001465011271648109
12288.0,0.0016368184005841613
13312.0,0.0020877509377896786
14336.0,-0.0019780697766691446
end
