version,3.0
numOfCh,1
type,point
parent_name,8-cuts
ch_type,1_1
kcount,1
numberNandB,1
brightnessNandB,1
carpet pos,0
pc,0
Time (ms),CH1 Auto-Correlation
1.0,0.023597028106451035
2.0,0.02320430427789688
3.0,0.022835025563836098
4.0,0.022478725761175156
5.0,0.022134440019726753
6.0,0.021805081516504288
7.0,0.021477622911334038
8.0,0.021159078925848007
9.0,0.02085650898516178
10.0,0.020569633692502975
11.0,0.020294418558478355
12.0,0.02003566548228264
13.0,0.0197763629257679
14.0,0.019518358632922173
15.0,0.019268546253442764
16.0,0.01903245784342289
18.0,0.018598856404423714
20.0,0.01817925088107586
22.0,0.017791422083973885
24.0,0.017430953681468964
26.0,0.017094427719712257
28.0,0.01674957014620304
30.0,0.016401445493102074
32.0,0.016069889068603516
36.0,0.01544514112174511
40.0,0.014863367192447186
44.0,0.014335816726088524
48.0,0.013866382651031017
52.0,0.013457545079290867
56.0,0.013063738122582436
60.0,0.012661036103963852
64.0,0.012308364734053612
72.0,0.011674277484416962
80.0,0.011208966374397278
88.0,0.010745394974946976
96.0,0.010198025032877922
104.0,0.009487061761319637
112.0,0.00874236784875393
120.0,0.008098931983113289
128.0,0.007620177231729031
144.0,0.006708216853439808
160.0,0.005931283347308636
176.0,0.005395056214183569
192.0,0.005052829161286354
208.0,0.004913894459605217
224.0,0.004977089818567038
240.0,0.004891985096037388
256.0,0.004490467719733715
288.0,0.004465707112103701
320.0,0.004277515225112438
352.0,0.004330784548074007
384.0,0.004754908848553896
416.0,0.005449146963655949
448.0,0.005782047752290964
480.0,0.006234934087842703
512.0,0.007003485225141048
576.0,0.006655194330960512
640.0,0.005815220531076193
704.0,0.004214574117213488
768.0,0.0029796527232974768
832.0,0.0023951642215251923
896.0,0.002102167345583439
960.0,0.0011524258879944682
1024.0,0.0010155835188925266
1152.0,0.002616671146824956
1280.0,0.0031331751961261034
1408.0,0.0024006059393286705
1536.0,0.0009108698577620089
1664.0,0.0019517375621944666
1792.0,0.0024491879157721996
1920.0,0.000918096920941025
2048.0,0.00013443484203889966
2304.0,0.00167916901409626
2560.0,-0.0006677528726868331
2816.0,0.002630365313962102
3072.0,0.0006077133002690971
3328.0,0.0023363458458334208
3584.0,0.00026689228252507746
3840.0,-0.0009875877294689417
4096.0,-0.00037610024446621537
4608.0,-0.00135042704641819
5120.0,-0.0030437600798904896
5632.0,-0.0032323391642421484
6144.0,-0.0011676715221256018
6656.0,-0.0016699753468856215
7168.0,-0.004111126065254211
7680.0,-0.004432810004800558
8192.0,-0.005229082424193621
9216.0,-0.0033440841361880302
10240.0,0.00018269878637511283
11264.0,-0.00047137547517195344
12288.0,0.001889666193164885
13312.0,-0.00011080697731813416
14336.0,0.00033667971729300916
end
