version,3.0
numOfCh,1
type,point
parent_name,8-cuts
ch_type,1_1
kcount,1
numberNandB,1
brightnessNandB,1
carpet pos,0
pc,0
Time (ms),CH1 Auto-Correlation
1.0,0.021435964852571487
2.0,0.02105885185301304
3.0,0.020693624392151833
4.0,0.020348424091935158
5.0,0.0200221985578537
6.0,0.01970486342906952
7.0,0.01938525028526783
8.0,0.019081342965364456
9.0,0.01878260262310505
10.0,0.018487950786948204
11.0,0.01819446310400963
12.0,0.017897816374897957
13.0,0.01761007495224476
14.0,0.01731894537806511
15.0,0.01702907308936119
16.0,0.01675167679786682
18.0,0.016215596348047256
20.0,0.015697602182626724
22.0,0.015207741409540176
24.0,0.01474435068666935
26.0,0.014308779500424862
28.0,0.013878652825951576
30.0,0.013470910489559174
32.0,0.013080925680696964
36.0,0.012344003655016422
40.0,0.011621417477726936
44.0,0.010956271551549435
48.0,0.010325652547180653
52.0,0.009735940024256706
56.0,0.009165985509753227
60.0,0.008630827069282532
64.0,0.00808740220963955
72.0,0.007065996993333101
80.0,0.006027589552104473
88.0,0.005052489228546619
96.0,0.004253489430993795
104.0,0.003670333418995142
112.0,0.0032779849134385586
120.0,0.002987616928294301
128.0,0.002723104553297162
144.0,0.0021449073683470488
160.0,0.0015538532752543688
176.0,0.0012145069194957614
192.0,0.000890810857526958
208.0,0.0009043320314958692
224.0,0.0007229506154544652
240.0,0.0004021285567432642
256.0,0.00012942451576236635
288.0,-0.00037025564233772457
320.0,-0.000734316126909107
352.0,-0.0006315656937658787
384.0,-0.0003027515485882759
416.0,0.00019971566507592797
448.0,0.0011211491655558348
480.0,0.0017188062192872167
512.0,0.0018038509879261255
576.0,0.00013904580555390567
640.0,0.0004862141504418105
704.0,0.00045605687773786485
768.0,0.0007203656132332981
832.0,0.0013711074134334922
896.0,0.0010722840670496225
960.0,0.00149642420001328
1024.0,0.0021403266582638025
1152.0,0.001484921551309526
1280.0,0.0016888928366824985
1408.0,0.0032954891212284565
1536.0,0.0019010694231837988
1664.0,-0.0009501255117356777
1792.0,0.00013971867156215012
1920.0,0.0013490082928910851
2048.0,0.00040944613283500075
2304.0,-0.0004450126725714654
2560.0,0.0006147808162495494
2816.0,-9.554951247991994e-05
3072.0,0.0002867984876502305
3328.0,0.0013336152769625187
3584.0,-0.0009523070184513927
3840.0,0.0015691836597397923
4096.0,-0.0007594074122607708
4608.0,0.0016372952377423644
5120.0,-0.0007090869476087391
5632.0,-0.0005765159148722887
6144.0,0.0024893602821975946
6656.0,-0.0014512983616441488
7168.0,0.00022764418099541217
7680.0,0.00011877890938194469
8192.0,-0.0009697828791104257
9216.0,-0.001788718393072486
10240.0,-0.0029467849526554346
11264.0,-0.0022963620722293854
12288.0,0.0002295458543812856
13312.0,-0.0016876795561984181
14336.0,-0.004199948161840439
end
