version,3.0
numOfCh,1
type,point
parent_name,8-cuts
ch_type,1_1
kcount,1
numberNandB,1
brightnessNandB,1
carpet pos,0
pc,0
Time (ms),CH1 Auto-Correlation
1.0,0.019711853936314583
2.0,0.019312437623739243
3.0,0.018929217010736465
4.0,0.01856190711259842
5.0,0.018203897401690483
6.0,0.017851002514362335
7.0,0.017511973157525063
8.0,0.017183391377329826
9.0,0.016859963536262512
10.0,0.016546081751585007
11.0,0.016246065497398376
12.0,0.015953429043293
13.0,0.01567445509135723
14.0,0.015405087731778622
15.0,0.015147076919674873
16.0,0.014886417426168919
18.0,0.01437313947826624
20.0,0.013888483867049217
22.0,0.013443849049508572
24.0,0.013036605902016163
26.0,0.012658238410949707
28.0,0.012285133823752403
30.0,0.01189867127686739
32.0,0.011504096910357475
36.0,0.010793684050440788
40.0,0.010099177248775959
44.0,0.009464447386562824
48.0,0.008895833045244217
52.0,0.008336006663739681
56.0,0.007790450472384691
60.0,0.0072533260099589825
64.0,0.006725707557052374
72.0,0.005764646455645561
80.0,0.004972915165126324
88.0,0.0043286229483783245
96.0,0.003781510517001152
104.0,0.0034631136804819107
112.0,0.0032410554122179747
120.0,0.003053195308893919
128.0,0.002919138176366687
144.0,0.002332662232220173
160.0,0.001686688745394349
176.0,0.0012617758475244045
192.0,0.0011686182115226984
208.0,0.0011336358729749918
224.0,0.0006723812548443675
240.0,0.0006161517230793834
256.0,0.0006101200124248862
288.0,-0.00023092428455129266
320.0,-4.062818334205076e-05
352.0,9.073100227396935e-05
384.0,-0.00021515239495784044
416.0,-0.00022462272318080068
448.0,-0.0001984196132980287
480.0,0.00012491228699218482
512.0,0.00030966498889029026
576.0,0.0005846896674484015
640.0,0.00010842379560926929
704.0,-0.0008065169095061719
768.0,-0.0012176870368421078
832.0,-0.001992648234590888
896.0,-0.002438983181491494
960.0,-0.0005506339948624372
1024.0,0.0002506654418539256
1152.0,0.00046525822835974395
1280.0,0.0002327768161194399
1408.0,-0.00023885999689809978
1536.0,-0.0009231338044628501
1664.0,-0.0008463787380605936
1792.0,0.00010885461961152032
1920.0,0.0016056239837780595
2048.0,0.00025342838489450514
2304.0,-1.515837629995076e-05
2560.0,-0.0001846159138949588
2816.0,-5.4154657846083865e-05
3072.0,0.0017167585901916027
3328.0,5.755097390647279e-06
3584.0,0.0005844692932441831
3840.0,0.000391492125345394
4096.0,0.000661185709759593
4608.0,-0.001071074977517128
5120.0,-0.000249524659011513
5632.0,-0.0001360603200737387
6144.0,-0.0005840215599164367
6656.0,0.0008052766788750887
7168.0,-0.00029613039805553854
7680.0,-0.0008156130206771195
8192.0,-0.000625637243501842
9216.0,-0.0007926134276203811
10240.0,-0.0007686595199629664
11264.0,-0.0008946240996010602
12288.0,0.0007457885076291859
13312.0,-0.001299395109526813
14336.0,0.002472993917763233
end
