version,3.0
numOfCh,1
type,point
parent_name,8-cuts
ch_type,1_1
kcount,1
numberNandB,1
brightnessNandB,1
carpet pos,0
pc,0
Time (ms),CH1 Auto-Correlation
1.0,0.018422869965434074
2.0,0.018022878095507622
3.0,0.01763293147087097
4.0,0.017262393608689308
5.0,0.0168986227363348
6.0,0.016550838947296143
7.0,0.016215287148952484
8.0,0.015894316136837006
9.0,0.015580279752612114
10.0,0.015292557887732983
11.0,0.014997154474258423
12.0,0.01470678485929966
13.0,0.014424439519643784
14.0,0.014154312200844288
15.0,0.013884282670915127
16.0,0.01362424436956644
18.0,0.013139124028384686
20.0,0.012685197405517101
22.0,0.012262538075447083
24.0,0.011855799704790115
26.0,0.011467601172626019
28.0,0.011113518849015236
30.0,0.010783109813928604
32.0,0.01045007910579443
36.0,0.009788776747882366
40.0,0.009173075668513775
44.0,0.008616983890533447
48.0,0.008128798566758633
52.0,0.007707127369940281
56.0,0.007314692717045546
60.0,0.006966202519834042
64.0,0.006673027761280537
72.0,0.00616529630497098
80.0,0.005651921033859253
88.0,0.005214704666286707
96.0,0.004739264491945505
104.0,0.004235169384628534
112.0,0.003667696611955762
120.0,0.003213771153241396
128.0,0.0028323340229690075
144.0,0.0024929267819970846
160.0,0.0022634498309344053
176.0,0.0020969335455447435
192.0,0.0016535151517018676
208.0,0.0013871571281924844
224.0,0.0008995257085189223
240.0,0.00016673341451678425
256.0,-0.000529673183336854
288.0,-0.0007070605643093586
320.0,-0.00031380646396428347
352.0,0.0002541933790780604
384.0,0.0006419115234166384
416.0,0.00045277882600203156
448.0,0.0001397907908540219
480.0,0.0006764541612938046
512.0,0.0011436741333454847
576.0,0.0007699509151279926
640.0,-0.00038543553091585636
704.0,-0.0009432742954231799
768.0,-0.0008863526745699346
832.0,0.00015674717724323273
896.0,0.0012253966415300965
960.0,0.0011681332252919674
1024.0,0.001133788377046585
1152.0,0.0006479774019680917
1280.0,0.0004988930304534733
1408.0,0.0002566954353824258
1536.0,1.3686822057934478e-05
1664.0,-0.00017387766274623573
1792.0,-0.0008189192740246654
1920.0,-0.0006915518897585571
2048.0,0.0003682885435409844
2304.0,-0.0005052193882875144
2560.0,-0.00013270597264636308
2816.0,-0.0010897561442106962
3072.0,-0.0002279670734424144
3328.0,-0.0003510581736918539
3584.0,0.0002727285900618881
3840.0,-0.0016617384972050786
4096.0,-0.0009955777786672115
4608.0,6.939957529539242e-05
5120.0,-0.0022257626987993717
5632.0,-0.00023909112496767193
6144.0,-0.0004730964719783515
6656.0,-0.00021117446885909885
7168.0,0.00029149703914299607
7680.0,0.0003842317091766745
8192.0,-0.0005773193552158773
9216.0,0.0009323955164290965
10240.0,0.001121731591410935
11264.0,0.0003241478407289833
12288.0,-0.000615285593084991
13312.0,-0.00047600475954823196
14336.0,-0.0001252965594176203
end
