version,3.0
numOfCh,1
type,point
parent_name,8-cuts
ch_type,1_1
kcount,1
numberNandB,1
brightnessNandB,1
carpet pos,0
pc,0
Time (ms),CH1 Auto-Correlation
1.0,0.030170071870088577
2.0,0.029613042250275612
3.0,0.029083967208862305
4.0,0.028569579124450684
5.0,0.02806142345070839
6.0,0.02756160870194435
7.0,0.027070797979831696
8.0,0.026600271463394165
9.0,0.02613687887787819
10.0,0.02568499743938446
11.0,0.025242937728762627
12.0,0.0248273815959692
13.0,0.024434510618448257
14.0,0.024053746834397316
15.0,0.023669244721531868
16.0,0.02329135127365589
18.0,0.022565996274352074
20.0,0.021878762170672417
22.0,0.021234992891550064
24.0,0.02066781558096409
26.0,0.020113740116357803
28.0,0.019555822014808655
30.0,0.01903427578508854
32.0,0.018550850450992584
36.0,0.017649848014116287
40.0,0.01682981662452221
44.0,0.01609876938164234
48.0,0.015444403514266014
52.0,0.014803542755544186
56.0,0.014176419004797935
60.0,0.013566695153713226
64.0,0.013061132282018661
72.0,0.012191476300358772
80.0,0.011457247659564018
88.0,0.010725989937782288
96.0,0.009995621629059315
104.0,0.009277453646063805
112.0,0.008654000237584114
120.0,0.008192493580281734
128.0,0.007873347960412502
144.0,0.007144106086343527
160.0,0.006420123390853405
176.0,0.006255260668694973
192.0,0.006092617753893137
208.0,0.0060605453327298164
224.0,0.005842616781592369
240.0,0.005694254767149687
256.0,0.005821726750582457
288.0,0.006142108701169491
320.0,0.005699767265468836
352.0,0.004868130665272474
384.0,0.004764718469232321
416.0,0.004832838661968708
448.0,0.00479049701243639
480.0,0.003951582591980696
512.0,0.003231808077543974
576.0,0.0023373267613351345
640.0,0.0014295823639258742
704.0,0.0006507879006676376
768.0,0.0001870016276370734
832.0,0.0013943997910246253
896.0,0.001234161201864481
960.0,-0.0004981125821359456
1024.0,-0.00148306367918849
1152.0,-0.0024833360221236944
1280.0,-0.004129952285438776
1408.0,-0.00458659790456295
1536.0,-0.0022404829505831003
1664.0,-0.0034279744140803814
1792.0,-0.002948770299553871
1920.0,-0.003060681512579322
2048.0,-0.0013731839135289192
2304.0,-0.0004892391734756529
2560.0,0.0009381462004967034
2816.0,-0.00035443055094219744
3072.0,-0.000775716092903167
3328.0,-0.0025140228681266308
3584.0,-0.0015566005604341626
3840.0,-0.0009407838806509972
4096.0,0.000575906247831881
4608.0,0.001586094149388373
5120.0,0.000391435984056443
5632.0,-0.001316860900260508
6144.0,-0.0011390011059120297
6656.0,0.00034744260483421385
7168.0,0.0034150048159062862
7680.0,0.003793916432186961
8192.0,0.001001468044705689
9216.0,-0.004266957752406597
10240.0,-0.0013532600132748485
11264.0,-0.002073988551273942
12288.0,0.00347786583006382
13312.0,0.00024481775471940637
14336.0,-0.00044941078522242606
end
