version,3.0
numOfCh,1
type,point
parent_name,8-cuts
ch_type,1_1
kcount,1
numberNandB,1
brightnessNandB,1
carpet pos,0
pc,0
Time (ms),CH1 Auto-Correlation
1.0,0.02365805394947529
2.0,0.023246437311172485
3.0,0.02285044454038143
4.0,0.022470256313681602
5.0,0.022103942930698395
6.0,0.02176237851381302
7.0,0.02143983356654644
8.0,0.021123472601175308
9.0,0.02080816775560379
10.0,0.020502222701907158
11.0,0.020210949704051018
12.0,0.01991996355354786
13.0,0.019635019823908806
14.0,0.019351975992321968
15.0,0.01907266676425934
16.0,0.01879214681684971
18.0,0.018226830288767815
20.0,0.01770307868719101
22.0,0.01721390150487423
24.0,0.016767125576734543
26.0,0.01635044626891613
28.0,0.015953848138451576
30.0,0.015566082671284676
32.0,0.015182220377027988
36.0,0.014516147784888744
40.0,0.01385208498686552
44.0,0.013199985027313232
48.0,0.012606257572770119
52.0,0.012073295190930367
56.0,0.011573920026421547
60.0,0.011096366681158543
64.0,0.010689480230212212
72.0,0.009847140870988369
80.0,0.009138383902609348
88.0,0.008501339703798294
96.0,0.007891420274972916
104.0,0.00726760970428586
112.0,0.006785441190004349
120.0,0.006414486560970545
128.0,0.006050308234989643
144.0,0.005360796116292477
160.0,0.005013412795960903
176.0,0.004803333897143602
192.0,0.004756519570946693
208.0,0.004572903271764517
224.0,0.004686842206865549
240.0,0.0046748206950724125
256.0,0.004642319865524769
288.0,0.0042868866585195065
320.0,0.0035321104805916548
352.0,0.0026224551256746054
384.0,0.0017634580144658685
416.0,0.0008979425183497369
448.0,-1.204907130158972e-05
480.0,-0.0007124573457986116
512.0,-0.0008079992257989943
576.0,-0.0011415964690968394
640.0,-0.0017524934373795986
704.0,-0.0022544357925653458
768.0,-0.0011003999970853329
832.0,-0.000867005146574229
896.0,-0.00037160623469389975
960.0,-0.00043272331822663546
1024.0,-3.694845872814767e-05
1152.0,0.0006348476745188236
1280.0,-0.0008344960515387356
1408.0,-0.0010440933983772993
1536.0,-0.001498732017353177
1664.0,-0.002393313217908144
1792.0,-0.0003830707282759249
1920.0,-0.0006274298648349941
2048.0,-0.0022812667302787304
2304.0,-0.0005016573122702539
2560.0,-5.41313347639516e-05
2816.0,0.0009310923633165658
3072.0,-9.894031973090023e-05
3328.0,2.609415605547838e-05
3584.0,0.00021559171727858484
3840.0,9.769231110112742e-05
4096.0,0.0007946484838612378
4608.0,-0.0005078771500848234
5120.0,0.001477535697631538
5632.0,0.00026809939299710095
6144.0,-0.0025413562543690205
6656.0,-0.0004464273515623063
7168.0,-7.739366265013814e-05
7680.0,0.0026088322047144175
8192.0,0.0011590159265324473
9216.0,-7.043836376396939e-05
10240.0,0.00018900596478488296
11264.0,-0.0031824689358472824
12288.0,0.0003103588242083788
13312.0,-0.0008110423805192113
14336.0,-0.0026944864075630903
end
