version,3.0
numOfCh,1
type,point
parent_name,8-cuts
ch_type,1_1
kcount,1
numberNandB,1
brightnessNandB,1
carpet pos,0
pc,0
Time (ms),CH1 Auto-Correlation
1.0,0.01560049969702959
2.0,0.015213840641081333
3.0,0.014837538823485374
4.0,0.014483068138360977
5.0,0.014140155166387558
6.0,0.01380053348839283
7.0,0.013466517440974712
8.0,0.01313698012381792
9.0,0.012828314676880836
10.0,0.012524683028459549
11.0,0.012236359529197216
12.0,0.01195214968174696
13.0,0.011677015572786331
14.0,0.011419519782066345
15.0,0.011170804500579834
16.0,0.010938316583633423
18.0,0.010497752577066422
20.0,0.01009166706353426
22.0,0.009703612886369228
24.0,0.009351330809295177
26.0,0.009010680951178074
28.0,0.008665738627314568
30.0,0.008337891660630703
32.0,0.00801712367683649
36.0,0.00739670917391777
40.0,0.006813399028033018
44.0,0.006265069358050823
48.0,0.005804211832582951
52.0,0.0053627872839570045
56.0,0.00499569159001112
60.0,0.004653882700949907
64.0,0.004342285916209221
72.0,0.003728833980858326
80.0,0.0031792621593922377
88.0,0.0027330813463777304
96.0,0.0023168434854596853
104.0,0.002036286983639002
112.0,0.0018704504473134875
120.0,0.0015712231397628784
128.0,0.0011604327009990811
144.0,0.0006700631347484887
160.0,0.0006445223116315901
176.0,0.0007559720543213189
192.0,0.000884782406501472
208.0,0.000916959485039115
224.0,0.0009675900801084936
240.0,0.0012882817536592484
256.0,0.0011808461276814342
288.0,0.0008686076034791768
320.0,0.000751144194509834
352.0,0.0006950112874619663
384.0,0.0002046448498731479
416.0,0.00024883344303816557
448.0,6.351561023620889e-05
480.0,-3.538788951118477e-05
512.0,6.419944838853553e-05
576.0,-0.000767114048358053
640.0,-0.0006770254112780094
704.0,-0.0005773240700364113
768.0,-0.0004019039624836296
832.0,-0.0005231392569839954
896.0,0.00023636214609723538
960.0,0.0014257747679948807
1024.0,0.0014110071351751685
1152.0,0.00032120966352522373
1280.0,0.000808813376352191
1408.0,0.0006279113003984094
1536.0,-0.00020997949468437582
1664.0,-0.0003186500398442149
1792.0,-0.0007006276864558458
1920.0,-0.0003660689981188625
2048.0,-0.0004169809981249273
2304.0,-0.0008328738622367382
2560.0,-0.00020561390556395054
2816.0,8.731146226637065e-05
3072.0,-0.0003800670965574682
3328.0,-0.0006704112747684121
3584.0,-0.0012995026772841811
3840.0,-0.0007261541322804987
4096.0,-0.0004510816652327776
4608.0,-0.0007314120884984732
5120.0,-0.00019030101248063147
5632.0,7.858867320464924e-05
6144.0,0.0005763914668932557
6656.0,5.078516187495552e-05
7168.0,0.0009886696934700012
7680.0,-0.0004779798036906868
8192.0,0.0005250339745543897
9216.0,0.00018894120876211673
10240.0,-0.0006814864464104176
11264.0,-0.00037708962918259203
12288.0,0.00033321857335977256
13312.0,-0.000193099956959486
14336.0,-0.00019139485084451735
end
