version,3.0
numOfCh,1
type,point
parent_name,8-cuts
ch_type,1_1
kcount,1
numberNandB,1
brightnessNandB,1
carpet pos,0
pc,0
Time (ms),CH1 Auto-Correlation
1.0,0.021224645897746086
2.0,0.020841779187321663
3.0,0.020476417616009712
4.0,0.020129580050706863
5.0,0.019786985591053963
6.0,0.019448690116405487
7.0,0.019120240584015846
8.0,0.018796341493725777
9.0,0.018471507355570793
10.0,0.01815740205347538
11.0,0.017842972651124
12.0,0.01753760688006878
13.0,0.01724390685558319
14.0,0.016961349174380302
15.0,0.016682548448443413
16.0,0.016405796632170677
18.0,0.015889039263129234
20.0,0.015408792532980442
22.0,0.014966796152293682
24.0,0.014565655961632729
26.0,0.014200465753674507
28.0,0.013849482871592045
30.0,0.013510040938854218
32.0,0.013214482925832272
36.0,0.012656962499022484
40.0,0.01214456744492054
44.0,0.011691763997077942
48.0,0.01127447560429573
52.0,0.010922178626060486
56.0,0.010656176134943962
60.0,0.010384153574705124
64.0,0.010056935250759125
72.0,0.009249793365597725
80.0,0.008487789891660213
88.0,0.007883907295763493
96.0,0.007300997618585825
104.0,0.006767559796571732
112.0,0.006264717783778906
120.0,0.005781892221421003
128.0,0.005323376972228289
144.0,0.004404016770422459
160.0,0.003801081795245409
176.0,0.003358543151989579
192.0,0.002979961223900318
208.0,0.002456699963659048
224.0,0.0021167586091905832
240.0,0.0019530674908310175
256.0,0.0021118130534887314
288.0,0.0025731066707521677
320.0,0.0034442730247974396
352.0,0.003648013575002551
384.0,0.0033996044658124447
416.0,0.0027001688722521067
448.0,0.002149484120309353
480.0,0.001408926211297512
512.0,0.0008551881765015423
576.0,0.0005468607996590436
640.0,0.00027596327709034085
704.0,0.0010896697640419006
768.0,0.001433594268746674
832.0,0.0007590503664687276
896.0,-0.00019685359438881278
960.0,-0.001036996953189373
1024.0,-0.0011225364869460464
1152.0,0.0014890963211655617
1280.0,0.0006564376526512206
1408.0,-0.0010495142778381705
1536.0,0.00045834240154363215
1664.0,-0.000616401550360024
1792.0,-0.0024130851961672306
1920.0,-0.0010448256507515907
2048.0,-0.0010608421871438622
2304.0,-0.001880164723843336
2560.0,-0.0027858440298587084
2816.0,-0.002246116055175662
3072.0,-0.0004050072457175702
3328.0,0.00014862653915770352
3584.0,0.0006164803635329008
3840.0,0.0008562520379200578
4096.0,0.0017593099037185311
4608.0,0.0012628108961507678
5120.0,0.0004871278943028301
5632.0,0.00027766075800172985
6144.0,0.00040836038533598185
6656.0,-0.0023692080285400152
7168.0,-0.001058327266946435
7680.0,-0.0008604609756730497
8192.0,-0.0020334776490926743
9216.0,7.799839659128338e-05
10240.0,-0.0008776850299909711
11264.0,-0.001659850007854402
12288.0,-0.0006167976534925401
13312.0,0.001502546132542193
14336.0,0.0007806670037098229
end
