version,3.0
numOfCh,1
type,point
parent_name,8-cuts
ch_type,1_1
kcount,1
numberNandB,1
brightnessNandB,1
carpet pos,0
pc,0
Time (ms),CH1 Auto-Correlation
1.0,0.027793966233730316
2.0,0.027189530432224274
3.0,0.02660556137561798
4.0,0.026043180376291275
5.0,0.025513524189591408
6.0,0.024991322308778763
7.0,0.024490028619766235
8.0,0.02400980331003666
9.0,0.023548871278762817
10.0,0.023132678121328354
11.0,0.022742165252566338
12.0,0.02236330509185791
13.0,0.022006448358297348
14.0,0.021655501797795296
15.0,0.021330900490283966
16.0,0.02101755328476429
18.0,0.02042558789253235
20.0,0.01985333114862442
22.0,0.01929503306746483
24.0,0.018769824877381325
26.0,0.018240662291646004
28.0,0.017722586169838905
30.0,0.017241569235920906
32.0,0.01678386703133583
36.0,0.015925439074635506
40.0,0.01519767101854086
44.0,0.014580341055989265
48.0,0.013966972008347511
52.0,0.013355385512113571
56.0,0.012800023891031742
60.0,0.012296078726649284
64.0,0.011799845844507217
72.0,0.010938108898699284
80.0,0.01022693607956171
88.0,0.009354815818369389
96.0,0.008649435825645924
104.0,0.007876656949520111
112.0,0.007257253862917423
120.0,0.0069303689524531364
128.0,0.00660462211817503
144.0,0.006054113619029522
160.0,0.005589392967522144
176.0,0.004497867077589035
192.0,0.003638488007709384
208.0,0.0029511500615626574
224.0,0.002346258843317628
240.0,0.0017402262892574072
256.0,0.0011701612966135144
288.0,0.00028587516862899065
320.0,7.062890745146433e-06
352.0,-0.00017169788770843297
384.0,-0.00106814072933048
416.0,-0.0007194429636001587
448.0,-0.0005623307079076767
480.0,-0.00016123853856697679
512.0,1.2501669516495895e-05
576.0,-0.0003168375988025218
640.0,-0.0003268589498475194
704.0,-0.001090344158001244
768.0,-0.001574056688696146
832.0,-0.0011125098681077361
896.0,-0.0011573683004826307
960.0,-0.0016106863040477037
1024.0,-0.0012693110620602965
1152.0,-0.0018005089368671179
1280.0,-0.0010789399966597557
1408.0,-0.0003155248414259404
1536.0,-0.0010083509841933846
1664.0,0.0008676355937495828
1792.0,0.00226301490329206
1920.0,0.0006520178285427392
2048.0,-0.0018819784745573997
2304.0,-0.0033175069838762283
2560.0,-0.0020415361505001783
2816.0,0.0007191483746282756
3072.0,-0.0006059568258933723
3328.0,-0.0012315686326473951
3584.0,0.0024404877331107855
3840.0,0.0008422041428275406
4096.0,-0.0007496639736928046
4608.0,0.0027568303048610687
5120.0,-0.0035341321490705013
5632.0,0.00016339260037057102
6144.0,0.00048649765085428953
6656.0,0.0005605024052783847
7168.0,0.0004328981158323586
7680.0,0.0023518153466284275
8192.0,-0.0001521188096376136
9216.0,-0.002573676872998476
10240.0,-0.00022349685605149716
11264.0,-0.00015767601144034415
12288.0,0.003052549436688423
13312.0,-0.0023073505144566298
14336.0,0.0002979334385599941
end
