version,3.0
numOfCh,1
type,point
parent_name,8-cuts
ch_type,1_1
kcount,1
numberNandB,1
brightnessNandB,1
carpet pos,0
pc,0
Time (ms),CH1 Auto-Correlation
1.0,0.07267757505178452
2.0,0.07142339646816254
3.0,0.0701974481344223
4.0,0.06904401630163193
5.0,0.06792497634887695
6.0,0.06683346629142761
7.0,0.06575696170330048
8.0,0.06469616293907166
9.0,0.06368239223957062
10.0,0.06271533668041229
11.0,0.061810221523046494
12.0,0.060946881771087646
13.0,0.060078028589487076
14.0,0.059244170784950256
15.0,0.05840940773487091
16.0,0.05758326128125191
18.0,0.05600632354617119
20.0,0.05444579944014549
22.0,0.05299020931124687
24.0,0.051577676087617874
26.0,0.05018668621778488
28.0,0.04894157126545906
30.0,0.04781420901417732
32.0,0.04670313373208046
36.0,0.04453393071889877
40.0,0.04259377345442772
44.0,0.04092875495553017
48.0,0.03919428214430809
52.0,0.037495363503694534
56.0,0.036205995827913284
60.0,0.03520955145359039
64.0,0.03429015353322029
72.0,0.03257593885064125
80.0,0.030847910791635513
88.0,0.028881868347525597
96.0,0.027477385476231575
104.0,0.026240983977913857
112.0,0.0247665923088789
120.0,0.02341986633837223
128.0,0.022294282913208008
144.0,0.0213985126465559
160.0,0.020690754055976868
176.0,0.019510123878717422
192.0,0.017840247601270676
208.0,0.015512506477534771
224.0,0.013714849017560482
240.0,0.012010158970952034
256.0,0.010386400856077671
288.0,0.008737601339817047
320.0,0.007857374846935272
352.0,0.006162731442600489
384.0,0.0044053103774785995
416.0,0.003119805594906211
448.0,0.0022294148802757263
480.0,0.0012791948392987251
512.0,-0.0002714368747547269
576.0,-0.005720365792512894
640.0,-0.005396323278546333
704.0,-0.008481496945023537
768.0,-0.009464952163398266
832.0,-0.0068582515232264996
896.0,-0.0035533218178898096
960.0,-0.0034592142328619957
1024.0,-0.0022514015436172485
1152.0,-0.003208227688446641
1280.0,-0.00011926751903956756
1408.0,0.00505504896864295
1536.0,0.0020773306023329496
1664.0,-0.004242503084242344
1792.0,-0.0010059673804789782
1920.0,-0.0027385391294956207
2048.0,-0.007758888881653547
2304.0,-0.009602178819477558
2560.0,-0.003841373836621642
2816.0,0.0024594811256974936
3072.0,0.0021215444430708885
3328.0,0.001398957334458828
3584.0,-0.003683877643197775
3840.0,-0.005154978483915329
4096.0,-0.0010397291043773293
4608.0,0.002417347626760602
5120.0,-0.0008032848127186298
5632.0,-0.00315229338593781
6144.0,-0.004135112278163433
6656.0,0.0028046381194144487
7168.0,1.2463335679058218e-06
7680.0,-0.005092156585305929
8192.0,-0.0016666323645040393
9216.0,0.006619551219046116
10240.0,0.0061200703494250774
11264.0,0.0029431446455419064
12288.0,-0.007022574078291655
13312.0,-0.006727279629558325
14336.0,0.006087864749133587
end
