version,3.0
numOfCh,1
type,point
parent_name,8-cuts
ch_type,1_1
kcount,1
numberNandB,1
brightnessNandB,1
carpet pos,0
pc,0
Time (ms),CH1 Auto-Correlation
1.0,0.03225315734744072
2.0,0.031660668551921844
3.0,0.03110254742205143
4.0,0.030559532344341278
5.0,0.030043410137295723
6.0,0.0295488853007555
7.0,0.029069099575281143
8.0,0.028629612177610397
9.0,0.028200725093483925
10.0,0.027797939255833626
11.0,0.027382446452975273
12.0,0.02698150835931301
13.0,0.026602698490023613
14.0,0.026235949248075485
15.0,0.025875411927700043
16.0,0.02553069218993187
18.0,0.024864083155989647
20.0,0.024268148466944695
22.0,0.02371837943792343
24.0,0.0232061967253685
26.0,0.0226774662733078
28.0,0.022168556228280067
30.0,0.021671436727046967
32.0,0.021194150671362877
36.0,0.020273327827453613
40.0,0.019485851749777794
44.0,0.018753577023744583
48.0,0.018081417307257652
52.0,0.017456848174333572
56.0,0.01687442511320114
60.0,0.016355441883206367
64.0,0.015941618010401726
72.0,0.015002083964645863
80.0,0.014140994288027287
88.0,0.013532519340515137
96.0,0.012841388583183289
104.0,0.012109130620956421
112.0,0.011484543792903423
120.0,0.010920168831944466
128.0,0.0104730986058712
144.0,0.00963192991912365
160.0,0.008581249043345451
176.0,0.007992604747414589
192.0,0.007626065518707037
208.0,0.007386602461338043
224.0,0.007183121982961893
240.0,0.007026436738669872
256.0,0.006547833792865276
288.0,0.005669459700584412
320.0,0.004481154959648848
352.0,0.003435293212532997
384.0,0.0021125171333551407
416.0,0.0011753118596971035
448.0,0.001807723194360733
480.0,0.0031119335908442736
512.0,0.003154620761051774
576.0,0.0022933653090149164
640.0,0.0029850048013031483
704.0,0.0018521100282669067
768.0,0.0007174332858994603
832.0,-1.1417486120990361e-06
896.0,-4.580393942887895e-05
960.0,0.0005840757512487471
1024.0,0.00010069573181681335
1152.0,-0.0011662603355944157
1280.0,-0.0018876134417951107
1408.0,-0.002320070518180728
1536.0,-0.0016467387322336435
1664.0,-0.00052652443991974
1792.0,-0.004869992379099131
1920.0,-0.005768562667071819
2048.0,-0.0064085558988153934
2304.0,-0.005396855063736439
2560.0,-0.0014619044959545135
2816.0,5.983947266940959e-05
3072.0,-0.0010243485448881984
3328.0,-0.0023443354293704033
3584.0,0.0004591668548528105
3840.0,0.002683331025764346
4096.0,0.00447130249813199
4608.0,0.003546712687239051
5120.0,0.0011737373424693942
5632.0,-0.0019187090219929814
6144.0,-0.004355463664978743
6656.0,-0.005821627099066973
7168.0,-0.001305347541347146
7680.0,-0.001139701809734106
8192.0,0.00239560310728848
9216.0,0.004445343278348446
10240.0,-0.0019013951532542706
11264.0,-0.0027011919301003218
12288.0,0.0006986011285334826
13312.0,0.002338054124265909
14336.0,-0.0011482085101306438
end
