version,3.0
numOfCh,1
type,point
parent_name,8-cuts
ch_type,1_1
kcount,1
numberNandB,1
brightnessNandB,1
carpet pos,0
pc,0
Time (ms),CH1 Auto-Correlation
1.0,0.05953667685389519
2.0,0.05826578661799431
3.0,0.05700407177209854
4.0,0.05578872933983803
5.0,0.05460039898753166
6.0,0.053454089909791946
7.0,0.05235693231225014
8.0,0.051317017525434494
9.0,0.05027896910905838
10.0,0.049277350306510925
11.0,0.04831935092806816
12.0,0.04739780351519585
13.0,0.046521663665771484
14.0,0.04569562152028084
15.0,0.04491397738456726
16.0,0.04412759095430374
18.0,0.042558006942272186
20.0,0.04109705239534378
22.0,0.03979448974132538
24.0,0.0385492742061615
26.0,0.03737369924783707
28.0,0.03633765131235123
30.0,0.03539853170514107
32.0,0.034553367644548416
36.0,0.03292743116617203
40.0,0.03142392262816429
44.0,0.030019696801900864
48.0,0.02868099883198738
52.0,0.02735845185816288
56.0,0.02612786553800106
60.0,0.024975314736366272
64.0,0.023951096460223198
72.0,0.021774599328637123
80.0,0.01943887770175934
88.0,0.017326539382338524
96.0,0.015562659129500389
104.0,0.014138925820589066
112.0,0.01280763279646635
120.0,0.011921285651624203
128.0,0.011293476447463036
144.0,0.009413911029696465
160.0,0.007475388702005148
176.0,0.00630956469103694
192.0,0.005710247438400984
208.0,0.00628234539180994
224.0,0.0070053706876933575
240.0,0.006594275590032339
256.0,0.00596273597329855
288.0,0.003556342562660575
320.0,0.0019349654903635383
352.0,9.886242332868278e-05
384.0,-0.0020767298992723227
416.0,-0.00042365104309283197
448.0,0.001278802054002881
480.0,0.003730746917426586
512.0,0.004398483783006668
576.0,0.00555926701053977
640.0,0.004530082922428846
704.0,0.0035470749717205763
768.0,0.0035346539225429296
832.0,0.00439228443428874
896.0,0.004178082104772329
960.0,0.0037147109396755695
1024.0,0.003689610632136464
1152.0,0.003991624340415001
1280.0,0.004129995591938496
1408.0,-4.637050369638018e-05
1536.0,-0.0002824499097187072
1664.0,0.0002807019045576453
1792.0,-0.0005219990271143615
1920.0,-0.002968909451738
2048.0,-0.005139822140336037
2304.0,-0.0024140719324350357
2560.0,-0.003072017338126898
2816.0,-0.005421351175755262
3072.0,-0.0061363098211586475
3328.0,-0.003870998742058873
3584.0,-0.0026343916542828083
3840.0,-0.003787481226027012
4096.0,-0.004176270682364702
4608.0,-0.0035173732321709394
5120.0,0.004033174831420183
5632.0,0.006370341405272484
6144.0,0.0032992647029459476
6656.0,0.0053582401014864445
7168.0,0.002138562733307481
7680.0,-0.002389471745118499
8192.0,-0.004907025024294853
9216.0,-0.0050851888954639435
10240.0,-0.0071970378048717976
11264.0,-0.0010949388379231095
12288.0,0.002656053751707077
13312.0,-0.00048762044752947986
14336.0,0.00031939116888679564
end
