version,3.0
numOfCh,1
type,point
parent_name,8-cuts
ch_type,1_1
kcount,1
numberNandB,1
brightnessNandB,1
carpet pos,0
pc,0
Time (ms),CH1 Auto-Correlation
1.0,0.048666998744010925
2.0,0.047554273158311844
3.0,0.046454258263111115
4.0,0.045403122901916504
5.0,0.04436570033431053
6.0,0.04337489604949951
7.0,0.04240812733769417
8.0,0.041499245911836624
9.0,0.04060785844922066
10.0,0.03978449106216431
11.0,0.038991473615169525
12.0,0.038254134356975555
13.0,0.03752885013818741
14.0,0.036819200962781906
15.0,0.036133017390966415
16.0,0.035449687391519547
18.0,0.034187447279691696
20.0,0.032979510724544525
22.0,0.03178904578089714
24.0,0.03067929670214653
26.0,0.02961346134543419
28.0,0.028615595772862434
30.0,0.027647925540804863
32.0,0.026666540652513504
36.0,0.024753553792834282
40.0,0.022865602746605873
44.0,0.021029483526945114
48.0,0.01942426711320877
52.0,0.018077468499541283
56.0,0.017055554315447807
60.0,0.01614164188504219
64.0,0.015207367949187756
72.0,0.01340935006737709
80.0,0.011814716272056103
88.0,0.01011196244508028
96.0,0.008741889148950577
104.0,0.007686925586313009
112.0,0.006825574673712254
120.0,0.006093987263739109
128.0,0.0056002638302743435
144.0,0.004620361607521772
160.0,0.0038031453732401133
176.0,0.0029072884935885668
192.0,0.0014082348207011819
208.0,0.0014997232938185334
224.0,0.0027844987343996763
240.0,0.003975430969148874
256.0,0.004348842427134514
288.0,0.00548179168254137
320.0,0.00447010388597846
352.0,0.0018179279286414385
384.0,0.00044216911192052066
416.0,0.00047208298929035664
448.0,0.0006438599084503949
480.0,0.0006140751065686345
512.0,0.0008453376358374953
576.0,0.0003351904160808772
640.0,-0.000539118773303926
704.0,-0.00014421796367969364
768.0,-0.0009347554878331721
832.0,-0.00044520472874864936
896.0,-0.0032058432698249817
960.0,-0.006339524872601032
1024.0,-0.005054783076047897
1152.0,0.0007201700354926288
1280.0,-0.0007110651349648833
1408.0,0.0004814756684936583
1536.0,0.0015737951034680009
1664.0,-0.0021854648366570473
1792.0,-0.004071592353284359
1920.0,-8.683352643856779e-05
2048.0,0.0013314434327185154
2304.0,-0.0009904216276481748
2560.0,-0.0010457375319674611
2816.0,-0.00271561648696661
3072.0,-0.005168627481907606
3328.0,-0.0038436506874859333
3584.0,-0.0021903456654399633
3840.0,-0.003992900252342224
4096.0,-0.0010783998295664787
4608.0,0.0025136228650808334
5120.0,0.0027336759958416224
5632.0,0.0003073445113841444
6144.0,0.003376885550096631
6656.0,0.0003160423366352916
7168.0,0.003384476527571678
7680.0,-0.0001326314959442243
8192.0,-0.0014301931951195002
9216.0,-0.0027963025495409966
10240.0,-0.0020820656791329384
11264.0,0.0015083132311701775
12288.0,0.0010488544357940555
13312.0,0.00011158693087054417
14336.0,-0.0009919138392433524
end
