version,3.0
numOfCh,1
type,point
parent_name,8-cuts
ch_type,1_1
kcount,1
numberNandB,1
brightnessNandB,1
carpet pos,0
pc,0
Time (ms),CH1 Auto-Correlation
1.0,0.025441203266382217
2.0,0.02504095993936062
3.0,0.024659303948283195
4.0,0.024296676740050316
5.0,0.023954737931489944
6.0,0.023623812943696976
7.0,0.023305188864469528
8.0,0.02300150692462921
9.0,0.02270553819835186
10.0,0.022423794493079185
11.0,0.022135624662041664
12.0,0.021857988089323044
13.0,0.021584821864962578
14.0,0.021324072033166885
15.0,0.02106514200568199
16.0,0.02081168442964554
18.0,0.020319217815995216
20.0,0.019834090024232864
22.0,0.01936234161257744
24.0,0.01890382543206215
26.0,0.018471648916602135
28.0,0.01805088296532631
30.0,0.017669599503278732
32.0,0.01731552556157112
36.0,0.016674017533659935
40.0,0.016064178198575974
44.0,0.015517465770244598
48.0,0.015067661181092262
52.0,0.014640565030276775
56.0,0.014234796166419983
60.0,0.013795093633234501
64.0,0.013396809808909893
72.0,0.01267155073583126
80.0,0.011932595632970333
88.0,0.011301934719085693
96.0,0.010771789588034153
104.0,0.010175654664635658
112.0,0.009608123451471329
120.0,0.009018803015351295
128.0,0.008402839303016663
144.0,0.0073873912915587425
160.0,0.006751697510480881
176.0,0.0063050189055502415
192.0,0.005810714326798916
208.0,0.005344644654542208
224.0,0.004809344653040171
240.0,0.004013892263174057
256.0,0.003415304236114025
288.0,0.0027504349127411842
320.0,0.002382084261626005
352.0,0.0019538437481969595
384.0,0.0017258193111047149
416.0,0.0017053282354027033
448.0,0.0015995916910469532
480.0,0.0015980417374521494
512.0,0.0012866229517385364
576.0,0.00044625537702813745
640.0,-0.0006465872284024954
704.0,-0.0013812137767672539
768.0,-0.0012728904839605093
832.0,-0.0011054851347580552
896.0,-0.0007126382552087307
960.0,-0.00029826542595401406
1024.0,5.431397948996164e-05
1152.0,0.0007234651129692793
1280.0,0.0019467147067189217
1408.0,0.0007574570481665432
1536.0,-0.0003355048829689622
1664.0,0.0026650421787053347
1792.0,0.004427202511578798
1920.0,0.0036368973087519407
2048.0,0.001801702892407775
2304.0,-0.00037969741970300674
2560.0,-0.001239520963281393
2816.0,0.0013309669448062778
3072.0,0.0007389959646388888
3328.0,-0.0008930604089982808
3584.0,-0.0003914797562174499
3840.0,-0.0005272877751849592
4096.0,0.0002237308508483693
4608.0,-0.0015499053988605738
5120.0,-0.0015674831811338663
5632.0,-0.00040815433021634817
6144.0,-0.0017980723641812801
6656.0,-0.0013439595932140946
7168.0,-0.0011206429917365313
7680.0,-0.0014942145207896829
8192.0,-0.0006786984740756452
9216.0,-1.0217481758445501e-05
10240.0,-0.0030889397021383047
11264.0,-0.0006608670810237527
12288.0,-0.0009262014064006507
13312.0,0.001953347120434046
14336.0,0.0045115458779037
end
