version,3.0
numOfCh,1
type,point
parent_name,8-cuts
ch_type,1_1
kcount,1
numberNandB,1
brightnessNandB,1
carpet pos,0
pc,0
Time (ms),CH1 Auto-Correlation
1.0,0.02009071595966816
2.0,0.019696639850735664
3.0,0.01931578852236271
4.0,0.01893949881196022
5.0,0.018583185970783234
6.0,0.01824195124208927
7.0,0.017908433452248573
8.0,0.017586341127753258
9.0,0.017267072573304176
10.0,0.016960185021162033
11.0,0.0166678037494421
12.0,0.016388239338994026
13.0,0.016118541359901428
14.0,0.015859469771385193
15.0,0.015609338879585266
16.0,0.015358895063400269
18.0,0.014886370860040188
20.0,0.014439516700804234
22.0,0.014004210941493511
24.0,0.01358183566480875
26.0,0.013191640377044678
28.0,0.012837612070143223
30.0,0.012510797008872032
32.0,0.012192937545478344
36.0,0.011573268100619316
40.0,0.011024070903658867
44.0,0.010557278990745544
48.0,0.010144821368157864
52.0,0.009744489565491676
56.0,0.009324571117758751
60.0,0.00890809390693903
64.0,0.008509951643645763
72.0,0.007790246978402138
80.0,0.007176138926297426
88.0,0.00662070931866765
96.0,0.0060439747758209705
104.0,0.005586388520896435
112.0,0.005252587143331766
120.0,0.004901965614408255
128.0,0.004585031419992447
144.0,0.004174502566456795
160.0,0.003950709477066994
176.0,0.003888213075697422
192.0,0.0036077231634408236
208.0,0.0030464704614132643
224.0,0.0024955179542303085
240.0,0.0021153725683689117
256.0,0.0018093388061970472
288.0,0.000812418875284493
320.0,0.0008790070423856378
352.0,0.0010784761980175972
384.0,0.001439679996110499
416.0,0.0017099423566833138
448.0,0.0012116724392399192
480.0,0.0010195060167461634
512.0,0.0011402801610529423
576.0,0.001237367745488882
640.0,0.002889951691031456
704.0,0.0028884524945169687
768.0,0.002019231440499425
832.0,0.0024936674162745476
896.0,0.0010747150518000126
960.0,0.00032577087404206395
1024.0,-0.00020663932082243264
1152.0,0.0004263801092747599
1280.0,-7.549109432147816e-05
1408.0,-0.0003686990530695766
1536.0,0.00018007670587394387
1664.0,0.0007739614811725914
1792.0,0.00020090395992156118
1920.0,0.0004132421163376421
2048.0,0.0011667362414300442
2304.0,-0.0006013536476530135
2560.0,0.0006750476313754916
2816.0,0.00023596911341883242
3072.0,-0.002810652833431959
3328.0,0.0001204284344566986
3584.0,-0.0005501555860973895
3840.0,-0.0005753934965468943
4096.0,-0.0007323242607526481
4608.0,-0.0008889355231076479
5120.0,-0.0013286422472447157
5632.0,0.0006646367837674916
6144.0,0.0007739258580841124
6656.0,-0.0017274273559451103
7168.0,-0.000839578453451395
7680.0,-0.0022875089198350906
8192.0,-0.001373619306832552
9216.0,-0.001739163533784449
10240.0,-0.0021270476281642914
11264.0,-0.00010837621812243015
12288.0,0.0021367159206420183
13312.0,0.0018550812965258956
14336.0,0.003660863498225808
end
