version,3.0
numOfCh,1
type,point
parent_name,8-cuts
ch_type,1_1
kcount,1
numberNandB,1
brightnessNandB,1
carpet pos,0
pc,0
Time (ms),CH1 Auto-Correlation
1.0,0.06906113028526306
2.0,0.06787355989217758
3.0,0.06674987822771072
4.0,0.06566069275140762
5.0,0.0645858496427536
6.0,0.06355921924114227
7.0,0.06256409734487534
8.0,0.06159909442067146
9.0,0.06064087525010109
10.0,0.05969597026705742
11.0,0.05880124121904373
12.0,0.05790556222200394
13.0,0.057032112032175064
14.0,0.056154537945985794
15.0,0.05529399961233139
16.0,0.05445641651749611
18.0,0.05278269574046135
20.0,0.05120669677853584
22.0,0.04974323883652687
24.0,0.04840332269668579
26.0,0.047188788652420044
28.0,0.0460784025490284
30.0,0.04502449929714203
32.0,0.04399878904223442
36.0,0.04192629083991051
40.0,0.03980369120836258
44.0,0.03784412518143654
48.0,0.03611874580383301
52.0,0.03451047092676163
56.0,0.03307424858212471
60.0,0.03186655044555664
64.0,0.030694251880049706
72.0,0.028695231303572655
80.0,0.02689717710018158
88.0,0.024952981621026993
96.0,0.022857677191495895
104.0,0.020902693271636963
112.0,0.01958652213215828
120.0,0.018760262057185173
128.0,0.01790185272693634
144.0,0.016370873898267746
160.0,0.015170308761298656
176.0,0.01412502396851778
192.0,0.014145420864224434
208.0,0.014850220642983913
224.0,0.01484394259750843
240.0,0.014135591685771942
256.0,0.01317224558442831
288.0,0.011631128378212452
320.0,0.010732877068221569
352.0,0.0095340795814991
384.0,0.009645544923841953
416.0,0.009976750239729881
448.0,0.009287434630095959
480.0,0.0069333710707724094
512.0,0.005791264120489359
576.0,0.005542978644371033
640.0,0.00729671074077487
704.0,0.00877399742603302
768.0,0.007462171372026205
832.0,0.008554071187973022
896.0,0.008021103218197823
960.0,0.006700834259390831
1024.0,0.004929950926452875
1152.0,0.0004134965711273253
1280.0,0.0012220891658216715
1408.0,-0.004845759365707636
1536.0,-0.0049324617721140385
1664.0,-0.0012318432563915849
1792.0,-0.0006092230905778706
1920.0,0.0008037976222112775
2048.0,0.0027541308663785458
2304.0,0.004362891893833876
2560.0,0.0036213158164173365
2816.0,0.0061775860376656055
3072.0,0.009746994823217392
3328.0,0.004127746447920799
3584.0,0.0012500486336648464
3840.0,-0.0013608859153464437
4096.0,-0.0030155512504279613
4608.0,-0.0021574636921286583
5120.0,-0.0009936402784660459
5632.0,-0.0068921297788619995
6144.0,-0.010614516213536263
6656.0,-0.007569973357021809
7168.0,-0.0011698573362082243
7680.0,0.0010601114481687546
8192.0,-0.0032070085871964693
9216.0,-0.013862447813153267
10240.0,-0.003247760236263275
11264.0,-0.010267199017107487
12288.0,0.0038332182448357344
13312.0,0.0032298231963068247
14336.0,0.0035497481003403664
end
