version,3.0
numOfCh,1
type,point
parent_name,8-cuts
ch_type,1_1
kcount,1
numberNandB,1
brightnessNandB,1
carpet pos,0
pc,0
Time (ms),CH1 Auto-Correlation
1.0,0.022504199296236038
2.0,0.022106025367975235
3.0,0.021716678515076637
4.0,0.02133859507739544
5.0,0.020974736660718918
6.0,0.02062462642788887
7.0,0.020280921831727028
8.0,0.019938774406909943
9.0,0.01961434632539749
10.0,0.019313400611281395
11.0,0.01902863010764122
12.0,0.018761562183499336
13.0,0.01850469410419464
14.0,0.01825404167175293
15.0,0.017999853938817978
16.0,0.017761334776878357
18.0,0.01731070876121521
20.0,0.016869014129042625
22.0,0.01645175740122795
24.0,0.01606379821896553
26.0,0.015684382990002632
28.0,0.015327220782637596
30.0,0.014981397427618504
32.0,0.014657346531748772
36.0,0.014083253219723701
40.0,0.013574324548244476
44.0,0.013127145357429981
48.0,0.012759135104715824
52.0,0.012439115904271603
56.0,0.012107152491807938
60.0,0.01178609486669302
64.0,0.011490660719573498
72.0,0.010998799465596676
80.0,0.01046792883425951
88.0,0.009861771017313004
96.0,0.009280970320105553
104.0,0.008817804977297783
112.0,0.008397423662245274
120.0,0.007965512573719025
128.0,0.007364616729319096
144.0,0.006443611811846495
160.0,0.005756517872214317
176.0,0.0051737441681325436
192.0,0.004529453814029694
208.0,0.0038217150140553713
224.0,0.0031870175153017044
240.0,0.0030474502127617598
256.0,0.0033947345800697803
288.0,0.003027880098670721
320.0,0.0025613668840378523
352.0,0.002172617707401514
384.0,0.002575246151536703
416.0,0.0031906156800687313
448.0,0.003374225227162242
480.0,0.0036565663758665323
512.0,0.003555024042725563
576.0,0.004169813822954893
640.0,0.0037496958393603563
704.0,0.0037507566157728434
768.0,0.0023300021421164274
832.0,0.0012839691480621696
896.0,-6.642005610046908e-05
960.0,7.781988097121939e-05
1024.0,-0.000788800825830549
1152.0,0.0008070335607044399
1280.0,0.0016695959493517876
1408.0,-0.00027417755336500704
1536.0,-0.001826687715947628
1664.0,-0.001291456981562078
1792.0,0.00040817310218699276
1920.0,-9.235065226675943e-05
2048.0,-0.0012806373415514827
2304.0,-0.002789010526612401
2560.0,-0.00027986973873339593
2816.0,0.001312910346314311
3072.0,0.0029977383092045784
3328.0,0.0015927099157124758
3584.0,-0.00043455458944663405
3840.0,-0.0022513887379318476
4096.0,-0.0031547120306640863
4608.0,-0.0035208556801080704
5120.0,-0.00367629318498075
5632.0,-0.0012743687257170677
6144.0,0.00046138145262375474
6656.0,-0.00042654259596019983
7168.0,-0.00116636767052114
7680.0,-0.0007211978663690388
8192.0,-0.0014739121543243527
9216.0,6.62529855617322e-05
10240.0,0.0009349009487777948
11264.0,0.001458856975659728
12288.0,0.0011903408449143171
13312.0,4.3069216189906e-05
14336.0,-0.0001900938368635252
end
