version,3.0
numOfCh,1
type,point
parent_name,8-cuts
ch_type,1_1
kcount,1
numberNandB,1
brightnessNandB,1
carpet pos,0
pc,0
Time (ms),CH1 Auto-Correlation
1.0,0.023206613957881927
2.0,0.02281157486140728
3.0,0.022428540512919426
4.0,0.0220662672072649
5.0,0.02170555852353573
6.0,0.021354343742132187
7.0,0.02102634124457836
8.0,0.02070552669465542
9.0,0.02039979211986065
10.0,0.02010936290025711
11.0,0.019834913313388824
12.0,0.019568823277950287
13.0,0.019307883456349373
14.0,0.019051600247621536
15.0,0.018796373158693314
16.0,0.018544182181358337
18.0,0.018052782863378525
20.0,0.017571793869137764
22.0,0.017125098034739494
24.0,0.016716061159968376
26.0,0.01632625050842762
28.0,0.01593298651278019
30.0,0.015543556772172451
32.0,0.015156661160290241
36.0,0.01439223624765873
40.0,0.013728991150856018
44.0,0.013134640641510487
48.0,0.012613637372851372
52.0,0.012097910977900028
56.0,0.011666680686175823
60.0,0.011301279999315739
64.0,0.010956952348351479
72.0,0.010157862678170204
80.0,0.009439638815820217
88.0,0.008952848613262177
96.0,0.008426826447248459
104.0,0.007821633480489254
112.0,0.007162824738770723
120.0,0.00659630261361599
128.0,0.006176664028316736
144.0,0.0053559779189527035
160.0,0.004715341608971357
176.0,0.004389060661196709
192.0,0.004189613275229931
208.0,0.004145887680351734
224.0,0.0039197602309286594
240.0,0.00367179187014699
256.0,0.0032130235340446234
288.0,0.0017620777944102883
320.0,0.0008667792426422238
352.0,0.00015778378292452544
384.0,-0.00044499218347482383
416.0,-0.0009040387813001871
448.0,-0.0013867805246263742
480.0,-0.0016502636717632413
512.0,-0.0012394512305036187
576.0,-0.0003511943214107305
640.0,7.583911065012217e-05
704.0,0.0004486370598897338
768.0,0.0016757461708039045
832.0,0.0035165867302566767
896.0,0.004113844595849514
960.0,0.0037886539939790964
1024.0,0.0025648607406765223
1152.0,0.0028162291273474693
1280.0,0.00030501766013912857
1408.0,0.0010648282477632165
1536.0,0.0020512326154857874
1664.0,0.0031740637496113777
1792.0,0.0019050538539886475
1920.0,2.3437542040483095e-05
2048.0,7.9415796790272e-05
2304.0,-0.0012149396352469921
2560.0,6.003739690640941e-05
2816.0,-0.0006550082471221685
3072.0,-2.9457825803547166e-05
3328.0,0.00016972050070762634
3584.0,-0.002061238745227456
3840.0,-0.0028503776993602514
4096.0,-0.0012935607228428125
4608.0,0.0006385263404808939
5120.0,-0.00014010370068717748
5632.0,0.00027206228696741164
6144.0,0.0006881667650304735
6656.0,-0.001399761764332652
7168.0,-0.002077052602544427
7680.0,-0.00026450122823007405
8192.0,-0.0038744269404560328
9216.0,-0.0035507434513419867
10240.0,-0.002163172233849764
11264.0,-0.0005536217358894646
12288.0,0.001998202409595251
13312.0,0.0014944564318284392
14336.0,0.0010118155041709542
end
