version,3.0
numOfCh,1
type,point
parent_name,8-cuts
ch_type,1_1
kcount,1
numberNandB,1
brightnessNandB,1
carpet pos,0
pc,0
Time (ms),CH1 Auto-Correlation
1.0,0.02308913879096508
2.0,0.022677330300211906
3.0,0.022270185872912407
4.0,0.02187572792172432
5.0,0.021496329456567764
6.0,0.021122796460986137
7.0,0.020756827667355537
8.0,0.020403370261192322
9.0,0.02006424590945244
10.0,0.01972931995987892
11.0,0.019400885328650475
12.0,0.019088029861450195
13.0,0.018772773444652557
14.0,0.018466845154762268
15.0,0.018160076811909676
16.0,0.017861584201455116
18.0,0.017312102019786835
20.0,0.016782626509666443
22.0,0.016274645924568176
24.0,0.015774695202708244
26.0,0.015311107970774174
28.0,0.014859121292829514
30.0,0.014420216903090477
32.0,0.0139947310090065
36.0,0.013159601017832756
40.0,0.012364877387881279
44.0,0.011621732264757156
48.0,0.010894784703850746
52.0,0.010186746716499329
56.0,0.009493962861597538
60.0,0.008862759917974472
64.0,0.008353732526302338
72.0,0.007518461439758539
80.0,0.006793745793402195
88.0,0.006276904605329037
96.0,0.005915156565606594
104.0,0.005860648117959499
112.0,0.005855110008269548
120.0,0.005731768906116486
128.0,0.0054136947728693485
144.0,0.004792121239006519
160.0,0.004277810920029879
176.0,0.003795371623709798
192.0,0.0030105572659522295
208.0,0.00227196142077446
224.0,0.0017933215713128448
240.0,0.001753778662532568
256.0,0.001694940496236086
288.0,0.001360984519124031
320.0,0.001271572895348072
352.0,0.0014197462005540729
384.0,0.0014286210061982274
416.0,0.0014883540570735931
448.0,0.001679650042206049
480.0,0.0018671950092539191
512.0,0.0016078443732112646
576.0,0.0010071976576000452
640.0,0.0022701011039316654
704.0,0.0027276482433080673
768.0,0.0018836203962564468
832.0,-0.0001405149814672768
896.0,-0.0007533241878263652
960.0,-0.0020967437885701656
1024.0,-0.00170605955645442
1152.0,0.0008688390371389687
1280.0,0.0007521393126808107
1408.0,0.00015581051411572844
1536.0,-4.379105303087272e-05
1664.0,-0.0007284829043783247
1792.0,-0.0014542987337335944
1920.0,-0.00022993754828348756
2048.0,0.00046194452443160117
2304.0,-0.0011339274933561683
2560.0,0.000733950175344944
2816.0,2.0703228074125946e-05
3072.0,0.0015064373146742582
3328.0,0.0010572272585704923
3584.0,0.001779126818291843
3840.0,0.0032445352990180254
4096.0,0.0016953478334471583
4608.0,-0.0005226716748438776
5120.0,2.542270885896869e-05
5632.0,-0.002146894810721278
6144.0,-0.0020747126545757055
6656.0,-0.001696207677014172
7168.0,-0.0002756491012405604
7680.0,0.0017912464682012796
8192.0,9.774964564712718e-05
9216.0,-0.0009566826629452407
10240.0,-0.0035843132063746452
11264.0,-0.00016018316091503948
12288.0,0.0009108505328185856
13312.0,-0.003955134656280279
14336.0,-0.0007319045253098011
end
