version,3.0
numOfCh,1
type,point
parent_name,8-cuts
ch_type,1_1
kcount,1
numberNandB,1
brightnessNandB,1
carpet pos,0
pc,0
Time (ms),CH1 Auto-Correlation
1.0,0.0203302800655365
2.0,0.019931446760892868
3.0,0.019551211968064308
4.0,0.01919056847691536
5.0,0.018843162804841995
6.0,0.01850643940269947
7.0,0.0181778222322464
8.0,0.01787145622074604
9.0,0.01757361926138401
10.0,0.017283925786614418
11.0,0.017002414911985397
12.0,0.01673327013850212
13.0,0.016461081802845
14.0,0.016195043921470642
15.0,0.015941401943564415
16.0,0.01569795235991478
18.0,0.01523546315729618
20.0,0.014803102239966393
22.0,0.014392448589205742
24.0,0.013993202708661556
26.0,0.013611238449811935
28.0,0.01327154878526926
30.0,0.012946011498570442
32.0,0.012620864436030388
36.0,0.011983055621385574
40.0,0.01140922773629427
44.0,0.010868893936276436
48.0,0.010348441079258919
52.0,0.009861132130026817
56.0,0.009398029185831547
60.0,0.008985936641693115
64.0,0.008614095859229565
72.0,0.007888133637607098
80.0,0.007151274476200342
88.0,0.006683856248855591
96.0,0.006292748264968395
104.0,0.005917704664170742
112.0,0.005528743844479322
120.0,0.0052438294515013695
128.0,0.005013723392039537
144.0,0.004539276473224163
160.0,0.004120745696127415
176.0,0.0037733116187155247
192.0,0.003611752763390541
208.0,0.0033655378501862288
224.0,0.0030788553413003683
240.0,0.002617461374029517
256.0,0.00208359700627625
288.0,0.0012967914808541536
320.0,0.000884135952219367
352.0,0.0008448630687780678
384.0,0.0012171318521723151
416.0,0.0016092699952423573
448.0,0.001532255788333714
480.0,0.0018691768636927009
512.0,0.002251026453450322
576.0,0.0020481206011027098
640.0,0.0011240888852626085
704.0,0.00044650593190453947
768.0,-0.0001683542795944959
832.0,-0.000868572446051985
896.0,-0.0007182113477028906
960.0,6.763322744518518e-05
1024.0,-0.0003139871114399284
1152.0,-0.0002059567195829004
1280.0,-0.0006143786595202982
1408.0,-5.96372592553962e-05
1536.0,0.000303035689285025
1664.0,-0.0003074393607676029
1792.0,-0.0006023976602591574
1920.0,-0.00032807220122776926
2048.0,-0.0006033165263943374
2304.0,-0.0004411546397022903
2560.0,-0.0005685144569724798
2816.0,-0.0013662530109286308
3072.0,-0.0005477949162013829
3328.0,-0.0018904029857367277
3584.0,-0.00027742463862523437
3840.0,0.0009467178606428206
4096.0,0.0010271926876157522
4608.0,-7.654594810446724e-05
5120.0,-0.0008203667821362615
5632.0,0.00012008246267214417
6144.0,0.0007460782653652132
6656.0,0.0006110395188443363
7168.0,-0.00015397615788970143
7680.0,-0.00021801968978252262
8192.0,0.0002160263538826257
9216.0,-0.0021334115881472826
10240.0,-0.0028056742157787085
11264.0,-1.2645563401747495e-05
12288.0,0.0018976439023390412
13312.0,0.0012974691344425082
14336.0,-0.0002625947818160057
end
