version,3.0
numOfCh,1
type,point
parent_name,8-cuts
ch_type,1_1
kcount,1
numberNandB,1
brightnessNandB,1
carpet pos,0
pc,0
Time (ms),CH1 Auto-Correlation
1.0,0.02324068918824196
2.0,0.022852212190628052
3.0,0.0224795900285244
4.0,0.02211611345410347
5.0,0.021761836484074593
6.0,0.021414687857031822
7.0,0.02107294090092182
8.0,0.020748691633343697
9.0,0.020437974482774734
10.0,0.02013998292386532
11.0,0.01985004171729088
12.0,0.019571634009480476
13.0,0.01929592527449131
14.0,0.01902233622968197
15.0,0.01875479519367218
16.0,0.018491582944989204
18.0,0.018006086349487305
20.0,0.017550639808177948
22.0,0.01714245229959488
24.0,0.016757184639573097
26.0,0.016382966190576553
28.0,0.016041461378335953
30.0,0.015735628083348274
32.0,0.015452254563570023
36.0,0.014893144369125366
40.0,0.014344270341098309
44.0,0.013908118940889835
48.0,0.013572124764323235
52.0,0.01320437528192997
56.0,0.012876370921730995
60.0,0.012577342800796032
64.0,0.01219562441110611
72.0,0.011331035755574703
80.0,0.01062525063753128
88.0,0.010036023333668709
96.0,0.009536604396998882
104.0,0.008969179354608059
112.0,0.008382040075957775
120.0,0.007797151803970337
128.0,0.007337172050029039
144.0,0.006803753785789013
160.0,0.006320695858448744
176.0,0.005498331971466541
192.0,0.004508292768150568
208.0,0.004041104577481747
224.0,0.0036302744410932064
240.0,0.0033792576286941767
256.0,0.003300885669887066
288.0,0.002806231379508972
320.0,0.0027088553179055452
352.0,0.002351758535951376
384.0,0.002574194921180606
416.0,0.002667422406375408
448.0,0.003322029020637274
480.0,0.003513265633955598
512.0,0.0029582432471215725
576.0,0.0029203640297055244
640.0,0.0030875992961227894
704.0,0.0020092756021767855
768.0,0.0006824088632129133
832.0,9.473249519942328e-05
896.0,-8.783490193309262e-05
960.0,-0.00043750397162511945
1024.0,0.000394945265725255
1152.0,0.0007331962697207928
1280.0,0.0005992620135657489
1408.0,-0.0005007953150197864
1536.0,-0.001866365666501224
1664.0,-0.002239211229607463
1792.0,-0.003069462953135371
1920.0,-0.002539736684411764
2048.0,-0.001961376750841737
2304.0,-0.0028210505843162537
2560.0,-0.001941970782354474
2816.0,-0.002463885582983494
3072.0,-0.003300240496173501
3328.0,-0.001506764441728592
3584.0,0.0018788508605211973
3840.0,0.0009770261822268367
4096.0,0.0021981652826070786
4608.0,0.003025243990123272
5120.0,0.0024261276703327894
5632.0,0.0020483408588916063
6144.0,0.0008756588213145733
6656.0,-0.0005441610119305551
7168.0,-0.002708340296521783
7680.0,-0.003835802199319005
8192.0,-0.003948213532567024
9216.0,-0.0001750846131471917
10240.0,0.0008136042742989957
11264.0,0.0011874550255015492
12288.0,-0.0040803696028888226
13312.0,-0.001043507014401257
14336.0,-0.0008940658299252391
end
