version,3.0
numOfCh,1
type,point
parent_name,8-cuts
ch_type,1_1
kcount,1
numberNandB,1
brightnessNandB,1
carpet pos,0
pc,0
Time (ms),CH1 Auto-Correlation
1.0,0.02268338017165661
2.0,0.02228732593357563
3.0,0.02190178819000721
4.0,0.02153375744819641
5.0,0.021177399903535843
6.0,0.02083350531756878
7.0,0.02049962244927883
8.0,0.02017262764275074
9.0,0.01984681375324726
10.0,0.019537167623639107
11.0,0.01923055201768875
12.0,0.01894117146730423
13.0,0.01866256631910801
14.0,0.01838574931025505
15.0,0.01811002567410469
16.0,0.017849676311016083
18.0,0.017351144924759865
20.0,0.0168790053576231
22.0,0.01644417829811573
24.0,0.016016215085983276
26.0,0.01561221294105053
28.0,0.015212117694318295
30.0,0.014834676869213581
32.0,0.014505449682474136
36.0,0.013944704085588455
40.0,0.013453489169478416
44.0,0.012951748445630074
48.0,0.012461788021028042
52.0,0.011987170204520226
56.0,0.011498517356812954
60.0,0.011031183414161205
64.0,0.010631312616169453
72.0,0.009933275170624256
80.0,0.009133495390415192
88.0,0.008463598787784576
96.0,0.007949408143758774
104.0,0.007419318426400423
112.0,0.006968460977077484
120.0,0.006542194169014692
128.0,0.006233717314898968
144.0,0.005632540211081505
160.0,0.005078233312815428
176.0,0.004838368855416775
192.0,0.005136863328516483
208.0,0.005383625626564026
224.0,0.005380403716117144
240.0,0.00536217400804162
256.0,0.005468686111271381
288.0,0.005381693132221699
320.0,0.004977219272404909
352.0,0.0054317801259458065
384.0,0.0052681840024888515
416.0,0.00491879740729928
448.0,0.004644826520234346
480.0,0.004655635915696621
512.0,0.004713563248515129
576.0,0.004248578101396561
640.0,0.004061430227011442
704.0,0.003498662728816271
768.0,0.002360983518883586
832.0,0.0014282206539064646
896.0,0.001408292562700808
960.0,0.001552428351715207
1024.0,0.0012706635752692819
1152.0,-0.00037940722540952265
1280.0,9.53215203480795e-05
1408.0,-0.0024029107298702
1536.0,-0.0006694918847642839
1664.0,-0.0006544822826981544
1792.0,-0.002835682360455394
1920.0,-0.002737130969762802
2048.0,-0.0019584542606025934
2304.0,-0.003795205382630229
2560.0,-0.004326280672103167
2816.0,-0.0019313329830765724
3072.0,-0.0029415879398584366
3328.0,-0.0008118054247461259
3584.0,0.0008942080894485116
3840.0,0.0027764951810240746
4096.0,0.001835993374697864
4608.0,0.000805218587629497
5120.0,0.0005713016143999994
5632.0,-0.0005804651300422847
6144.0,-0.002432686509564519
6656.0,-0.0003037267888430506
7168.0,0.001139006926678121
7680.0,0.0004448763793334365
8192.0,0.0004594401107169688
9216.0,-0.004288236610591412
10240.0,-0.0038469419814646244
11264.0,0.0006699152290821075
12288.0,0.004967199172824621
13312.0,0.0006245820550248027
14336.0,-0.0013696275418624282
end
