version,3.0
numOfCh,1
type,point
parent_name,8-cuts
ch_type,1_1
kcount,1
numberNandB,1
brightnessNandB,1
carpet pos,0
pc,0
Time (ms),CH1 Auto-Correlation
1.0,0.07290925085544586
2.0,0.07176131755113602
3.0,0.07063230127096176
4.0,0.06949902325868607
5.0,0.0684071034193039
6.0,0.0674295648932457
7.0,0.06649406999349594
8.0,0.06560764461755753
9.0,0.06474802643060684
10.0,0.06386618316173553
11.0,0.06303905695676804
12.0,0.06223243102431297
13.0,0.06144382804632187
14.0,0.06064412742853165
15.0,0.05986328050494194
16.0,0.0591169148683548
18.0,0.057746220380067825
20.0,0.05641929805278778
22.0,0.055111341178417206
24.0,0.0538911372423172
26.0,0.05272172391414642
28.0,0.051572784781455994
30.0,0.0505484938621521
32.0,0.04962523281574249
36.0,0.04784133657813072
40.0,0.04600255563855171
44.0,0.04432287812232971
48.0,0.04303957521915436
52.0,0.04180876165628433
56.0,0.04062469303607941
60.0,0.039406731724739075
64.0,0.0381140261888504
72.0,0.03562451899051666
80.0,0.033855173736810684
88.0,0.03221890702843666
96.0,0.03037778101861477
104.0,0.028594741597771645
112.0,0.02716168388724327
120.0,0.025983503088355064
128.0,0.02533920854330063
144.0,0.02455524355173111
160.0,0.024055449292063713
176.0,0.023230157792568207
192.0,0.021263038739562035
208.0,0.01885542832314968
224.0,0.016214748844504356
240.0,0.013265426270663738
256.0,0.01175622083246708
288.0,0.008150213398039341
320.0,0.006111237220466137
352.0,0.0038573776837438345
384.0,0.0020011134911328554
416.0,0.002254568738862872
448.0,0.002734391251578927
480.0,0.002830273937433958
512.0,0.004718086216598749
576.0,0.005300773773342371
640.0,0.006425113417208195
704.0,0.004324700683355331
768.0,0.004043782129883766
832.0,0.0076994034461677074
896.0,0.00851149670779705
960.0,0.007725921925157309
1024.0,0.006071928422898054
1152.0,0.0009024314931593835
1280.0,-0.0036928681656718254
1408.0,-0.003747545648366213
1536.0,-0.0052419244311749935
1664.0,-0.008042072877287865
1792.0,-0.00037665746640414
1920.0,0.0021922150626778603
2048.0,-0.000800109701231122
2304.0,0.001048560836352408
2560.0,-0.004712890833616257
2816.0,-0.006080699618905783
3072.0,0.0037793884985148907
3328.0,-0.000995470560155809
3584.0,-0.010779011063277721
3840.0,-0.011211651377379894
4096.0,-0.01160680316388607
4608.0,-0.01245433185249567
5120.0,-0.0014698585728183389
5632.0,0.002328810514882207
6144.0,0.0028875546995550394
6656.0,0.002405107021331787
7168.0,0.0057061840780079365
7680.0,0.0003782258427236229
8192.0,0.005518503021448851
9216.0,-0.0015839614206925035
10240.0,-0.00012153626448707655
11264.0,-0.001908706733956933
12288.0,0.003586274804547429
13312.0,0.00015498159336857498
14336.0,-0.004522556904703379
end
