version,3.0
numOfCh,1
type,point
parent_name,8-cuts
ch_type,1_1
kcount,1
numberNandB,1
brightnessNandB,1
carpet pos,0
pc,0
Time (ms),CH1 Auto-Correlation
1.0,0.06770016998052597
2.0,0.06655865907669067
3.0,0.06543032079935074
4.0,0.06435531377792358
5.0,0.06330942362546921
6.0,0.06229820474982262
7.0,0.06132400035858154
8.0,0.06035640835762024
9.0,0.059435952454805374
10.0,0.05853113532066345
11.0,0.057695966213941574
12.0,0.05690418928861618
13.0,0.056164760142564774
14.0,0.05543001368641853
15.0,0.05469658225774765
16.0,0.0539710558950901
18.0,0.0526108518242836
20.0,0.051404211670160294
22.0,0.05023195967078209
24.0,0.04906637594103813
26.0,0.047910600900650024
28.0,0.046843308955430984
30.0,0.0458281971514225
32.0,0.044825226068496704
36.0,0.04302435740828514
40.0,0.041402384638786316
44.0,0.03998268023133278
48.0,0.038585320115089417
52.0,0.03712773323059082
56.0,0.03565399348735809
60.0,0.03427434340119362
64.0,0.03293852135539055
72.0,0.03062622621655464
80.0,0.028327368199825287
88.0,0.02576310932636261
96.0,0.023554489016532898
104.0,0.02187529020011425
112.0,0.020814059302210808
120.0,0.019931497052311897
128.0,0.019208263605833054
144.0,0.018289877101778984
160.0,0.016338255256414413
176.0,0.013766486197710037
192.0,0.011460491456091404
208.0,0.010119141079485416
224.0,0.009132222272455692
240.0,0.008691219612956047
256.0,0.008468766696751118
288.0,0.006847021169960499
320.0,0.005069205537438393
352.0,0.0038748239167034626
384.0,0.0038756553549319506
416.0,0.004630369134247303
448.0,0.005825374275445938
480.0,0.005009246990084648
512.0,0.003747807117179036
576.0,-0.0002835832128766924
640.0,-0.005259425844997168
704.0,-0.006184468045830727
768.0,-0.003795087104663253
832.0,-0.004086355213075876
896.0,-0.0028903859201818705
960.0,-0.003957968205213547
1024.0,-0.004991603083908558
1152.0,-0.003336545079946518
1280.0,-0.004279226064682007
1408.0,-0.006480360869318247
1536.0,-0.005960979964584112
1664.0,-0.001489341608248651
1792.0,0.005324560683220625
1920.0,0.011172529309988022
2048.0,0.013762776739895344
2304.0,0.0052501000463962555
2560.0,0.003172466764226556
2816.0,0.003131691599264741
3072.0,-0.002938831690698862
3328.0,-0.0043784999288618565
3584.0,-0.01285659521818161
3840.0,-0.004721383098512888
4096.0,-0.005740588065236807
4608.0,0.0020018836949020624
5120.0,-0.0007195626385509968
5632.0,-0.006443054415285587
6144.0,-0.005061447620391846
6656.0,-0.0021757641807198524
7168.0,0.004678371828049421
7680.0,-0.002186145633459091
8192.0,0.0006945800851099193
9216.0,-0.0026184399612247944
10240.0,0.006400683894753456
11264.0,-0.00966261699795723
12288.0,0.007791539188474417
13312.0,-0.004198870155960321
14336.0,-0.0007256094249896705
end
