version,3.0
numOfCh,1
type,point
parent_name,8-cuts
ch_type,1_1
kcount,1
numberNandB,1
brightnessNandB,1
carpet pos,0
pc,0
Time (ms),CH1 Auto-Correlation
1.0,0.07205817103385925
2.0,0.07084082067012787
3.0,0.06964132189750671
4.0,0.06851759552955627
5.0,0.0674157366156578
6.0,0.06635936349630356
7.0,0.06532807648181915
8.0,0.06434597074985504
9.0,0.06337858736515045
10.0,0.062453605234622955
11.0,0.06159457936882973
12.0,0.060760702937841415
13.0,0.05993427336215973
14.0,0.059085093438625336
15.0,0.05825076252222061
16.0,0.05745011940598488
18.0,0.05582992359995842
20.0,0.054230209439992905
22.0,0.05267757177352905
24.0,0.051207590848207474
26.0,0.049842026084661484
28.0,0.04864818975329399
30.0,0.04749372974038124
32.0,0.04642481356859207
36.0,0.044506967067718506
40.0,0.04268926754593849
44.0,0.04091610759496689
48.0,0.03937772288918495
52.0,0.03800811618566513
56.0,0.03685848414897919
60.0,0.03583718091249466
64.0,0.03498682379722595
72.0,0.03322722390294075
80.0,0.03162509575486183
88.0,0.03036748617887497
96.0,0.028970325365662575
104.0,0.02757170796394348
112.0,0.02651607245206833
120.0,0.02570941485464573
128.0,0.024878526106476784
144.0,0.022211575880646706
160.0,0.01968236453831196
176.0,0.017354872077703476
192.0,0.01574534922838211
208.0,0.014936613850295544
224.0,0.01473703607916832
240.0,0.014855725690722466
256.0,0.01533321850001812
288.0,0.015785276889801025
320.0,0.016035180538892746
352.0,0.014604317024350166
384.0,0.014408168382942677
416.0,0.013529581017792225
448.0,0.011312102898955345
480.0,0.008462849073112011
512.0,0.005730518139898777
576.0,0.0038939225487411022
640.0,0.004872401710599661
704.0,0.00403854064643383
768.0,0.004089727066457272
832.0,0.0038301353342831135
896.0,0.00611724192276597
960.0,0.006375137250870466
1024.0,0.00575677677989006
1152.0,0.0025384011678397655
1280.0,0.004385087173432112
1408.0,9.806076559470966e-05
1536.0,-0.004424735438078642
1664.0,-0.008465664461255074
1792.0,-0.006584360264241695
1920.0,-0.003389645367860794
2048.0,-0.001283883466385305
2304.0,-0.0026071174070239067
2560.0,-0.004041444975882769
2816.0,-0.004933749791234732
3072.0,-0.005469121970236301
3328.0,0.0008581316214986145
3584.0,-0.001377808628603816
3840.0,-0.008463309146463871
4096.0,-0.0021276138722896576
4608.0,-0.010785562917590141
5120.0,-0.008376036770641804
5632.0,0.0001505328982602805
6144.0,0.0016280787531286478
6656.0,-0.0026112436316907406
7168.0,-0.00459517166018486
7680.0,-0.006674015428870916
8192.0,-0.00537665793672204
9216.0,0.0036320171784609556
10240.0,0.003534177551046014
11264.0,0.013456462882459164
12288.0,0.02687050588428974
13312.0,-0.0075357756577432156
14336.0,-0.03166588023304939
end
