version,3.0
numOfCh,1
type,point
parent_name,8-cuts
ch_type,1_1
kcount,1
numberNandB,1
brightnessNandB,1
carpet pos,0
pc,0
Time (ms),CH1 Auto-Correlation
1.0,0.01960758864879608
2.0,0.019220763817429543
3.0,0.018847689032554626
4.0,0.018495261669158936
5.0,0.01816900074481964
6.0,0.017857341095805168
7.0,0.01755707524716854
8.0,0.017264988273382187
9.0,0.0169752798974514
10.0,0.016694409772753716
11.0,0.016414344310760498
12.0,0.016158360987901688
13.0,0.015904417261481285
14.0,0.015644235536456108
15.0,0.01538914442062378
16.0,0.015136492438614368
18.0,0.014662996865808964
20.0,0.014225661754608154
22.0,0.013821981847286224
24.0,0.013418002985417843
26.0,0.012997851707041264
28.0,0.012587934732437134
30.0,0.012202464044094086
32.0,0.011847165413200855
36.0,0.01119617186486721
40.0,0.010536964982748032
44.0,0.009870124980807304
48.0,0.00924192275851965
52.0,0.008646439760923386
56.0,0.008084208704531193
60.0,0.007563007529824972
64.0,0.007063216995447874
72.0,0.006097680423408747
80.0,0.005234181880950928
88.0,0.004434067755937576
96.0,0.003645788412541151
104.0,0.0029046260751783848
112.0,0.00228100991807878
120.0,0.0017074623610824347
128.0,0.0012263808166608214
144.0,0.0005197832360863686
160.0,-0.00013842260523233563
176.0,-0.0007143898401409388
192.0,-0.0007799433078616858
208.0,-0.0005673635168932378
224.0,-0.00019893066200893372
240.0,7.342625758610666e-05
256.0,8.125456952257082e-05
288.0,0.00015104611520655453
320.0,0.00017725354700814933
352.0,0.0004047569527756423
384.0,0.000524693401530385
416.0,1.2134334610891528e-05
448.0,-0.0005737768369726837
480.0,-0.001001609954982996
512.0,-0.0018463829765096307
576.0,-0.0027902796864509583
640.0,-0.0019105251412838697
704.0,-0.0016858193557709455
768.0,-0.00036747046397067606
832.0,0.001021463656798005
896.0,0.0012615377781912684
960.0,-0.00027623967616818845
1024.0,-0.0012213463196530938
1152.0,0.0002218254958279431
1280.0,0.0011572196381166577
1408.0,0.00018394547805655748
1536.0,-0.00024830925394780934
1664.0,-0.00042796548223122954
1792.0,-0.0006559283938258886
1920.0,-0.0013963525416329503
2048.0,-0.0006877200794406235
2304.0,0.0012828282779082656
2560.0,-0.00048091489588841796
2816.0,0.0003885959158651531
3072.0,0.0009297138312831521
3328.0,-0.0007718376000411808
3584.0,-0.0006852088263258338
3840.0,0.0007494097226299345
4096.0,0.0020596354734152555
4608.0,-0.0009169104159809649
5120.0,0.0010844235075637698
5632.0,-0.0007563633844256401
6144.0,0.0008551609935238957
6656.0,-0.00040560372872278094
7168.0,-0.0009844335727393627
7680.0,-0.0008623317116871476
8192.0,-7.810504757799208e-05
9216.0,0.00025505252415314317
10240.0,-0.001026374869979918
11264.0,0.00019483736832626164
12288.0,0.00016465007502119988
13312.0,-0.0002509400655981153
14336.0,2.2851501853438094e-05
end
