version,3.0
numOfCh,1
type,point
parent_name,8-cuts
ch_type,1_1
kcount,1
numberNandB,1
brightnessNandB,1
carpet pos,0
pc,0
Time (ms),CH1 Auto-Correlation
1.0,0.07761242985725403
2.0,0.076419897377491
3.0,0.07526960223913193
4.0,0.07418853789567947
5.0,0.07311830669641495
6.0,0.07207351922988892
7.0,0.07107306271791458
8.0,0.07008548080921173
9.0,0.06910698115825653
10.0,0.06815546005964279
11.0,0.06722512096166611
12.0,0.06632828712463379
13.0,0.06547527015209198
14.0,0.06467220187187195
15.0,0.06389380991458893
16.0,0.06313314288854599
18.0,0.06162666156888008
20.0,0.060168080031871796
22.0,0.05877680331468582
24.0,0.05740013346076012
26.0,0.056083474308252335
28.0,0.05489322170615196
30.0,0.05375697463750839
32.0,0.052644189447164536
36.0,0.05042816326022148
40.0,0.04849924147129059
44.0,0.04663226008415222
48.0,0.04491334408521652
52.0,0.0433112233877182
56.0,0.04177755489945412
60.0,0.04018091410398483
64.0,0.038787901401519775
72.0,0.036382388323545456
80.0,0.034596037119627
88.0,0.03305906429886818
96.0,0.031356435269117355
104.0,0.029851343482732773
112.0,0.02833140268921852
120.0,0.02720743790268898
128.0,0.026605084538459778
144.0,0.025581561028957367
160.0,0.02388967014849186
176.0,0.022315504029393196
192.0,0.020778317004442215
208.0,0.01865040883421898
224.0,0.017136212438344955
240.0,0.016875319182872772
256.0,0.016741639003157616
288.0,0.01601491868495941
320.0,0.013133976608514786
352.0,0.0072867851704359055
384.0,0.0036092260852456093
416.0,0.0023640028666704893
448.0,0.0010777689749374986
480.0,0.0013149830047041178
512.0,0.0016009245300665498
576.0,0.004057938698679209
640.0,0.004232557024806738
704.0,0.0005868840962648392
768.0,0.0004559826629702002
832.0,0.001270107226446271
896.0,0.004013361409306526
960.0,0.0031233630143105984
1024.0,0.0019494463922455907
1152.0,0.002591176424175501
1280.0,0.003790847025811672
1408.0,0.003992406185716391
1536.0,0.0032246578484773636
1664.0,0.0031621309462934732
1792.0,0.0015827387105673552
1920.0,-0.005712964106351137
2048.0,-0.0097047109156847
2304.0,-0.006321413908153772
2560.0,-0.006248212419450283
2816.0,-0.004809617530554533
3072.0,-0.008365871384739876
3328.0,-0.006874501705169678
3584.0,-0.003821368096396327
3840.0,-0.004190138075500727
4096.0,0.0006566403899341822
4608.0,0.0031063640490174294
5120.0,-0.0006814997759647667
5632.0,0.0016227713786065578
6144.0,0.0021884816233068705
6656.0,-0.009438025765120983
7168.0,0.004095777403563261
7680.0,-0.006804070435464382
8192.0,0.005326639860868454
9216.0,0.0006208093254826963
10240.0,-0.00214172899723053
11264.0,-0.00028206247952766716
12288.0,0.005000109318643808
13312.0,-0.0005151298828423023
14336.0,0.0032688146457076073
end
