version,3.0
numOfCh,1
type,point
parent_name,8-cuts
ch_type,1_1
kcount,1
numberNandB,1
brightnessNandB,1
carpet pos,0
pc,0
Time (ms),CH1 Auto-Correlation
1.0,0.0649554431438446
2.0,0.06375095248222351
3.0,0.06255987286567688
4.0,0.061394330114126205
5.0,0.06029501184821129
6.0,0.059239890426397324
7.0,0.058200810104608536
8.0,0.0572049543261528
9.0,0.0562191978096962
10.0,0.05524803698062897
11.0,0.05431071296334267
12.0,0.05338399484753609
13.0,0.05249868705868721
14.0,0.051633886992931366
15.0,0.05078144744038582
16.0,0.04995585232973099
18.0,0.048334721475839615
20.0,0.04679431393742561
22.0,0.04538891464471817
24.0,0.04406445473432541
26.0,0.04289204999804497
28.0,0.0417931042611599
30.0,0.04077820107340813
32.0,0.039890218526124954
36.0,0.03825675696134567
40.0,0.03678058460354805
44.0,0.03544727340340614
48.0,0.03412552922964096
52.0,0.032834216952323914
56.0,0.0315813310444355
60.0,0.030505361035466194
64.0,0.02954588457942009
72.0,0.028074558824300766
80.0,0.02655825950205326
88.0,0.02502203732728958
96.0,0.023627961054444313
104.0,0.02237566187977791
112.0,0.021355165168642998
120.0,0.020312238484621048
128.0,0.01921573281288147
144.0,0.01737196557223797
160.0,0.015916597098112106
176.0,0.014013630338013172
192.0,0.013349920511245728
208.0,0.012753281742334366
224.0,0.011188004165887833
240.0,0.009299343451857567
256.0,0.008630613796412945
288.0,0.00740919541567564
320.0,0.007223185151815414
352.0,0.007494879420846701
384.0,0.006313828751444817
416.0,0.005351747386157513
448.0,0.005518922116607428
480.0,0.00604680459946394
512.0,0.0050942362286150455
576.0,0.0009701300296001136
640.0,-0.0022928977850824594
704.0,-0.0037188546266406775
768.0,-0.00503139290958643
832.0,-0.008195954374969006
896.0,-0.008105703629553318
960.0,-0.006390421651303768
1024.0,-0.0037996373139321804
1152.0,-0.0006820590933784842
1280.0,-0.002801725873723626
1408.0,-0.0023240800946950912
1536.0,-9.445440809940919e-05
1664.0,0.002508121309801936
1792.0,0.0058553945273160934
1920.0,0.00414771493524313
2048.0,-0.0018741519888862967
2304.0,-0.0009985915385186672
2560.0,0.003122552065178752
2816.0,0.005285358056426048
3072.0,0.004728495609015226
3328.0,-0.00022189797891769558
3584.0,0.003466410096734762
3840.0,0.0027471769135445356
4096.0,-0.001042483258061111
4608.0,-0.00594546040520072
5120.0,-0.0035977261140942574
5632.0,0.003872660920023918
6144.0,0.002710306318476796
6656.0,9.946292993845418e-05
7168.0,0.006096052937209606
7680.0,-0.006293328478932381
8192.0,-0.008335042744874954
9216.0,0.0014658584259450436
10240.0,-0.002416691044345498
11264.0,-0.005987432785332203
12288.0,-0.0022533955052495003
13312.0,-0.015687892213463783
14336.0,-0.004916788544505835
end
