version,3.0
numOfCh,1
type,point
parent_name,8-cuts
ch_type,1_1
kcount,1
numberNandB,1
brightnessNandB,1
carpet pos,0
pc,0
Time (ms),CH1 Auto-Correlation
1.0,0.023818952962756157
2.0,0.023414896801114082
3.0,0.023023366928100586
4.0,0.02262933738529682
5.0,0.02224223129451275
6.0,0.021874958649277687
7.0,0.02152681164443493
8.0,0.021183347329497337
9.0,0.020836910232901573
10.0,0.020505061373114586
11.0,0.02018975280225277
12.0,0.019883079454302788
13.0,0.019583212211728096
14.0,0.01930559240281582
15.0,0.019042886793613434
16.0,0.01879156194627285
18.0,0.018293214961886406
20.0,0.01780080981552601
22.0,0.01734485849738121
24.0,0.016921136528253555
26.0,0.01650160923600197
28.0,0.016087813302874565
30.0,0.01570655219256878
32.0,0.015357157215476036
36.0,0.014728293754160404
40.0,0.01416752114892006
44.0,0.013661129400134087
48.0,0.013250071555376053
52.0,0.012896457687020302
56.0,0.012588707730174065
60.0,0.012304368428885937
64.0,0.011982313357293606
72.0,0.011383979581296444
80.0,0.01083760429173708
88.0,0.010097799822688103
96.0,0.00937641505151987
104.0,0.008767247200012207
112.0,0.008236600086092949
120.0,0.007858623750507832
128.0,0.0074119362980127335
144.0,0.006552826147526503
160.0,0.0060181827284395695
176.0,0.005673623643815517
192.0,0.0054437583312392235
208.0,0.0051919217221438885
224.0,0.004836414009332657
240.0,0.004460956435650587
256.0,0.004150753375142813
288.0,0.004084811080247164
320.0,0.003829067340120673
352.0,0.0033730664290487766
384.0,0.0029785954393446445
416.0,0.002388863591477275
448.0,0.0016834459966048598
480.0,0.0014255724381655455
512.0,0.0011338909389451146
576.0,0.0008464421262033284
640.0,0.0020978194661438465
704.0,0.0018105381168425083
768.0,0.0012735878117382526
832.0,-0.00018559223099146038
896.0,-0.0008401767699979246
960.0,-0.001842436846345663
1024.0,-0.002196923829615116
1152.0,-0.0036883875727653503
1280.0,-0.0024758323561400175
1408.0,-0.0020442758686840534
1536.0,-0.002913519274443388
1664.0,-0.002909396542236209
1792.0,-0.004124484956264496
1920.0,-0.003336701774969697
2048.0,-0.0024265653919428587
2304.0,0.0011860256781801581
2560.0,0.0020751983392983675
2816.0,0.0020892301108688116
3072.0,0.003653735388070345
3328.0,0.0025478105526417494
3584.0,0.0017762846546247602
3840.0,0.001671764301136136
4096.0,-0.0015829310286790133
4608.0,-0.0005424246191978455
5120.0,-0.0018440717831254005
5632.0,-0.001390693592838943
6144.0,0.0009839809499680996
6656.0,-0.000662360864225775
7168.0,0.0001442304055672139
7680.0,-0.0005504213622771204
8192.0,-0.0022243319544941187
9216.0,-0.0010036381427198648
10240.0,-0.002462410368025303
11264.0,-0.00032574706710875034
12288.0,0.0016099835047498345
13312.0,-0.005346796941012144
14336.0,0.004444855730980635
end
