version,3.0
numOfCh,1
type,point
parent_name,8-cuts
ch_type,1_1
kcount,1
numberNandB,1
brightnessNandB,1
carpet pos,0
pc,0
Time (ms),CH1 Auto-Correlation
1.0,0.0727759525179863
2.0,0.07155986875295639
3.0,0.07041114568710327
4.0,0.06928785890340805
5.0,0.06821635365486145
6.0,0.06717060506343842
7.0,0.06615332514047623
8.0,0.06517942249774933
9.0,0.06423758715391159
10.0,0.06330723315477371
11.0,0.06238708272576332
12.0,0.061472900211811066
13.0,0.06059461832046509
14.0,0.05972745642066002
15.0,0.058851517736911774
16.0,0.057996537536382675
18.0,0.05637586489319801
20.0,0.05485711619257927
22.0,0.05344178155064583
24.0,0.05204667150974274
26.0,0.050718940794467926
28.0,0.04946492612361908
30.0,0.04834873601794243
32.0,0.047314584255218506
36.0,0.04540099576115608
40.0,0.043682027608156204
44.0,0.042174916714429855
48.0,0.04069577902555466
52.0,0.0391102097928524
56.0,0.03763255849480629
60.0,0.0364098884165287
64.0,0.03539317101240158
72.0,0.033388473093509674
80.0,0.03154454380273819
88.0,0.02956094965338707
96.0,0.027797970920801163
104.0,0.026382243260741234
112.0,0.02475820668041706
120.0,0.023330362513661385
128.0,0.02240503765642643
144.0,0.020283298566937447
160.0,0.01854502037167549
176.0,0.01769879087805748
192.0,0.017144735902547836
208.0,0.015263556502759457
224.0,0.012149587273597717
240.0,0.010502866469323635
256.0,0.009590121917426586
288.0,0.008108308538794518
320.0,0.007691039238125086
352.0,0.006759779993444681
384.0,0.005169646814465523
416.0,0.002078151563182473
448.0,-0.00019365381740499288
480.0,-0.001871327986009419
512.0,-0.003262547543272376
576.0,-0.003566925646737218
640.0,-0.005548609886318445
704.0,-0.006242639850825071
768.0,-0.0078110587783157825
832.0,-0.008841056376695633
896.0,-0.006672557909041643
960.0,-0.0022155195474624634
1024.0,0.0010276333196088672
1152.0,0.0002764324308373034
1280.0,0.003962975461035967
1408.0,0.0052563780918717384
1536.0,0.0025420784950256348
1664.0,0.007075423374772072
1792.0,0.007147461175918579
1920.0,-0.00013980593939777464
2048.0,0.00027122782194055617
2304.0,0.001832153182476759
2560.0,0.0028728798497468233
2816.0,0.0019629786256700754
3072.0,-0.006024281028658152
3328.0,-0.005283067934215069
3584.0,0.0017063762061297894
3840.0,0.00012656384205911309
4096.0,0.003412232268601656
4608.0,-0.0023019160144031048
5120.0,-0.004552009981125593
5632.0,-0.003260945901274681
6144.0,0.0017592652002349496
6656.0,0.0004087338165845722
7168.0,0.004375154618173838
7680.0,-0.003258705837652087
8192.0,0.0003862110897898674
9216.0,-0.0007172953919507563
10240.0,-0.0018715799087658525
11264.0,0.00386601104401052
12288.0,-0.011626203544437885
13312.0,-0.008682681247591972
14336.0,-0.02646995149552822
end
