version,3.0
numOfCh,1
type,point
parent_name,8-cuts
ch_type,1_1
kcount,1
numberNandB,1
brightnessNandB,1
carpet pos,0
pc,0
Time (ms),CH1 Auto-Correlation
1.0,0.07622262090444565
2.0,0.07504020631313324
3.0,0.07389674335718155
4.0,0.07277224957942963
5.0,0.071658656001091
6.0,0.0706116110086441
7.0,0.06958086788654327
8.0,0.06862126290798187
9.0,0.06765497475862503
10.0,0.06670583784580231
11.0,0.06577441841363907
12.0,0.06488022953271866
13.0,0.06396784633398056
14.0,0.06308690458536148
15.0,0.06224915012717247
16.0,0.06143138185143471
18.0,0.05977950617671013
20.0,0.05818649008870125
22.0,0.05667494982481003
24.0,0.055204130709171295
26.0,0.05381961539387703
28.0,0.05256842076778412
30.0,0.0514087975025177
32.0,0.05031798779964447
36.0,0.04819750040769577
40.0,0.046092379838228226
44.0,0.04398641362786293
48.0,0.041917238384485245
52.0,0.040013495832681656
56.0,0.03823915123939514
60.0,0.036580316722393036
64.0,0.03512853756546974
72.0,0.0328173004090786
80.0,0.030803363770246506
88.0,0.029151979833841324
96.0,0.02779291570186615
104.0,0.026494884863495827
112.0,0.025155548006296158
120.0,0.024048399180173874
128.0,0.023358702659606934
144.0,0.022436747327446938
160.0,0.022256337106227875
176.0,0.021977897733449936
192.0,0.02149587869644165
208.0,0.02110227756202221
224.0,0.020281720906496048
240.0,0.01873251050710678
256.0,0.017642948776483536
288.0,0.015978815034031868
320.0,0.01302440743893385
352.0,0.011882372200489044
384.0,0.011544322595000267
416.0,0.009692572988569736
448.0,0.006859065964818001
480.0,0.004798161797225475
512.0,0.00699489563703537
576.0,0.010553968138992786
640.0,0.011671553365886211
704.0,0.007163291331380606
768.0,0.007354292552918196
832.0,0.004761785268783569
896.0,0.0029490457382053137
960.0,0.002458917908370495
1024.0,0.0013319003628566861
1152.0,0.0019189335871487856
1280.0,0.005799651145935059
1408.0,0.004456370137631893
1536.0,0.005467426497489214
1664.0,-0.00208985130302608
1792.0,-0.006500472314655781
1920.0,-0.010923082940280437
2048.0,-0.009214822202920914
2304.0,-0.009428576566278934
2560.0,-0.006444547791033983
2816.0,-0.0016491892747581005
3072.0,-0.0029804089572280645
3328.0,-0.0027265851385891438
3584.0,0.004906209651380777
3840.0,0.010203455574810505
4096.0,0.011368369683623314
4608.0,0.0006117306766100228
5120.0,-0.003524047788232565
5632.0,-0.007172582671046257
6144.0,-0.01919478364288807
6656.0,-0.01361815631389618
7168.0,-0.008239799179136753
7680.0,-0.005442577414214611
8192.0,0.006912593729794025
9216.0,0.003848977852612734
10240.0,-0.0009016169933602214
11264.0,-0.006723235826939344
12288.0,0.005568402353674173
13312.0,0.010402039624750614
14336.0,0.004757152870297432
end
