version,3.0
numOfCh,1
type,point
parent_name,8-cuts
ch_type,1_1
kcount,1
numberNandB,1
brightnessNandB,1
carpet pos,0
pc,0
Time (ms),CH1 Auto-Correlation
1.0,0.0352507159113884
2.0,0.034642454236745834
3.0,0.034051522612571716
4.0,0.033475231379270554
5.0,0.03290516138076782
6.0,0.0323527567088604
7.0,0.031805362552404404
8.0,0.03128605708479881
9.0,0.0307784266769886
10.0,0.030271438881754875
11.0,0.029767576605081558
12.0,0.029257718473672867
13.0,0.02877289056777954
14.0,0.028313571587204933
15.0,0.027843888849020004
16.0,0.027385078370571136
18.0,0.026521097868680954
20.0,0.025729520246386528
22.0,0.02499142661690712
24.0,0.024275118485093117
26.0,0.023571956902742386
28.0,0.02287445031106472
30.0,0.022194480523467064
32.0,0.021542098373174667
36.0,0.020312393084168434
40.0,0.01916653849184513
44.0,0.01813327521085739
48.0,0.017239850014448166
52.0,0.01638980768620968
56.0,0.015614336356520653
60.0,0.014925779774785042
64.0,0.014314262196421623
72.0,0.013217341154813766
80.0,0.012120447121560574
88.0,0.011286000721156597
96.0,0.010627701878547668
104.0,0.010168362408876419
112.0,0.00973779521882534
120.0,0.009284927509725094
128.0,0.008902101777493954
144.0,0.008236996829509735
160.0,0.00788206234574318
176.0,0.008212823420763016
192.0,0.008400320075452328
208.0,0.00833907164633274
224.0,0.008050680160522461
240.0,0.008185761980712414
256.0,0.008171724155545235
288.0,0.006772973109036684
320.0,0.004756772890686989
352.0,0.0038240442518144846
384.0,0.0030601827893406153
416.0,0.002214158419519663
448.0,0.0023853483144193888
480.0,0.002166540129110217
512.0,0.0015161664923653007
576.0,0.0004196107911411673
640.0,-0.0011388337006792426
704.0,-0.00023993370996322483
768.0,-5.650368984788656e-05
832.0,-0.0006560832844115794
896.0,-0.0010852827690541744
960.0,-0.0008702385821379721
1024.0,0.00012058258289471269
1152.0,-0.0009290639427490532
1280.0,-0.00244521489366889
1408.0,-0.0033655271399766207
1536.0,-0.002071441151201725
1664.0,-0.0022073807194828987
1792.0,0.0007412462728098035
1920.0,0.00028556762845255435
2048.0,0.0009005460306070745
2304.0,-0.0005390832666307688
2560.0,-0.0014592830557376146
2816.0,-0.002152456669136882
3072.0,-0.001985701033845544
3328.0,-0.002179869683459401
3584.0,-0.0017289670649915934
3840.0,-0.00041522126412019134
4096.0,-0.0017882413230836391
4608.0,-0.00034753140062093735
5120.0,-0.0020796856842935085
5632.0,-0.0017578571569174528
6144.0,-0.0021384339779615402
6656.0,-0.0007913188310340047
7168.0,-0.00011009253648808226
7680.0,0.0004418639000505209
8192.0,0.0033051217906177044
9216.0,0.0033636395819485188
10240.0,-0.0015253890305757523
11264.0,0.001973062288016081
12288.0,-0.0048414431512355804
13312.0,0.001213922630995512
14336.0,-0.017111532390117645
end
