version,3.0
numOfCh,1
type,point
parent_name,8-cuts
ch_type,1_1
kcount,1
numberNandB,1
brightnessNandB,1
carpet pos,0
pc,0
Time (ms),CH1 Auto-Correlation
1.0,0.035346273332834244
2.0,0.03473469987511635
3.0,0.0341608040034771
4.0,0.03360907360911369
5.0,0.03306274116039276
6.0,0.032528653740882874
7.0,0.032017212361097336
8.0,0.03152445703744888
9.0,0.03103046864271164
10.0,0.030559590086340904
11.0,0.03010842390358448
12.0,0.029673567041754723
13.0,0.029259392991662025
14.0,0.02886187471449375
15.0,0.028463205322623253
16.0,0.028074530884623528
18.0,0.027317659929394722
20.0,0.026568667963147163
22.0,0.025837287306785583
24.0,0.02514977939426899
26.0,0.024448057636618614
28.0,0.023743003606796265
30.0,0.023036286234855652
32.0,0.022353094071149826
36.0,0.021123336628079414
40.0,0.01991015300154686
44.0,0.018789134919643402
48.0,0.017804089933633804
52.0,0.01685895211994648
56.0,0.015944113954901695
60.0,0.01513536274433136
64.0,0.014386686496436596
72.0,0.012822912074625492
80.0,0.011545212008059025
88.0,0.01056196540594101
96.0,0.00973432045429945
104.0,0.009005945175886154
112.0,0.00804904755204916
120.0,0.00721900025382638
128.0,0.00662147207185626
144.0,0.005170740187168121
160.0,0.003908329643309116
176.0,0.0029427858535200357
192.0,0.002600693143904209
208.0,0.0025509961415082216
224.0,0.0025085548404604197
240.0,0.002383812563493848
256.0,0.0025156985502690077
288.0,0.002638232661411166
320.0,0.0028432421386241913
352.0,0.0024138656444847584
384.0,0.0024191534612327814
416.0,0.002650249982252717
448.0,0.0022089844569563866
480.0,0.002180709270760417
512.0,0.002243599621579051
576.0,0.0029540657997131348
640.0,0.005041856784373522
704.0,0.0037759370170533657
768.0,0.0012900938745588064
832.0,-0.002058669924736023
896.0,-0.0026668498758226633
960.0,-0.0023564607836306095
1024.0,-0.0015787683660164475
1152.0,0.0021558552980422974
1280.0,0.0001841628982219845
1408.0,0.0021712505258619785
1536.0,-0.00041015338501892984
1664.0,-0.0012680210638791323
1792.0,-0.0014411744195967913
1920.0,-0.0031726802699267864
2048.0,-0.0015425959136337042
2304.0,-6.152135028969496e-05
2560.0,-0.0016344072064384818
2816.0,0.0014483468839898705
3072.0,-0.0016343186143785715
3328.0,-0.0020517478697001934
3584.0,0.000495011277962476
3840.0,-0.0011756594758480787
4096.0,-0.002348504029214382
4608.0,-0.002045722445473075
5120.0,-0.001526391482912004
5632.0,-0.0018394340295344591
6144.0,-0.0008874249760992825
6656.0,-0.0005363948876038194
7168.0,0.0020867353305220604
7680.0,0.002548947697505355
8192.0,0.0030390361789613962
9216.0,-0.001680918619967997
10240.0,0.0006783276912756264
11264.0,-0.0013975000474601984
12288.0,-0.002223723568022251
13312.0,0.0011935451766476035
14336.0,0.0018308591097593307
end
