version,3.0
numOfCh,1
type,point
parent_name,8-cuts
ch_type,1_1
kcount,1
numberNandB,1
brightnessNandB,1
carpet pos,0
pc,0
Time (ms),CH1 Auto-Correlation
1.0,0.024306703358888626
2.0,0.023885391652584076
3.0,0.0234680213034153
4.0,0.02308325283229351
5.0,0.0227145217359066
6.0,0.02235233038663864
7.0,0.022004369646310806
8.0,0.021653803065419197
9.0,0.02131708711385727
10.0,0.020988458767533302
11.0,0.020676497370004654
12.0,0.02036942169070244
13.0,0.020080581307411194
14.0,0.019795479252934456
15.0,0.019513767212629318
16.0,0.019241873174905777
18.0,0.01876056008040905
20.0,0.018280135467648506
22.0,0.01779964379966259
24.0,0.017347222194075584
26.0,0.016917509958148003
28.0,0.01650003157556057
30.0,0.01606922410428524
32.0,0.015638718381524086
36.0,0.014830312691628933
40.0,0.014082212001085281
44.0,0.013435935601592064
48.0,0.012902363203465939
52.0,0.012358558364212513
56.0,0.01176111027598381
60.0,0.01115485280752182
64.0,0.010650753043591976
72.0,0.009855822660028934
80.0,0.009097195230424404
88.0,0.00834977999329567
96.0,0.0076727597042918205
104.0,0.007078169379383326
112.0,0.00666677113622427
120.0,0.006435214541852474
128.0,0.006244570016860962
144.0,0.005898643750697374
160.0,0.00552617572247982
176.0,0.0050624338909983635
192.0,0.004538677632808685
208.0,0.004175717011094093
224.0,0.00344147183932364
240.0,0.0026177542749792337
256.0,0.0022407243959605694
288.0,0.002147115534171462
320.0,0.001940829330123961
352.0,0.0018277292838320136
384.0,0.0012711521703749895
416.0,0.0007210127077996731
448.0,0.0004690508358180523
480.0,-3.035995723621454e-05
512.0,0.00013749652134720236
576.0,8.482905832352117e-05
640.0,-0.0009501555468887091
704.0,-0.0019872402772307396
768.0,-0.0024082274176180363
832.0,-0.0018646385287865996
896.0,-0.0026649669744074345
960.0,-0.0036479905247688293
1024.0,-0.00441221846267581
1152.0,-0.0032244145404547453
1280.0,-0.0020890142768621445
1408.0,-0.001506275380961597
1536.0,-0.0019152839668095112
1664.0,0.0005494022043421865
1792.0,0.0026565464213490486
1920.0,0.004441217053681612
2048.0,0.005381590686738491
2304.0,0.0021012178622186184
2560.0,-0.0010028814431279898
2816.0,-0.0034742471762001514
3072.0,-0.003188784932717681
3328.0,-0.0030680974014103413
3584.0,0.0003987840027548373
3840.0,0.0022300253622233868
4096.0,0.004450754728168249
4608.0,0.0004945765831507742
5120.0,-0.0025604928378015757
5632.0,-0.0017444448312744498
6144.0,0.0015714915934950113
6656.0,0.0012871543876826763
7168.0,-0.002856662729755044
7680.0,-0.001026584766805172
8192.0,0.002138004871085286
9216.0,-0.0027969656512141228
10240.0,0.0006599511252716184
11264.0,-0.0016637792577967048
12288.0,0.004254309926182032
13312.0,-0.0021232739090919495
14336.0,-0.0018025360768660903
end
