version,3.0
numOfCh,1
type,point
parent_name,8-cuts
ch_type,1_1
kcount,1
numberNandB,1
brightnessNandB,1
carpet pos,0
pc,0
Time (ms),CH1 Auto-Correlation
1.0,0.06996249407529831
2.0,0.06873389333486557
3.0,0.0675540417432785
4.0,0.06644410640001297
5.0,0.06538134068250656
6.0,0.06434261053800583
7.0,0.063347227871418
8.0,0.06237766146659851
9.0,0.061428267508745193
10.0,0.060519471764564514
11.0,0.059643350541591644
12.0,0.05879943445324898
13.0,0.05799735337495804
14.0,0.05723758414387703
15.0,0.05648237094283104
16.0,0.05571954324841499
18.0,0.05425545200705528
20.0,0.05287395417690277
22.0,0.05159791558980942
24.0,0.050353460013866425
26.0,0.049109023064374924
28.0,0.047930553555488586
30.0,0.04680951312184334
32.0,0.045738402754068375
36.0,0.04380189999938011
40.0,0.04185378924012184
44.0,0.04004253074526787
48.0,0.03834830969572067
52.0,0.036783214658498764
56.0,0.03532461076974869
60.0,0.03417837247252464
64.0,0.03293957561254501
72.0,0.03064192645251751
80.0,0.028687909245491028
88.0,0.026769032701849937
96.0,0.025166578590869904
104.0,0.02404002845287323
112.0,0.02295013517141342
120.0,0.022197941318154335
128.0,0.02153974212706089
144.0,0.01952669583261013
160.0,0.017964327707886696
176.0,0.016308940947055817
192.0,0.015328261069953442
208.0,0.014887450262904167
224.0,0.014010356739163399
240.0,0.012896919623017311
256.0,0.011788176372647285
288.0,0.009456176310777664
320.0,0.008354115299880505
352.0,0.007949366234242916
384.0,0.008571324869990349
416.0,0.009929830208420753
448.0,0.009018559008836746
480.0,0.009014247916638851
512.0,0.009569722227752209
576.0,0.007261407095938921
640.0,0.010636757127940655
704.0,0.008516023866832256
768.0,0.0070412238128483295
832.0,0.005531088449060917
896.0,0.0028845451306551695
960.0,-4.2632684198906645e-05
1024.0,0.0036227693781256676
1152.0,0.00439293310046196
1280.0,-0.0003957402368541807
1408.0,-0.0017263718182221055
1536.0,-0.0029758287128061056
1664.0,0.0004669544578064233
1792.0,0.002872486598789692
1920.0,-0.003356394125148654
2048.0,-0.00854962132871151
2304.0,-0.00906315166503191
2560.0,-0.009073927067220211
2816.0,-0.0038304622285068035
3072.0,-0.00865617860108614
3328.0,-0.006304598413407803
3584.0,-0.0006865194300189614
3840.0,-0.0036377396900206804
4096.0,-0.003991786390542984
4608.0,-0.0023069155868142843
5120.0,0.0021113490220159292
5632.0,7.405266660498455e-05
6144.0,-0.0018088787328451872
6656.0,-0.001837716088630259
7168.0,-0.001379217836074531
7680.0,-0.008256987668573856
8192.0,-0.003947388380765915
9216.0,0.012793629430234432
10240.0,0.008730127476155758
11264.0,-0.0010785759659484029
12288.0,-0.010840878821909428
13312.0,-0.018563127145171165
14336.0,0.006809319369494915
end
