version,3.0
numOfCh,1
type,point
parent_name,8-cuts
ch_type,1_1
kcount,1
numberNandB,1
brightnessNandB,1
carpet pos,0
pc,0
Time (ms),CH1 Auto-Correlation
1.0,0.06126993149518967
2.0,0.06009477749466896
3.0,0.058957841247320175
4.0,0.05785955488681793
5.0,0.056832730770111084
6.0,0.055833764374256134
7.0,0.05485616624355316
8.0,0.053883034735918045
9.0,0.052943285554647446
10.0,0.05202334746718407
11.0,0.051154498010873795
12.0,0.05032041296362877
13.0,0.049524497240781784
14.0,0.0487629771232605
15.0,0.04804817959666252
16.0,0.04735957086086273
18.0,0.046082060784101486
20.0,0.04488898441195488
22.0,0.0437798909842968
24.0,0.04272899776697159
26.0,0.041761234402656555
28.0,0.04078526422381401
30.0,0.03984130918979645
32.0,0.038906678557395935
36.0,0.03707832843065262
40.0,0.035357460379600525
44.0,0.03389372304081917
48.0,0.03256992623209953
52.0,0.031426429748535156
56.0,0.03046514093875885
60.0,0.029627792537212372
64.0,0.028814256191253662
72.0,0.027631936594843864
80.0,0.02661200240254402
88.0,0.025368360802531242
96.0,0.023996708914637566
104.0,0.022616328671574593
112.0,0.02149326540529728
120.0,0.020796874538064003
128.0,0.020382508635520935
144.0,0.019359564408659935
160.0,0.018198885023593903
176.0,0.016178695484995842
192.0,0.014020698145031929
208.0,0.012059919536113739
224.0,0.010295557789504528
240.0,0.008762666955590248
256.0,0.008127188310027122
288.0,0.006524112541228533
320.0,0.0030836910009384155
352.0,-0.0005028407904319465
384.0,-0.0034301243722438812
416.0,-0.006954067386686802
448.0,-0.007581192534416914
480.0,-0.009489697404205799
512.0,-0.011443393304944038
576.0,-0.012214718386530876
640.0,-0.012907191179692745
704.0,-0.01246064156293869
768.0,-0.010454813949763775
832.0,-0.009548014961183071
896.0,-0.007889258675277233
960.0,-0.005858521908521652
1024.0,-0.006181639153510332
1152.0,-0.005309962667524815
1280.0,-0.003082959447056055
1408.0,0.0015770740574225783
1536.0,0.00120191415771842
1664.0,0.0029532359912991524
1792.0,0.003152175573632121
1920.0,0.0038499501533806324
2048.0,0.004319107159972191
2304.0,0.001029102480970323
2560.0,-0.0015561551554128528
2816.0,-0.004045442212373018
3072.0,6.640506762778386e-05
3328.0,0.0026639127172529697
3584.0,0.0004991083405911922
3840.0,-0.0030915301758795977
4096.0,-0.0012638377957046032
4608.0,0.0037583555094897747
5120.0,-0.009721772745251656
5632.0,0.007856054231524467
6144.0,-0.0015754885971546173
6656.0,-0.004707517568022013
7168.0,0.006057779770344496
7680.0,0.0031644864939153194
8192.0,-0.004013779107481241
9216.0,0.001040663686580956
10240.0,-0.002435490721836686
11264.0,0.0036550555378198624
12288.0,-0.0033393329940736294
13312.0,-0.0023224668111652136
14336.0,0.007687082048505545
end
