version,3.0
numOfCh,1
type,point
parent_name,8-cuts
ch_type,1_1
kcount,1
numberNandB,1
brightnessNandB,1
carpet pos,0
pc,0
Time (ms),CH1 Auto-Correlation
1.0,0.024449555203318596
2.0,0.024063700810074806
3.0,0.023705460131168365
4.0,0.02335798740386963
5.0,0.023021938279271126
6.0,0.022692006081342697
7.0,0.022369418293237686
8.0,0.0220410767942667
9.0,0.021735453978180885
10.0,0.021447626873850822
11.0,0.021169070154428482
12.0,0.02088293433189392
13.0,0.020613400265574455
14.0,0.02035544440150261
15.0,0.020103685557842255
16.0,0.01984933763742447
18.0,0.01935560069978237
20.0,0.01886630430817604
22.0,0.01836969330906868
24.0,0.017894644290208817
26.0,0.01744876615703106
28.0,0.01700793020427227
30.0,0.01655413955450058
32.0,0.016132911667227745
36.0,0.015387827530503273
40.0,0.014772220514714718
44.0,0.01419920939952135
48.0,0.01364070177078247
52.0,0.013096827082335949
56.0,0.012547875754535198
60.0,0.01205951813608408
64.0,0.011604268103837967
72.0,0.010855610482394695
80.0,0.010184588842093945
88.0,0.009582019411027431
96.0,0.008991662412881851
104.0,0.008413045667111874
112.0,0.007985126227140427
120.0,0.007641974370926619
128.0,0.0073211113922297955
144.0,0.006830289028584957
160.0,0.006382139865309
176.0,0.006171074695885181
192.0,0.005855396389961243
208.0,0.0050323838368058205
224.0,0.004324223380535841
240.0,0.004125623032450676
256.0,0.004082892555743456
288.0,0.00357610615901649
320.0,0.0029119267128407955
352.0,0.0018536885036155581
384.0,0.0011669001542031765
416.0,0.0005576921976171434
448.0,0.0007082564407028258
480.0,0.0004652708594221622
512.0,0.000600764062255621
576.0,0.00035953495535068214
640.0,-0.00025257558445446193
704.0,-0.002330891788005829
768.0,-0.0030514681711792946
832.0,-0.003626282559707761
896.0,-0.0044431425631046295
960.0,-0.004558526445180178
1024.0,-0.003449335228651762
1152.0,-0.0044711558148264885
1280.0,-0.0023834521416574717
1408.0,-0.0016015350120142102
1536.0,-0.0019724781159311533
1664.0,-0.0019018896855413914
1792.0,-0.0005921627162024379
1920.0,0.00011264083150308579
2048.0,0.0010191196342930198
2304.0,0.0010007830569520593
2560.0,0.0015414057997986674
2816.0,0.0012690328294411302
3072.0,0.002759058028459549
3328.0,0.0019801161251962185
3584.0,0.0006712065078318119
3840.0,-0.002026059664785862
4096.0,-0.0026074072811752558
4608.0,-0.002482946729287505
5120.0,0.0018940868321806192
5632.0,0.0035641188733279705
6144.0,0.0016309503698721528
6656.0,-0.0012715980410575867
7168.0,-0.005162661429494619
7680.0,-0.0026705884374678135
8192.0,0.0032317833974957466
9216.0,-0.0011620420264080167
10240.0,-0.0012182277860119939
11264.0,0.0022403232287615538
12288.0,-0.0038327572401612997
13312.0,0.001598475151695311
14336.0,-0.0016082209767773747
end
