version,3.0
numOfCh,1
type,point
parent_name,8-cuts
ch_type,1_1
kcount,1
numberNandB,1
brightnessNandB,1
carpet pos,0
pc,0
Time (ms),CH1 Auto-Correlation
1.0,0.054205432534217834
2.0,0.05299808830022812
3.0,0.051832858473062515
4.0,0.05068999156355858
5.0,0.04959619417786598
6.0,0.04855361580848694
7.0,0.04754966124892235
8.0,0.046548422425985336
9.0,0.04557570442557335
10.0,0.044634196907281876
11.0,0.04371893033385277
12.0,0.042857617139816284
13.0,0.042016785591840744
14.0,0.04120662063360214
15.0,0.04042836278676987
16.0,0.03967072442173958
18.0,0.03814958035945892
20.0,0.036710016429424286
22.0,0.03539891168475151
24.0,0.03420711308717728
26.0,0.03314555808901787
28.0,0.03214402124285698
30.0,0.03122127056121826
32.0,0.030272725969552994
36.0,0.02845125086605549
40.0,0.026695679873228073
44.0,0.025059739127755165
48.0,0.023377735167741776
52.0,0.021696925163269043
56.0,0.020210321992635727
60.0,0.018799614161252975
64.0,0.017416853457689285
72.0,0.01515574473887682
80.0,0.01325614470988512
88.0,0.011676591821014881
96.0,0.010571124963462353
104.0,0.00962036196142435
112.0,0.008605465292930603
120.0,0.007681484799832106
128.0,0.006759778130799532
144.0,0.0052189757116138935
160.0,0.0037347511388361454
176.0,0.002563793445006013
192.0,0.0015629851259291172
208.0,0.00019010104006156325
224.0,-0.0002861964167095721
240.0,-0.00030038904515095055
256.0,-0.00032757772714830935
288.0,0.00035760534228757024
320.0,0.0007798630394972861
352.0,0.0026286032516509295
384.0,0.003657833207398653
416.0,0.0029046323616057634
448.0,0.0018096205312758684
480.0,0.0014481398975476623
512.0,0.0011833504540845752
576.0,-0.0015933025861158967
640.0,-0.005131761077791452
704.0,-0.003971186466515064
768.0,-0.0017082010162994266
832.0,0.0029290844686329365
896.0,0.005305972881615162
960.0,0.0014124487061053514
1024.0,-0.001941633759997785
1152.0,-0.0025986202526837587
1280.0,-0.003418195527046919
1408.0,-0.00690614664927125
1536.0,-0.0029170450288802385
1664.0,-0.004383086692541838
1792.0,-0.004195011220872402
1920.0,0.0005976316169835627
2048.0,-0.0026438278146088123
2304.0,-0.004927533213049173
2560.0,0.0002801259979605675
2816.0,0.0027483555022627115
3072.0,0.002243835013359785
3328.0,0.0006829961785115302
3584.0,0.0018341537797823548
3840.0,0.0033043960575014353
4096.0,0.0021379999816417694
4608.0,-0.0021665948443114758
5120.0,-0.005483284592628479
5632.0,0.0019966138061136007
6144.0,0.0009954699780791998
6656.0,0.005944266449660063
7168.0,0.0005393747705966234
7680.0,-0.0034106511157006025
8192.0,-0.004317138344049454
9216.0,-0.0006946813664399087
10240.0,0.002914255019277334
11264.0,-0.0002165561745641753
12288.0,-0.0027231492567807436
13312.0,0.0024200710467994213
14336.0,5.0170587201137096e-05
end
