version,3.0
numOfCh,1
type,point
parent_name,8-cuts
ch_type,1_1
kcount,1
numberNandB,1
brightnessNandB,1
carpet pos,0
pc,0
Time (ms),CH1 Auto-Correlation
1.0,0.06837236881256104
2.0,0.06707294285297394
3.0,0.06585254520177841
4.0,0.06466460973024368
5.0,0.06352341920137405
6.0,0.06239395588636398
7.0,0.06135145574808121
8.0,0.06035860255360603
9.0,0.059382546693086624
10.0,0.0584757961332798
11.0,0.05758268013596535
12.0,0.056705620139837265
13.0,0.055846359580755234
14.0,0.055010341107845306
15.0,0.05423041060566902
16.0,0.05346706137061119
18.0,0.052044134587049484
20.0,0.05074772983789444
22.0,0.04949294775724411
24.0,0.048232823610305786
26.0,0.04696209728717804
28.0,0.045749399811029434
30.0,0.0445408821105957
32.0,0.043380629271268845
36.0,0.04097524285316467
40.0,0.03857840970158577
44.0,0.03640541434288025
48.0,0.03439142554998398
52.0,0.03269960358738899
56.0,0.031313151121139526
60.0,0.030182544142007828
64.0,0.02919624000787735
72.0,0.02747522108256817
80.0,0.025915468111634254
88.0,0.02477779984474182
96.0,0.023410283029079437
104.0,0.021998293697834015
112.0,0.020371783524751663
120.0,0.018677789717912674
128.0,0.01707204058766365
144.0,0.013401668518781662
160.0,0.01045982725918293
176.0,0.009402228519320488
192.0,0.008657210506498814
208.0,0.008052737452089787
224.0,0.007497801445424557
240.0,0.0057754372246563435
256.0,0.004130525514483452
288.0,0.002522067865356803
320.0,0.0019153010798618197
352.0,0.000555339502170682
384.0,-0.001568953157402575
416.0,-0.002731914399191737
448.0,-0.003971988335251808
480.0,-0.006632097996771336
512.0,-0.008886992000043392
576.0,-0.00736238295212388
640.0,-0.007212883792817593
704.0,-0.004886741749942303
768.0,-0.002890378702431917
832.0,-0.0009184565278701484
896.0,0.000939748075325042
960.0,-9.994534048018977e-05
1024.0,0.00089463428594172
1152.0,-0.0016930869314819574
1280.0,-0.003610673826187849
1408.0,-0.0009359664982184768
1536.0,-7.461755740223452e-05
1664.0,-0.004779372829943895
1792.0,-0.0067927222698926926
1920.0,-0.004930271301418543
2048.0,-0.005035715643316507
2304.0,-0.0016388867516070604
2560.0,-0.0047423355281353
2816.0,-0.005323166027665138
3072.0,0.0067611695267260075
3328.0,0.0004082811647094786
3584.0,-0.00280926376581192
3840.0,0.005516145844012499
4096.0,0.0059494758024811745
4608.0,0.00782099086791277
5120.0,0.0015561272157356143
5632.0,-0.0041360920295119286
6144.0,-0.002024283865466714
6656.0,-0.0034147528931498528
7168.0,-0.004620064981281757
7680.0,0.0002423899422865361
8192.0,0.004054305609315634
9216.0,0.0053812433034181595
10240.0,-0.007404632866382599
11264.0,-0.0011750730918720365
12288.0,0.008046953938901424
13312.0,-0.009958216920495033
14336.0,0.002737823873758316
end
