version,3.0
numOfCh,1
type,point
parent_name,8-cuts
ch_type,1_1
kcount,1
numberNandB,1
brightnessNandB,1
carpet pos,0
pc,0
Time (ms),CH1 Auto-Correlation
1.0,0.02801002375781536
2.0,0.027441054582595825
3.0,0.02690167725086212
4.0,0.026393072679638863
5.0,0.025902116671204567
6.0,0.025437118485569954
7.0,0.02500307746231556
8.0,0.024576503783464432
9.0,0.024170689284801483
10.0,0.023761406540870667
11.0,0.02337661385536194
12.0,0.02301308698952198
13.0,0.022665971890091896
14.0,0.022334406152367592
15.0,0.02201436460018158
16.0,0.021702583879232407
18.0,0.021132001653313637
20.0,0.02059742622077465
22.0,0.02010444365441799
24.0,0.019662635400891304
26.0,0.019255267456173897
28.0,0.018850453197956085
30.0,0.018471678718924522
32.0,0.018103457987308502
36.0,0.017421534284949303
40.0,0.016790170222520828
44.0,0.016156287863850594
48.0,0.015428751707077026
52.0,0.0146434111520648
56.0,0.01389346458017826
60.0,0.013211355544626713
64.0,0.01260657049715519
72.0,0.011519166640937328
80.0,0.010470297187566757
88.0,0.00966689083725214
96.0,0.008919366635382175
104.0,0.008275962434709072
112.0,0.007757195271551609
120.0,0.00741336727514863
128.0,0.007154361344873905
144.0,0.006551429163664579
160.0,0.005610447842627764
176.0,0.00481414096429944
192.0,0.004264034330844879
208.0,0.0035391596611589193
224.0,0.0034568405244499445
240.0,0.003243324114009738
256.0,0.003023782977834344
288.0,0.0025475809816271067
320.0,0.0023919418454170227
352.0,0.0022974577732384205
384.0,0.0020817795302718878
416.0,0.001829928020015359
448.0,0.001530943438410759
480.0,0.0019118721829727292
512.0,0.0016631376929581165
576.0,-0.0007546726847067475
640.0,-0.0007359819719567895
704.0,-0.0002175431145587936
768.0,-0.0007950338767841458
832.0,-0.0016036659944802523
896.0,-0.003142640460282564
960.0,-0.003134608967229724
1024.0,-0.003964888863265514
1152.0,-0.0026564784348011017
1280.0,-0.0009101417381316423
1408.0,0.00021076660777907819
1536.0,-0.0001857177121564746
1664.0,2.558201231295243e-05
1792.0,-0.0013345882762223482
1920.0,-0.0012066659983247519
2048.0,5.657131623593159e-05
2304.0,0.0009491551900282502
2560.0,0.00035158355603925884
2816.0,0.0006139774341136217
3072.0,-0.0016457575839012861
3328.0,-0.0031995580065995455
3584.0,-0.00224484596401453
3840.0,-0.0007912605651654303
4096.0,0.0017964593134820461
4608.0,0.0010505284881219268
5120.0,-0.001512460527010262
5632.0,-0.001048806356266141
6144.0,0.0013287708861753345
6656.0,0.0013818027218803763
7168.0,-0.0010366494534537196
7680.0,-0.0002544683520682156
8192.0,0.0016559367068111897
9216.0,-0.0003353155916556716
10240.0,-0.0035973682533949614
11264.0,-0.0015099889133125544
12288.0,0.0023374648299068213
13312.0,0.003109960351139307
14336.0,-0.0009700233931653202
end
