version,3.0
numOfCh,1
type,point
parent_name,8-cuts
ch_type,1_1
kcount,1
numberNandB,1
brightnessNandB,1
carpet pos,0
pc,0
Time (ms),CH1 Auto-Correlation
1.0,0.017918480560183525
2.0,0.017517762258648872
3.0,0.017132176086306572
4.0,0.01677151583135128
5.0,0.016423849388957024
6.0,0.01608993671834469
7.0,0.01575801894068718
8.0,0.015441693365573883
9.0,0.015138231217861176
10.0,0.014843377284705639
11.0,0.01455729454755783
12.0,0.014282576739788055
13.0,0.014022057875990868
14.0,0.013761285692453384
15.0,0.013502544723451138
16.0,0.013250362128019333
18.0,0.012770299799740314
20.0,0.012293212115764618
22.0,0.011808224022388458
24.0,0.011326849460601807
26.0,0.010870123282074928
28.0,0.010447344742715359
30.0,0.010046864859759808
32.0,0.009666473604738712
36.0,0.009013411588966846
40.0,0.008475547656416893
44.0,0.008004255592823029
48.0,0.007625872734934092
52.0,0.007254747208207846
56.0,0.0069083175621926785
60.0,0.006599627435207367
64.0,0.0063280086033046246
72.0,0.005673070903867483
80.0,0.0049428800120949745
88.0,0.004219731781631708
96.0,0.0036572508979588747
104.0,0.0031816407572478056
112.0,0.0027370324824005365
120.0,0.002327145077288151
128.0,0.0020054643973708153
144.0,0.0013260811101645231
160.0,0.0009462636080570519
176.0,0.001006553415209055
192.0,0.001257287454791367
208.0,0.0012006100732833147
224.0,0.0007982981624081731
240.0,0.0007155301864258945
256.0,0.001080100773833692
288.0,0.001133096870034933
320.0,0.0007670176564715803
352.0,0.0002407440624665469
384.0,3.61477978003677e-05
416.0,-0.00041803219937719405
448.0,-0.0004768477811012417
480.0,0.00033034602529369295
512.0,0.0010729451896622777
576.0,0.00045962934382259846
640.0,0.0006403939332813025
704.0,0.0004346140194684267
768.0,0.000513079110532999
832.0,-0.0003974182181991637
896.0,-0.0006725956336595118
960.0,-0.0011520301923155785
1024.0,-0.0015240523498505354
1152.0,-0.00045154913095757365
1280.0,-0.0007498848135583103
1408.0,0.0006935409619472921
1536.0,-0.0008882812689989805
1664.0,-0.0009287800639867783
1792.0,7.034544250927866e-05
1920.0,0.00022804852051194757
2048.0,0.00014206863124854863
2304.0,-0.0010462173959240317
2560.0,4.947542038280517e-05
2816.0,-0.0014460255624726415
3072.0,-0.000905695604160428
3328.0,0.0002490209590177983
3584.0,0.00017050228780135512
3840.0,-0.0006136737065389752
4096.0,-0.001810031826607883
4608.0,-0.0006134928553365171
5120.0,0.0009197746403515339
5632.0,0.0016462422208860517
6144.0,0.0008904829155653715
6656.0,-0.00023358284670393914
7168.0,-0.0005174484685994685
7680.0,-0.0011365769896656275
8192.0,0.00046673230826854706
9216.0,-0.0013066669926047325
10240.0,0.00013645883882418275
11264.0,0.0007926375837996602
12288.0,5.3011572163086385e-05
13312.0,9.091629181057215e-05
14336.0,-0.0013517455663532019
end
