version,3.0
numOfCh,1
type,point
parent_name,8-cuts
ch_type,1_1
kcount,1
numberNandB,1
brightnessNandB,1
carpet pos,0
pc,0
Time (ms),CH1 Auto-Correlation
1.0,0.08046076446771622
2.0,0.07989746332168579
3.0,0.07933515310287476
4.0,0.07878989726305008
5.0,0.078252874314785
6.0,0.07772698998451233
7.0,0.07718329131603241
8.0,0.07663078606128693
9.0,0.0760827288031578
10.0,0.07554315775632858
11.0,0.07500983029603958
12.0,0.0744856670498848
13.0,0.07396093755960464
14.0,0.07344457507133484
15.0,0.07293640822172165
16.0,0.07243877649307251
18.0,0.0714908018708229
20.0,0.07056289911270142
22.0,0.06963954120874405
24.0,0.06873200088739395
26.0,0.06782155483961105
28.0,0.0669606477022171
30.0,0.06614457815885544
32.0,0.06534851342439651
36.0,0.06386352330446243
40.0,0.06252799928188324
44.0,0.061307143419981
48.0,0.06015169620513916
52.0,0.059048403054475784
56.0,0.05795065686106682
60.0,0.056853286921978
64.0,0.0557982362806797
72.0,0.053670670837163925
80.0,0.05155673250555992
88.0,0.04951532930135727
96.0,0.047431133687496185
104.0,0.04537632316350937
112.0,0.043566327542066574
120.0,0.04205767810344696
128.0,0.040751345455646515
144.0,0.03833972290158272
160.0,0.03575490042567253
176.0,0.033089905977249146
192.0,0.030886081978678703
208.0,0.029347795993089676
224.0,0.028303183615207672
240.0,0.027758639305830002
256.0,0.027286794036626816
288.0,0.025608763098716736
320.0,0.02295498177409172
352.0,0.020473269745707512
384.0,0.018031775951385498
416.0,0.01655423268675804
448.0,0.014384457841515541
480.0,0.01315215416252613
512.0,0.012615363113582134
576.0,0.012012047693133354
640.0,0.014608023688197136
704.0,0.016326507553458214
768.0,0.015035315416753292
832.0,0.013525612652301788
896.0,0.014098746702075005
960.0,0.01474756095558405
1024.0,0.015621253289282322
1152.0,0.011754781007766724
1280.0,0.005572526715695858
1408.0,0.0033287699334323406
1536.0,-0.0033622265327721834
1664.0,-0.006595910992473364
1792.0,-0.0067163510248064995
1920.0,-0.0063150362111628056
2048.0,-0.0031312135979533195
2304.0,-0.00031312022474594414
2560.0,-0.004608498886227608
2816.0,-0.005769991781562567
3072.0,-0.00035030656727030873
3328.0,0.0034368301276117563
3584.0,-0.0002700834593269974
3840.0,-0.0027675034943968058
4096.0,-0.006427302490919828
4608.0,-0.013677642680704594
5120.0,-0.02000059001147747
5632.0,-0.016143279150128365
6144.0,-0.01284804753959179
6656.0,0.006350865121930838
7168.0,-0.0011744098737835884
7680.0,0.0018608702812343836
8192.0,-0.00330414529889822
9216.0,-0.009063244797289371
10240.0,0.007315583061426878
11264.0,0.010673663578927517
12288.0,-0.0030278153717517853
13312.0,-0.010642146691679955
14336.0,0.000602623971644789
end
