version,3.0
numOfCh,1
type,point
parent_name,8-cuts
ch_type,1_1
kcount,1
numberNandB,1
brightnessNandB,1
carpet pos,0
pc,0
Time (ms),CH1 Auto-Correlation
1.0,0.07876095920801163
2.0,0.07807880640029907
3.0,0.07741017639636993
4.0,0.07674939930438995
5.0,0.07607950270175934
6.0,0.07541097700595856
7.0,0.07475586235523224
8.0,0.07410141080617905
9.0,0.07345231622457504
10.0,0.07281092554330826
11.0,0.07218378782272339
12.0,0.07157358527183533
13.0,0.07095517963171005
14.0,0.07033850252628326
15.0,0.06972888857126236
16.0,0.06913504004478455
18.0,0.06795787811279297
20.0,0.06679049134254456
22.0,0.06561444699764252
24.0,0.06450078636407852
26.0,0.06342826038599014
28.0,0.062393683940172195
30.0,0.06136707589030266
32.0,0.06035555899143219
36.0,0.05836893618106842
40.0,0.056574784219264984
44.0,0.054879460483789444
48.0,0.0531911626458168
52.0,0.05159052088856697
56.0,0.05001455545425415
60.0,0.04855668917298317
64.0,0.047115206718444824
72.0,0.04434126988053322
80.0,0.041533213108778
88.0,0.038618847727775574
96.0,0.03590177372097969
104.0,0.033640503883361816
112.0,0.031983423978090286
120.0,0.030488232150673866
128.0,0.028931086882948875
144.0,0.025931883603334427
160.0,0.023829052224755287
176.0,0.022252336144447327
192.0,0.020594768226146698
208.0,0.018525129184126854
224.0,0.016751987859606743
240.0,0.01585538685321808
256.0,0.015270949341356754
288.0,0.014197386801242828
320.0,0.01237741019576788
352.0,0.01016929280012846
384.0,0.006915932521224022
416.0,0.004082778934389353
448.0,0.0019637811928987503
480.0,0.002109737601131201
512.0,0.0017766777891665697
576.0,0.003031335771083832
640.0,0.003749117022380233
704.0,0.002709383377805352
768.0,0.002687806962057948
832.0,0.005946734454482794
896.0,0.006271952763199806
960.0,0.007550343405455351
1024.0,0.005416126921772957
1152.0,0.001912898849695921
1280.0,-0.004253506660461426
1408.0,-0.004885506350547075
1536.0,-0.008238688111305237
1664.0,-0.0055793398059904575
1792.0,-0.0038732108660042286
1920.0,-0.0031686064321547747
2048.0,0.0017365945968776941
2304.0,-0.0011307059321552515
2560.0,-0.007208473049104214
2816.0,-0.00011335787712596357
3072.0,-0.0009874161332845688
3328.0,-0.001922848867252469
3584.0,0.0010828414233401418
3840.0,0.006568829528987408
4096.0,0.0015968849183991551
4608.0,0.0042604426853358746
5120.0,-0.0031457841396331787
5632.0,-0.007995802909135818
6144.0,-0.02045295573771
6656.0,-0.0012291824677959085
7168.0,0.010656692087650299
7680.0,0.006268677301704884
8192.0,0.0024235351011157036
9216.0,0.002405177801847458
10240.0,-0.00655070086941123
11264.0,-0.0035971070174127817
12288.0,-0.00861422810703516
13312.0,-0.010198106057941914
14336.0,-0.0008681793115101755
end
