version,3.0
numOfCh,1
type,point
parent_name,8-cuts
ch_type,1_1
kcount,1
numberNandB,1
brightnessNandB,1
carpet pos,0
pc,0
Time (ms),CH1 Auto-Correlation
1.0,0.08604837954044342
2.0,0.08550665527582169
3.0,0.08498839288949966
4.0,0.08447033911943436
5.0,0.08395783603191376
6.0,0.08344081044197083
7.0,0.08293629437685013
8.0,0.08242698013782501
9.0,0.08192409574985504
10.0,0.08143026381731033
11.0,0.08095083385705948
12.0,0.08047923445701599
13.0,0.08000069111585617
14.0,0.07952786982059479
15.0,0.07905549556016922
16.0,0.07859106361865997
18.0,0.07767415791749954
20.0,0.07678055763244629
22.0,0.07591981440782547
24.0,0.07506892085075378
26.0,0.0742247924208641
28.0,0.07339944690465927
30.0,0.07261066883802414
32.0,0.07183653116226196
36.0,0.07040493935346603
40.0,0.06911187618970871
44.0,0.06793531030416489
48.0,0.06691189110279083
52.0,0.06599056720733643
56.0,0.0650995671749115
60.0,0.06418720632791519
64.0,0.06335002928972244
72.0,0.06163764372467995
80.0,0.05997689813375473
88.0,0.058336567133665085
96.0,0.05682418495416641
104.0,0.05547783896327019
112.0,0.05417833477258682
120.0,0.05290272459387779
128.0,0.05162657052278519
144.0,0.04909535497426987
160.0,0.04666604846715927
176.0,0.0448014959692955
192.0,0.043762095272541046
208.0,0.04283979535102844
224.0,0.04181906580924988
240.0,0.04080056771636009
256.0,0.03955964371562004
288.0,0.03675193339586258
320.0,0.034626107662916183
352.0,0.031400736421346664
384.0,0.028304893523454666
416.0,0.025096092373132706
448.0,0.022594833746552467
480.0,0.021023843437433243
512.0,0.020188789814710617
576.0,0.019833358004689217
640.0,0.017239514738321304
704.0,0.01392346527427435
768.0,0.009868090972304344
832.0,0.0060176365077495575
896.0,0.0015859557315707207
960.0,-0.0037379367277026176
1024.0,-0.006976102478802204
1152.0,-0.011170310899615288
1280.0,-0.01913612149655819
1408.0,-0.02394477091729641
1536.0,-0.027559801936149597
1664.0,-0.028754020109772682
1792.0,-0.02583642490208149
1920.0,-0.02535187639296055
2048.0,-0.018079275265336037
2304.0,-0.01160578802227974
2560.0,-0.009921194054186344
2816.0,-0.0010719220153987408
3072.0,0.0013822066830471158
3328.0,0.0006775512010790408
3584.0,0.003175700781866908
3840.0,0.009224878624081612
4096.0,0.016336582601070404
4608.0,0.023143289610743523
5120.0,0.0037424920592457056
5632.0,-0.022952867671847343
6144.0,-0.02776363305747509
6656.0,-0.012494579888880253
7168.0,0.016589270904660225
7680.0,0.02358425222337246
8192.0,0.00516174454241991
9216.0,-0.0032434475142508745
10240.0,-0.027320001274347305
11264.0,0.0031741419807076454
12288.0,0.028909677639603615
13312.0,-0.022263631224632263
14336.0,-0.011221553198993206
end
