version,3.0
numOfCh,1
type,point
parent_name,8-cuts
ch_type,1_1
kcount,1
numberNandB,1
brightnessNandB,1
carpet pos,0
pc,0
Time (ms),CH1 Auto-Correlation
1.0,0.0695318654179573
2.0,0.06895816326141357
3.0,0.06839243322610855
4.0,0.06784020364284515
5.0,0.06728263944387436
6.0,0.06672897934913635
7.0,0.06617914885282516
8.0,0.06563878059387207
9.0,0.06510782241821289
10.0,0.0645793154835701
11.0,0.06406448036432266
12.0,0.06356799602508545
13.0,0.06308047473430634
14.0,0.06260035932064056
15.0,0.06213080883026123
16.0,0.061663009226322174
18.0,0.06071081757545471
20.0,0.05980841815471649
22.0,0.05895792320370674
24.0,0.0581444688141346
26.0,0.05735980346798897
28.0,0.056592173874378204
30.0,0.05581222474575043
32.0,0.055000968277454376
36.0,0.05330698564648628
40.0,0.051567450165748596
44.0,0.04982635751366615
48.0,0.04819844663143158
52.0,0.04663582518696785
56.0,0.04516078159213066
60.0,0.04380524903535843
64.0,0.04257497191429138
72.0,0.04021982103586197
80.0,0.037982575595378876
88.0,0.03582480922341347
96.0,0.03372340276837349
104.0,0.03169601038098335
112.0,0.029864469543099403
120.0,0.028355279937386513
128.0,0.027108974754810333
144.0,0.02450260892510414
160.0,0.022312724962830544
176.0,0.021138861775398254
192.0,0.02088220976293087
208.0,0.021122779697179794
224.0,0.021853001788258553
240.0,0.022282695397734642
256.0,0.02279580943286419
288.0,0.023052308708429337
320.0,0.021331004798412323
352.0,0.01826115883886814
384.0,0.014366504736244678
416.0,0.010904493741691113
448.0,0.009052416309714317
480.0,0.008700628764927387
512.0,0.00949128158390522
576.0,0.007950891740620136
640.0,0.003439792897552252
704.0,-0.0012076608836650848
768.0,-0.0003258532378822565
832.0,0.002704176353290677
896.0,0.003000839613378048
960.0,0.004003861453384161
1024.0,0.004143579863011837
1152.0,0.0014973642537370324
1280.0,0.0020032906904816628
1408.0,0.008654394187033176
1536.0,0.011178659275174141
1664.0,0.014772667549550533
1792.0,0.01595170609652996
1920.0,0.014270329847931862
2048.0,0.010002326220273972
2304.0,0.0031726746819913387
2560.0,-0.0014925542054697871
2816.0,-0.002050632145255804
3072.0,-0.00245681288652122
3328.0,0.0064774202182888985
3584.0,0.009171179495751858
3840.0,-0.00292293936945498
4096.0,-0.013460424728691578
4608.0,-0.010253741405904293
5120.0,0.0016882771160453558
5632.0,-0.007433069869875908
6144.0,-0.015477031469345093
6656.0,-0.018783388659358025
7168.0,-0.00411764532327652
7680.0,-0.013697759248316288
8192.0,-0.0100536048412323
9216.0,-0.001232425100170076
10240.0,-0.0014907644363120198
11264.0,0.0038010573480278254
12288.0,-0.00044946838170289993
13312.0,0.00587102398276329
14336.0,0.010435720905661583
end
