version,3.0
numOfCh,1
type,point
parent_name,8-cuts
ch_type,1_1
kcount,1
numberNandB,1
brightnessNandB,1
carpet pos,0
pc,0
Time (ms),CH1 Auto-Correlation
1.0,0.06796051561832428
2.0,0.06754039973020554
3.0,0.06713063269853592
4.0,0.06671945005655289
5.0,0.06632506102323532
6.0,0.06592768430709839
7.0,0.06554824858903885
8.0,0.06515870988368988
9.0,0.06478450447320938
10.0,0.06441206485033035
11.0,0.06403261423110962
12.0,0.06366442888975143
13.0,0.06330020725727081
14.0,0.06294940412044525
15.0,0.0625915601849556
16.0,0.062236953526735306
18.0,0.06153237819671631
20.0,0.060842547565698624
22.0,0.06016138195991516
24.0,0.05951438471674919
26.0,0.05891086533665657
28.0,0.05835103243589401
30.0,0.057808879762887955
32.0,0.057279322296381
36.0,0.05629207193851471
40.0,0.05540309473872185
44.0,0.054615892469882965
48.0,0.05383427441120148
52.0,0.053070761263370514
56.0,0.05234793573617935
60.0,0.05162377282977104
64.0,0.05090276151895523
72.0,0.04944335296750069
80.0,0.047962453216314316
88.0,0.046576838940382004
96.0,0.04528655484318733
104.0,0.04415970295667648
112.0,0.04307658597826958
120.0,0.042040061205625534
128.0,0.04110167920589447
144.0,0.03918392211198807
160.0,0.03760695457458496
176.0,0.03626007214188576
192.0,0.034428492188453674
208.0,0.031987011432647705
224.0,0.029861321672797203
240.0,0.02841082587838173
256.0,0.027136623859405518
288.0,0.024147380143404007
320.0,0.021854257211089134
352.0,0.019877111539244652
384.0,0.01852763257920742
416.0,0.01647641509771347
448.0,0.013735249638557434
480.0,0.011126191355288029
512.0,0.0092580271884799
576.0,0.007971378974616528
640.0,0.007937806658446789
704.0,0.009294599294662476
768.0,0.011898178607225418
832.0,0.01389874704182148
896.0,0.015644818544387817
960.0,0.016832269728183746
1024.0,0.019019678235054016
1152.0,0.021030886098742485
1280.0,0.018568044528365135
1408.0,0.012175390496850014
1536.0,0.009040395729243755
1664.0,0.009124542586505413
1792.0,0.01039251871407032
1920.0,0.01043783687055111
2048.0,0.009784480556845665
2304.0,0.005142419598996639
2560.0,0.0027108958456665277
2816.0,0.00012851963401772082
3072.0,0.0018903964664787054
3328.0,-0.004789178259670734
3584.0,-0.0014844415709376335
3840.0,0.008030382916331291
4096.0,0.008820992894470692
4608.0,-0.00253135128878057
5120.0,-0.005525974556803703
5632.0,-0.004952190909534693
6144.0,-0.00811010506004095
6656.0,-0.013365201652050018
7168.0,-0.021933073177933693
7680.0,-0.0171318668872118
8192.0,-0.014329086057841778
9216.0,-0.018714439123868942
10240.0,-0.01292161364108324
11264.0,-0.005888211540877819
12288.0,0.011684011667966843
13312.0,0.0019826414063572884
14336.0,0.0031932261772453785
end
