version,3.0
numOfCh,1
type,point
parent_name,8-cuts
ch_type,1_1
kcount,1
numberNandB,1
brightnessNandB,1
carpet pos,0
pc,0
Time (ms),CH1 Auto-Correlation
1.0,0.024989711120724678
2.0,0.02477201633155346
3.0,0.024558592587709427
4.0,0.024344418197870255
5.0,0.024134717881679535
6.0,0.023931017145514488
7.0,0.02373570017516613
8.0,0.0235418863594532
9.0,0.02335193194448948
10.0,0.023160813376307487
11.0,0.022979600355029106
12.0,0.022798260673880577
13.0,0.02261613868176937
14.0,0.02243264764547348
15.0,0.022256366908550262
16.0,0.02207978069782257
18.0,0.021734163165092468
20.0,0.02138475701212883
22.0,0.02103925496339798
24.0,0.020706908777356148
26.0,0.020372284576296806
28.0,0.020043620839715004
30.0,0.01973104290664196
32.0,0.01941693015396595
36.0,0.018833337351679802
40.0,0.01826632022857666
44.0,0.01771031692624092
48.0,0.017176849767565727
52.0,0.016673756763339043
56.0,0.016199195757508278
60.0,0.015759499743580818
64.0,0.015347573906183243
72.0,0.01466718502342701
80.0,0.014111395925283432
88.0,0.013620173558592796
96.0,0.013114549219608307
104.0,0.012622479349374771
112.0,0.012235663831233978
120.0,0.011898842640221119
128.0,0.011587586253881454
144.0,0.010972041636705399
160.0,0.010289879515767097
176.0,0.009774613194167614
192.0,0.009299200028181076
208.0,0.008623038418591022
224.0,0.00788868311792612
240.0,0.007318146992474794
256.0,0.006974972318857908
288.0,0.006642783060669899
320.0,0.006747348699718714
352.0,0.006700822152197361
384.0,0.006555803585797548
416.0,0.005941247567534447
448.0,0.005137737840414047
480.0,0.004464521072804928
512.0,0.0038808139506727457
576.0,0.0017399891512468457
640.0,0.0006017438136041164
704.0,0.00044812343548983335
768.0,-0.00013114191824570298
832.0,0.00019713447545655072
896.0,0.0004785814671777189
960.0,-0.0007959129870869219
1024.0,-0.002236474072560668
1152.0,-0.002260361099615693
1280.0,-0.0020592473447322845
1408.0,-0.0021646316163241863
1536.0,-0.002373269759118557
1664.0,-0.002546569099649787
1792.0,-0.0039149136282503605
1920.0,-0.003837643889710307
2048.0,-0.003646827768534422
2304.0,-0.0034632161259651184
2560.0,-0.001164786284789443
2816.0,-0.00029159706900827587
3072.0,0.0013368881773203611
3328.0,0.0024652231950312853
3584.0,0.0021392859052866697
3840.0,0.0011853703763335943
4096.0,0.000894234050065279
4608.0,0.002487608464434743
5120.0,0.0009540427126921713
5632.0,0.0007904588710516691
6144.0,0.0008829908329062164
6656.0,-0.00120864761993289
7168.0,-0.0011813081800937653
7680.0,0.0016775161493569613
8192.0,9.471210069023073e-05
9216.0,-0.0032999245449900627
10240.0,-0.0023032790049910545
11264.0,0.0005322560900822282
12288.0,0.0024627395905554295
13312.0,-0.004986225161701441
14336.0,-0.004449257627129555
end
