version,3.0
numOfCh,1
type,point
parent_name,8-cuts
ch_type,1_1
kcount,1
numberNandB,1
brightnessNandB,1
carpet pos,0
pc,0
Time (ms),CH1 Auto-Correlation
1.0,0.026987874880433083
2.0,0.026797881349921227
3.0,0.0266129057854414
4.0,0.026425279676914215
5.0,0.02624095417559147
6.0,0.02606319636106491
7.0,0.025888899341225624
8.0,0.02571828104555607
9.0,0.02554759755730629
10.0,0.025374695658683777
11.0,0.025205297395586967
12.0,0.025039125233888626
13.0,0.024875054135918617
14.0,0.02471565268933773
15.0,0.024558883160352707
16.0,0.024406390264630318
18.0,0.02409875951707363
20.0,0.023804854601621628
22.0,0.02351943403482437
24.0,0.023243794217705727
26.0,0.022976720705628395
28.0,0.02270568534731865
30.0,0.022440368309617043
32.0,0.022187234833836555
36.0,0.021691206842660904
40.0,0.021176474168896675
44.0,0.0206878874450922
48.0,0.02019803412258625
52.0,0.019722092896699905
56.0,0.019255109131336212
60.0,0.01881854422390461
64.0,0.018401606008410454
72.0,0.01766064576804638
80.0,0.016979355365037918
88.0,0.016240734606981277
96.0,0.015502642840147018
104.0,0.014860636554658413
112.0,0.014246290549635887
120.0,0.013580518774688244
128.0,0.01289789192378521
144.0,0.011683167889714241
160.0,0.010726909153163433
176.0,0.00997666735202074
192.0,0.009505465626716614
208.0,0.009148170240223408
224.0,0.008827739395201206
240.0,0.008466810919344425
256.0,0.008166760206222534
288.0,0.007989558391273022
320.0,0.007701318245381117
352.0,0.0072803436778485775
384.0,0.006834044121205807
416.0,0.006251783575862646
448.0,0.00562021741643548
480.0,0.005144968628883362
512.0,0.004639303777366877
576.0,0.0034824011381715536
640.0,0.0022573648020625114
704.0,0.001659659668803215
768.0,0.0023661511950194836
832.0,0.002569538773968816
896.0,0.0024822656996548176
960.0,0.0018034164095297456
1024.0,0.0020079161040484905
1152.0,0.003339260583743453
1280.0,0.003932291176170111
1408.0,0.0031596936751157045
1536.0,0.0017677515279501677
1664.0,0.0006027696654200554
1792.0,-0.0008320934139192104
1920.0,-0.0007814668351784348
2048.0,-0.00045112179941497743
2304.0,-0.002426323713734746
2560.0,-0.0008852044702507555
2816.0,0.0007727332413196564
3072.0,0.0020863215904682875
3328.0,0.0007650303887203336
3584.0,-0.00046810455387458205
3840.0,0.00023520234390161932
4096.0,0.003695074701681733
4608.0,0.0020873851608484983
5120.0,-0.0029912609606981277
5632.0,-0.006574909668415785
6144.0,-0.005652790889143944
6656.0,-0.005019047297537327
7168.0,-0.002174477092921734
7680.0,0.0006078380392864347
8192.0,-0.0014709469396620989
9216.0,-0.0018102513859048486
10240.0,-0.004345687571913004
11264.0,5.261296246317215e-05
12288.0,0.0023453424219042063
13312.0,-0.0018066168995574117
14336.0,-0.00011760010966099799
end
