version,3.0
numOfCh,1
type,point
parent_name,8-cuts
ch_type,1_1
kcount,1
numberNandB,1
brightnessNandB,1
carpet pos,0
pc,0
Time (ms),CH1 Auto-Correlation
1.0,0.0677185133099556
2.0,0.06725727021694183
3.0,0.06680339574813843
4.0,0.06636243313550949
5.0,0.06591702252626419
6.0,0.06547952443361282
7.0,0.06504212319850922
8.0,0.06462255865335464
9.0,0.06422163546085358
10.0,0.06382458657026291
11.0,0.06343713402748108
12.0,0.06305676698684692
13.0,0.06269320845603943
14.0,0.06232354789972305
15.0,0.061974260956048965
16.0,0.061629511415958405
18.0,0.06098606809973717
20.0,0.0603305883705616
22.0,0.05966215208172798
24.0,0.058997008949518204
26.0,0.058343350887298584
28.0,0.05770702660083771
30.0,0.05709725618362427
32.0,0.05653468519449234
36.0,0.05542462691664696
40.0,0.054361823946237564
44.0,0.0533762127161026
48.0,0.052462540566921234
52.0,0.051570966839790344
56.0,0.05068811774253845
60.0,0.04984056204557419
64.0,0.04899384453892708
72.0,0.04739782586693764
80.0,0.04581664502620697
88.0,0.04431310296058655
96.0,0.04286852106451988
104.0,0.04139041155576706
112.0,0.03990514576435089
120.0,0.038486361503601074
128.0,0.037112001329660416
144.0,0.03467213362455368
160.0,0.03230971097946167
176.0,0.029874373227357864
192.0,0.028052430599927902
208.0,0.02647736296057701
224.0,0.025410832837224007
240.0,0.024310117587447166
256.0,0.023534003645181656
288.0,0.02199181169271469
320.0,0.02006673440337181
352.0,0.018895847722887993
384.0,0.019549930468201637
416.0,0.019731862470507622
448.0,0.0204546507447958
480.0,0.02153455652296543
512.0,0.022213073447346687
576.0,0.022779572755098343
640.0,0.020640209317207336
704.0,0.01879950799047947
768.0,0.018492333590984344
832.0,0.01721954345703125
896.0,0.014987848699092865
960.0,0.01500046905130148
1024.0,0.015895472839474678
1152.0,0.014720254577696323
1280.0,0.010516652837395668
1408.0,0.0059073553420603275
1536.0,0.00436353636905551
1664.0,0.0033099313732236624
1792.0,0.0024492896627634764
1920.0,-0.0009620773489587009
2048.0,-0.0020800025667995214
2304.0,-0.014211933128535748
2560.0,-0.009265641681849957
2816.0,-0.013891013339161873
3072.0,-0.013716446235775948
3328.0,-0.006108443718403578
3584.0,-0.012316536158323288
3840.0,-0.0035308226943016052
4096.0,-0.010940439067780972
4608.0,0.00046921236207708716
5120.0,0.004288178868591785
5632.0,0.008887789212167263
6144.0,0.0027063735760748386
6656.0,0.00032705580815672874
7168.0,-0.008738167583942413
7680.0,-0.015350611880421638
8192.0,-0.021438084542751312
9216.0,-0.007848449051380157
10240.0,0.0049454085528850555
11264.0,0.009181792847812176
12288.0,0.0005688837845809758
13312.0,-0.005682318937033415
14336.0,-0.018515191972255707
end
