version,3.0
numOfCh,1
type,point
parent_name,8-cuts
ch_type,1_1
kcount,1
numberNandB,1
brightnessNandB,1
carpet pos,0
pc,0
Time (ms),CH1 Auto-Correlation
1.0,0.027578864246606827
2.0,0.027364419773221016
3.0,0.02714485116302967
4.0,0.02693135477602482
5.0,0.026716502383351326
6.0,0.026500126346945763
7.0,0.026283787563443184
8.0,0.026071935892105103
9.0,0.025869322940707207
10.0,0.02566607855260372
11.0,0.025464247912168503
12.0,0.025267325341701508
13.0,0.02507108822464943
14.0,0.0248747356235981
15.0,0.024682417511940002
16.0,0.024494612589478493
18.0,0.024127941578626633
20.0,0.023769233375787735
22.0,0.023424582555890083
24.0,0.02309618704020977
26.0,0.022785646840929985
28.0,0.02247791923582554
30.0,0.022170593962073326
32.0,0.021868668496608734
36.0,0.021316058933734894
40.0,0.020795481279492378
44.0,0.020284874364733696
48.0,0.019804738461971283
52.0,0.019345641136169434
56.0,0.018878024071455002
60.0,0.01841200888156891
64.0,0.01797134056687355
72.0,0.017154105007648468
80.0,0.01642858237028122
88.0,0.015766683965921402
96.0,0.015176152810454369
104.0,0.014620460569858551
112.0,0.014127868227660656
120.0,0.013661478646099567
128.0,0.01321378629654646
144.0,0.012386609800159931
160.0,0.011935562826693058
176.0,0.011760684661567211
192.0,0.011410076171159744
208.0,0.010941690765321255
224.0,0.01031769160181284
240.0,0.009725959971547127
256.0,0.009038276970386505
288.0,0.008022448979318142
320.0,0.00706176133826375
352.0,0.006127761676907539
384.0,0.005813725758343935
416.0,0.005510612390935421
448.0,0.005183047149330378
480.0,0.005196032114326954
512.0,0.004895498044788837
576.0,0.0035075012128800154
640.0,0.0024461247958242893
704.0,0.001197192003019154
768.0,0.0008022123947739601
832.0,0.0005603204481303692
896.0,0.0007872979040257633
960.0,0.0006399533594958484
1024.0,0.00043782664579339325
1152.0,0.00025775146787054837
1280.0,-0.0006040629814378917
1408.0,-0.0023583639413118362
1536.0,-0.004477969370782375
1664.0,-0.00449211522936821
1792.0,-0.004683683626353741
1920.0,-0.004648152738809586
2048.0,-0.0035073733888566494
2304.0,-0.00232659257017076
2560.0,-0.003932638093829155
2816.0,-0.004641139414161444
3072.0,-0.004999376833438873
3328.0,-0.0010717978002503514
3584.0,0.00021182552154641598
3840.0,-0.00035822566132992506
4096.0,0.001305716927163303
4608.0,0.003359286580234766
5120.0,-0.0009369654580950737
5632.0,-0.00015398905088659376
6144.0,-0.005310448817908764
6656.0,-0.0033661010675132275
7168.0,0.00031166101689450443
7680.0,0.0033363786060363054
8192.0,0.0032915431074798107
9216.0,0.004111479967832565
10240.0,-0.000563866866286844
11264.0,-0.00024076459521893412
12288.0,-0.0022541943471878767
13312.0,-0.007490615826100111
14336.0,0.0031420548912137747
end
