version,3.0
numOfCh,1
type,point
parent_name,8-cuts
ch_type,1_1
kcount,1
numberNandB,1
brightnessNandB,1
carpet pos,0
pc,0
Time (ms),CH1 Auto-Correlation
1.0,0.06770490854978561
2.0,0.06710425764322281
3.0,0.06651049852371216
4.0,0.06592587381601334
5.0,0.06534978747367859
6.0,0.06477281451225281
7.0,0.06420664489269257
8.0,0.0636572614312172
9.0,0.06311149150133133
10.0,0.06256800889968872
11.0,0.06202246621251106
12.0,0.06149769946932793
13.0,0.06097235158085823
14.0,0.060455985367298126
15.0,0.05994705110788345
16.0,0.059438638389110565
18.0,0.05845072492957115
20.0,0.05750809609889984
22.0,0.056601185351610184
24.0,0.05573704466223717
26.0,0.054925527423620224
28.0,0.05417246371507645
30.0,0.053434472531080246
32.0,0.05271357297897339
36.0,0.05135928466916084
40.0,0.05006673187017441
44.0,0.04876824468374252
48.0,0.04753749817609787
52.0,0.046372320502996445
56.0,0.045226793736219406
60.0,0.04413491487503052
64.0,0.043058864772319794
72.0,0.04105665534734726
80.0,0.039314962923526764
88.0,0.037788793444633484
96.0,0.03624320775270462
104.0,0.03472372889518738
112.0,0.03341639041900635
120.0,0.032283879816532135
128.0,0.031171711161732674
144.0,0.028939079493284225
160.0,0.026282673701643944
176.0,0.024397047236561775
192.0,0.023410547524690628
208.0,0.022667452692985535
224.0,0.022189583629369736
240.0,0.021836694329977036
256.0,0.02124026045203209
288.0,0.01849505491554737
320.0,0.015866542235016823
352.0,0.01310716476291418
384.0,0.011584555730223656
416.0,0.010541748255491257
448.0,0.010664418339729309
480.0,0.010798751376569271
512.0,0.0106806056573987
576.0,0.007947312667965889
640.0,0.005068787839263678
704.0,0.0040208883583545685
768.0,0.0035664928145706654
832.0,0.0012029461795464158
896.0,-3.812391514657065e-05
960.0,0.0024274857714772224
1024.0,0.003654883475974202
1152.0,0.002449464751407504
1280.0,-0.0011895187199115753
1408.0,-0.0027089109644293785
1536.0,0.0001501383085269481
1664.0,-0.0011054588248953223
1792.0,-0.002446023980155587
1920.0,-0.006025814916938543
2048.0,-0.000542461930308491
2304.0,0.0061111594550311565
2560.0,0.0069805108942091465
2816.0,0.010027814656496048
3072.0,0.00043145063682459295
3328.0,-0.00010314692190149799
3584.0,0.0013709503691643476
3840.0,-0.0031715647783130407
4096.0,0.00042116575059480965
4608.0,-0.0008774686721153557
5120.0,0.0006345811998471618
5632.0,0.0019028600072488189
6144.0,-0.0035358541645109653
6656.0,-0.012358148582279682
7168.0,-0.011041493155062199
7680.0,-0.0040985820814967155
8192.0,0.0032568559981882572
9216.0,-0.007169544696807861
10240.0,-0.0036106198094785213
11264.0,-0.009656021371483803
12288.0,-0.005483618006110191
13312.0,-0.0021253463346511126
14336.0,0.0022152906749397516
end
