version,3.0
numOfCh,1
type,point
parent_name,8-cuts
ch_type,1_1
kcount,1
numberNandB,1
brightnessNandB,1
carpet pos,0
pc,0
Time (ms),CH1 Auto-Correlation
1.0,0.0765509083867073
2.0,0.07593754678964615
3.0,0.07532601058483124
4.0,0.07473168522119522
5.0,0.07414086163043976
6.0,0.07356249541044235
7.0,0.07300055027008057
8.0,0.07244949042797089
9.0,0.07189380377531052
10.0,0.07134535908699036
11.0,0.0708051472902298
12.0,0.07028207182884216
13.0,0.069755420088768
14.0,0.06923644989728928
15.0,0.06872445344924927
16.0,0.06821149587631226
18.0,0.06723596900701523
20.0,0.06628579646348953
22.0,0.06534483283758163
24.0,0.06442157179117203
26.0,0.06355106830596924
28.0,0.0626809373497963
30.0,0.061845120042562485
32.0,0.0610552616417408
36.0,0.05953022092580795
40.0,0.058092713356018066
44.0,0.05670483782887459
48.0,0.05540318787097931
52.0,0.05407901853322983
56.0,0.05275077745318413
60.0,0.051496654748916626
64.0,0.05039891600608826
72.0,0.04845935106277466
80.0,0.046487923711538315
88.0,0.044525690376758575
96.0,0.04273094981908798
104.0,0.04110823944211006
112.0,0.03943520411849022
120.0,0.03763950243592262
128.0,0.035926129668951035
144.0,0.03250325471162796
160.0,0.028741709887981415
176.0,0.025151366367936134
192.0,0.022318918257951736
208.0,0.020289747044444084
224.0,0.018025046214461327
240.0,0.01591292954981327
256.0,0.013669988140463829
288.0,0.009907000698149204
320.0,0.007595512550324202
352.0,0.005539692938327789
384.0,0.0036749737337231636
416.0,0.002184114884585142
448.0,0.001530802808701992
480.0,0.00039879471296444535
512.0,-0.0011587172048166394
576.0,-0.0033217421732842922
640.0,-0.0026129609905183315
704.0,-0.00011293466377537698
768.0,0.002008425071835518
832.0,0.0015644107479602098
896.0,0.0009650765568949282
960.0,-0.0026342873461544514
1024.0,-0.005655940156430006
1152.0,-0.005719396285712719
1280.0,-0.003812444396317005
1408.0,-0.0015187488170340657
1536.0,-0.0011509066680446267
1664.0,-0.0018638581968843937
1792.0,-0.0034175359178334475
1920.0,-0.008378843776881695
2048.0,-0.013630621135234833
2304.0,-0.009340059943497181
2560.0,-0.010406204499304295
2816.0,-0.014682377688586712
3072.0,-0.0031304722651839256
3328.0,0.002497264416888356
3584.0,0.004321518819779158
3840.0,-4.7839872422628105e-05
4096.0,-0.0009939392330124974
4608.0,0.011124624870717525
5120.0,0.009626319631934166
5632.0,-0.005382921546697617
6144.0,0.002053981414064765
6656.0,0.0014362267684191465
7168.0,-0.0104043148458004
7680.0,-0.0065604932606220245
8192.0,0.0031211283057928085
9216.0,0.0030036710668355227
10240.0,-0.007239534519612789
11264.0,0.007739977445453405
12288.0,0.0016780199948698282
13312.0,-0.007497649174183607
14336.0,-0.010977406986057758
end
