version,3.0
numOfCh,1
type,point
parent_name,8-cuts
ch_type,1_1
kcount,1
numberNandB,1
brightnessNandB,1
carpet pos,0
pc,0
Time (ms),CH1 Auto-Correlation
1.0,0.0744982585310936
2.0,0.07397368550300598
3.0,0.07344959676265717
4.0,0.07293719798326492
5.0,0.07243406772613525
6.0,0.07194690406322479
7.0,0.07147125899791718
8.0,0.07099796086549759
9.0,0.0705297440290451
10.0,0.07005921751260757
11.0,0.06958945095539093
12.0,0.06912510842084885
13.0,0.06867031753063202
14.0,0.06822022795677185
15.0,0.06778065115213394
16.0,0.067339688539505
18.0,0.06649722903966904
20.0,0.06566528975963593
22.0,0.06484191864728928
24.0,0.06401245296001434
26.0,0.06323501467704773
28.0,0.062453970313072205
30.0,0.0616743378341198
32.0,0.06091424450278282
36.0,0.05943990498781204
40.0,0.058013252913951874
44.0,0.05666866526007652
48.0,0.055416617542505264
52.0,0.05429494380950928
56.0,0.05324516445398331
60.0,0.05223429203033447
64.0,0.051238011568784714
72.0,0.04957016929984093
80.0,0.0481175035238266
88.0,0.04679342731833458
96.0,0.045121632516384125
104.0,0.04361908137798309
112.0,0.04210422933101654
120.0,0.04037867859005928
128.0,0.03860204294323921
144.0,0.03514418378472328
160.0,0.03165869042277336
176.0,0.02843034826219082
192.0,0.025830278173089027
208.0,0.023309549316763878
224.0,0.021044626832008362
240.0,0.01883821189403534
256.0,0.016929471865296364
288.0,0.01448575034737587
320.0,0.01170597318559885
352.0,0.010343908332288265
384.0,0.010389760136604309
416.0,0.010286537930369377
448.0,0.009872917085886002
480.0,0.009047316387295723
512.0,0.007470324635505676
576.0,0.004902502987533808
640.0,0.0049870628863573074
704.0,0.005358829163014889
768.0,0.008898817002773285
832.0,0.010986643843352795
896.0,0.010350433178246021
960.0,0.0074676647782325745
1024.0,0.002815001644194126
1152.0,-0.004824954550713301
1280.0,-0.00541228661313653
1408.0,0.00026191130746155977
1536.0,0.005720842629671097
1664.0,0.010991784743964672
1792.0,0.011062449775636196
1920.0,0.0014738473109900951
2048.0,-0.007393792271614075
2304.0,0.003496596124023199
2560.0,0.0013391281245276332
2816.0,-0.008537806570529938
3072.0,-0.009331798180937767
3328.0,0.0029803593643009663
3584.0,0.005182904656976461
3840.0,0.0004660905688069761
4096.0,0.0016927269753068686
4608.0,-0.0037798634730279446
5120.0,0.00256733619607985
5632.0,-0.0013233572244644165
6144.0,0.0030528572387993336
6656.0,0.0013150522718206048
7168.0,0.006764720194041729
7680.0,-0.0037220108788460493
8192.0,-0.021080192178487778
9216.0,-0.006212843116372824
10240.0,-0.01072498969733715
11264.0,-0.01919189840555191
12288.0,-0.012425469234585762
13312.0,0.007134556770324707
14336.0,0.011203550733625889
end
