version,3.0
numOfCh,1
type,point
parent_name,8-cuts
ch_type,1_1
kcount,1
numberNandB,1
brightnessNandB,1
carpet pos,0
pc,0
Time (ms),CH1 Auto-Correlation
1.0,0.0253064576536417
2.0,0.025095878168940544
3.0,0.02489292435348034
4.0,0.024689028039574623
5.0,0.024489009752869606
6.0,0.024293644353747368
7.0,0.02409866265952587
8.0,0.02390957623720169
9.0,0.023719657212495804
10.0,0.02352895773947239
11.0,0.023340890184044838
12.0,0.023152658715844154
13.0,0.02296513132750988
14.0,0.022780751809477806
15.0,0.02259835973381996
16.0,0.022420717403292656
18.0,0.022071577608585358
20.0,0.021737154573202133
22.0,0.02141687087714672
24.0,0.021103493869304657
26.0,0.020796092227101326
28.0,0.020497458055615425
30.0,0.020198505371809006
32.0,0.019904887303709984
36.0,0.01933370903134346
40.0,0.01878286898136139
44.0,0.018273422494530678
48.0,0.017785346135497093
52.0,0.017302600666880608
56.0,0.01683429442346096
60.0,0.016405217349529266
64.0,0.015993686392903328
72.0,0.015256701968610287
80.0,0.01457284577190876
88.0,0.01396655011922121
96.0,0.013372601941227913
104.0,0.012805148027837276
112.0,0.012338901869952679
120.0,0.011956591159105301
128.0,0.011552074924111366
144.0,0.01067560724914074
160.0,0.009869039990007877
176.0,0.009181820787489414
192.0,0.008608443662524223
208.0,0.00806453451514244
224.0,0.007676782086491585
240.0,0.007283999118953943
256.0,0.006917217280715704
288.0,0.006357736419886351
320.0,0.006030863616615534
352.0,0.005893610417842865
384.0,0.005320479162037373
416.0,0.003989823628216982
448.0,0.002976610790938139
480.0,0.003080950118601322
512.0,0.003830025205388665
576.0,0.0041787452064454556
640.0,0.004373055882751942
704.0,0.004073782358318567
768.0,0.002560744760558009
832.0,0.00191662332508713
896.0,0.0015653669834136963
960.0,0.0015344710554927588
1024.0,0.0011434830958023667
1152.0,0.00021806859876960516
1280.0,0.00030255585443228483
1408.0,-0.0004398807359393686
1536.0,-0.0005504659493453801
1664.0,-0.0005030098836869001
1792.0,-0.0023185862228274345
1920.0,-0.003571560373529792
2048.0,-0.0042870184406638145
2304.0,-0.0015147776575759053
2560.0,-0.0006153134745545685
2816.0,-0.0011497063096612692
3072.0,0.000542694702744484
3328.0,0.00016415170102845877
3584.0,-0.00019558526400942355
3840.0,1.8873869578328595e-07
4096.0,-0.000519534049089998
4608.0,-0.00010414175631012768
5120.0,0.0007254660013131797
5632.0,-0.000648911518510431
6144.0,-0.0018984796479344368
6656.0,-0.0013382486067712307
7168.0,-0.002087882487103343
7680.0,-0.002148902043700218
8192.0,-0.0024185420479625463
9216.0,-0.003968535456806421
10240.0,0.0027819033712148666
11264.0,0.002574299229308963
12288.0,-0.004028049763292074
13312.0,-0.0025121760554611683
14336.0,0.0074308873154222965
end
