version,3.0
numOfCh,1
type,point
parent_name,8-cuts
ch_type,1_1
kcount,1
numberNandB,1
brightnessNandB,1
carpet pos,0
pc,0
Time (ms),CH1 Auto-Correlation
1.0,0.07207495719194412
2.0,0.0715717002749443
3.0,0.07107480615377426
4.0,0.07057242095470428
5.0,0.07007594406604767
6.0,0.0695929005742073
7.0,0.06911126524209976
8.0,0.06864283978939056
9.0,0.06817766278982162
10.0,0.06770890206098557
11.0,0.06723549962043762
12.0,0.06677227467298508
13.0,0.06630384176969528
14.0,0.06585731357336044
15.0,0.0654187723994255
16.0,0.06497298926115036
18.0,0.06410076469182968
20.0,0.06324197351932526
22.0,0.062400635331869125
24.0,0.06159452348947525
26.0,0.06080865114927292
28.0,0.05999575927853584
30.0,0.05917433649301529
32.0,0.05836329981684685
36.0,0.056796323508024216
40.0,0.05534744635224342
44.0,0.05393053963780403
48.0,0.05255034565925598
52.0,0.05123163014650345
56.0,0.04993894323706627
60.0,0.04863237589597702
64.0,0.04743128642439842
72.0,0.04524150863289833
80.0,0.04307530075311661
88.0,0.04103051871061325
96.0,0.03934815153479576
104.0,0.03789994865655899
112.0,0.03653977811336517
120.0,0.035177502781152725
128.0,0.03394022211432457
144.0,0.03194449469447136
160.0,0.030023373663425446
176.0,0.028136298060417175
192.0,0.025707025080919266
208.0,0.022663559764623642
224.0,0.019946137443184853
240.0,0.017438789829611778
256.0,0.015441096387803555
288.0,0.012919149361550808
320.0,0.011542020365595818
352.0,0.009391505271196365
384.0,0.007033727131783962
416.0,0.00501517578959465
448.0,0.003982702735811472
480.0,0.002848515287041664
512.0,0.00171377114020288
576.0,-0.00295078638009727
640.0,-0.005962916184216738
704.0,-0.007084617391228676
768.0,-0.004885238595306873
832.0,-0.0016077811596915126
896.0,-0.002785124583169818
960.0,-0.003253547940403223
1024.0,-0.0016106754774227738
1152.0,-0.0003661015070974827
1280.0,0.0020375836174935102
1408.0,-0.0032191623467952013
1536.0,-0.004975915886461735
1664.0,-0.004921967629343271
1792.0,0.00019982804951723665
1920.0,0.009408167563378811
2048.0,0.015256449580192566
2304.0,0.020014353096485138
2560.0,0.012687412090599537
2816.0,-0.0019608051516115665
3072.0,-0.007313433103263378
3328.0,-0.002893818309530616
3584.0,0.0032635380048304796
3840.0,0.0012225573882460594
4096.0,-0.0012030121870338917
4608.0,0.01663387008011341
5120.0,-0.0008072746568359435
5632.0,-0.011726941913366318
6144.0,-0.004804614465683699
6656.0,-0.00379166123457253
7168.0,0.00397599907591939
7680.0,-0.01740722730755806
8192.0,-0.0049608624540269375
9216.0,-0.003837909549474716
10240.0,-0.011042297817766666
11264.0,-0.005164224188774824
12288.0,-0.005501008592545986
13312.0,-0.006981797982007265
14336.0,-0.0049081905744969845
end
