version,3.0
numOfCh,1
type,point
parent_name,8-cuts
ch_type,1_1
kcount,1
numberNandB,1
brightnessNandB,1
carpet pos,0
pc,0
Time (ms),CH1 Auto-Correlation
1.0,0.07490522414445877
2.0,0.07433976978063583
3.0,0.07377341389656067
4.0,0.07320154458284378
5.0,0.07263268530368805
6.0,0.0720597431063652
7.0,0.07148449867963791
8.0,0.07091334462165833
9.0,0.07035920023918152
10.0,0.06982240825891495
11.0,0.06928932666778564
12.0,0.06875745207071304
13.0,0.06822776049375534
14.0,0.06770755350589752
15.0,0.0671941339969635
16.0,0.06668295711278915
18.0,0.0657031387090683
20.0,0.06475573778152466
22.0,0.06383880227804184
24.0,0.06297528743743896
26.0,0.06214780732989311
28.0,0.06135294958949089
30.0,0.06058696284890175
32.0,0.05982936546206474
36.0,0.058392275124788284
40.0,0.057086583226919174
44.0,0.05588090792298317
48.0,0.054713618010282516
52.0,0.05359058082103729
56.0,0.05249287188053131
60.0,0.051413584500551224
64.0,0.05036057531833649
72.0,0.04815642163157463
80.0,0.046209413558244705
88.0,0.04444596916437149
96.0,0.04273642972111702
104.0,0.04116590693593025
112.0,0.03961420804262161
120.0,0.03786195442080498
128.0,0.03594101220369339
144.0,0.032787781208753586
160.0,0.030692223459482193
176.0,0.028655992820858955
192.0,0.026714365929365158
208.0,0.02466595731675625
224.0,0.022860299795866013
240.0,0.021657489240169525
256.0,0.02062656544148922
288.0,0.018565628677606583
320.0,0.017695652320981026
352.0,0.016676446422934532
384.0,0.015222073532640934
416.0,0.013363856822252274
448.0,0.0104991365224123
480.0,0.008289860561490059
512.0,0.00699647469446063
576.0,0.005614585243165493
640.0,0.0065484121441841125
704.0,0.006184721831232309
768.0,0.005288036540150642
832.0,0.0052701071836054325
896.0,0.005496098659932613
960.0,0.0040277340449392796
1024.0,0.0012027636403217912
1152.0,-0.0023594419471919537
1280.0,-0.004846872296184301
1408.0,-0.003237283555790782
1536.0,0.0020207578781992197
1664.0,0.0019971851725131273
1792.0,-0.0014008020516484976
1920.0,-0.006246629636734724
2048.0,-0.007920862175524235
2304.0,-0.006210729479789734
2560.0,0.006767702288925648
2816.0,0.002911366755142808
3072.0,0.002247842727228999
3328.0,-0.002461507450789213
3584.0,-0.0015491984086111188
3840.0,-0.006070578936487436
4096.0,-0.013840556144714355
4608.0,-0.014286092482507229
5120.0,-0.021086815744638443
5632.0,-0.0033105334732681513
6144.0,0.008246442303061485
6656.0,0.00036775952321477234
7168.0,0.0072395638562738895
7680.0,0.004394278395920992
8192.0,-0.005241329316049814
9216.0,0.010066906921565533
10240.0,0.0017904031556099653
11264.0,-0.012616735883057117
12288.0,-0.008508255705237389
13312.0,-0.005175947677344084
14336.0,-0.002171189757063985
end
