version,3.0
numOfCh,1
type,point
parent_name,8-cuts
ch_type,1_1
kcount,1
numberNandB,1
brightnessNandB,1
carpet pos,0
pc,0
Time (ms),CH1 Auto-Correlation
1.0,0.028191879391670227
2.0,0.027962524443864822
3.0,0.02773476019501686
4.0,0.027501044794917107
5.0,0.027269218116998672
6.0,0.027036624029278755
7.0,0.02681516297161579
8.0,0.026592707261443138
9.0,0.026377040892839432
10.0,0.02617061696946621
11.0,0.025967402383685112
12.0,0.02576422318816185
13.0,0.025559550151228905
14.0,0.02536126784980297
15.0,0.025168728083372116
16.0,0.024973994120955467
18.0,0.024571433663368225
20.0,0.024167753756046295
22.0,0.023770928382873535
24.0,0.02338566817343235
26.0,0.023022053763270378
28.0,0.022681187838315964
30.0,0.02235715091228485
32.0,0.02205183357000351
36.0,0.021447565406560898
40.0,0.02089591510593891
44.0,0.020399494096636772
48.0,0.01994449272751808
52.0,0.019529294222593307
56.0,0.01912928931415081
60.0,0.018749110400676727
64.0,0.01839887723326683
72.0,0.017756255343556404
80.0,0.017119616270065308
88.0,0.016483783721923828
96.0,0.01580602489411831
104.0,0.015146245248615742
112.0,0.014550824649631977
120.0,0.014031333848834038
128.0,0.013483711518347263
144.0,0.01238796766847372
160.0,0.011635216884315014
176.0,0.010979420505464077
192.0,0.010220649652183056
208.0,0.009457332082092762
224.0,0.00899014063179493
240.0,0.008842351846396923
256.0,0.008659406565129757
288.0,0.008186185732483864
320.0,0.0077418009750545025
352.0,0.007017470896244049
384.0,0.006258432287722826
416.0,0.005973340943455696
448.0,0.005714339204132557
480.0,0.005662447307258844
512.0,0.005661980248987675
576.0,0.0057938117533922195
640.0,0.005943018943071365
704.0,0.00463777594268322
768.0,0.004019566345959902
832.0,0.00288068363443017
896.0,0.0020704446360468864
960.0,0.0013741779839619994
1024.0,0.0004646230663638562
1152.0,0.0023861052468419075
1280.0,0.0036920199636369944
1408.0,0.004502998199313879
1536.0,0.0021250725258141756
1664.0,0.0005291540292091668
1792.0,0.001047395053319633
1920.0,0.000680335913784802
2048.0,-0.0007925722748041153
2304.0,-0.0023619462735950947
2560.0,0.00029929386801086366
2816.0,-0.0006822865689173341
3072.0,-0.002145417034626007
3328.0,-0.003314110217615962
3584.0,-0.005231836345046759
3840.0,-0.00528882397338748
4096.0,-0.008007939904928207
4608.0,-0.00480194017291069
5120.0,-0.005165151320397854
5632.0,-0.0003551577392499894
6144.0,-0.00118268805090338
6656.0,-0.0011667923536151648
7168.0,0.00646473653614521
7680.0,0.003656960092484951
8192.0,0.0015037391567602754
9216.0,-0.0025945520028471947
10240.0,-0.0004891782300546765
11264.0,-0.005196396727114916
12288.0,-0.0041117179207503796
13312.0,0.004195756278932095
14336.0,0.007183008827269077
end
