version,3.0
numOfCh,1
type,point
parent_name,8-cuts
ch_type,1_1
kcount,1
numberNandB,1
brightnessNandB,1
carpet pos,0
pc,0
Time (ms),CH1 Auto-Correlation
1.0,0.03397279605269432
2.0,0.033780038356781006
3.0,0.03358926624059677
4.0,0.03340296819806099
5.0,0.03321900963783264
6.0,0.03303756192326546
7.0,0.03285926952958107
8.0,0.032682958990335464
9.0,0.032506294548511505
10.0,0.03232813626527786
11.0,0.03215508908033371
12.0,0.03198463097214699
13.0,0.03181283548474312
14.0,0.031645748764276505
15.0,0.03148100525140762
16.0,0.031316544860601425
18.0,0.030997086316347122
20.0,0.0306949932128191
22.0,0.030399683862924576
24.0,0.030107608065009117
26.0,0.029824240133166313
28.0,0.02953980676829815
30.0,0.02925661951303482
32.0,0.028989015147089958
36.0,0.028488323092460632
40.0,0.028019700199365616
44.0,0.02753867581486702
48.0,0.027043335139751434
52.0,0.026567881926894188
56.0,0.02613196149468422
60.0,0.025723300874233246
64.0,0.025292426347732544
72.0,0.024427739903330803
80.0,0.023631369695067406
88.0,0.022961284965276718
96.0,0.022399408742785454
104.0,0.021886344999074936
112.0,0.021287627518177032
120.0,0.020611673593521118
128.0,0.019963886588811874
144.0,0.01899079605937004
160.0,0.018085025250911713
176.0,0.017052121460437775
192.0,0.01613028720021248
208.0,0.015448367223143578
224.0,0.014866841956973076
240.0,0.01444945577532053
256.0,0.014317357912659645
288.0,0.014025724492967129
320.0,0.013762138783931732
352.0,0.013218987733125687
384.0,0.012576873414218426
416.0,0.011944057419896126
448.0,0.011312492191791534
480.0,0.010204396210610867
512.0,0.008454645983874798
576.0,0.006140892393887043
640.0,0.004864025395363569
704.0,0.005114424042403698
768.0,0.005491228308528662
832.0,0.004984152968972921
896.0,0.003726350609213114
960.0,0.0028726058080792427
1024.0,0.002546863164752722
1152.0,0.004450476728379726
1280.0,0.004303041845560074
1408.0,0.004493093583732843
1536.0,0.005177655722945929
1664.0,0.004283251706510782
1792.0,0.003934524953365326
1920.0,0.0027632424607872963
2048.0,0.0005220505991019309
2304.0,-0.002273188205435872
2560.0,-0.005525187589228153
2816.0,-0.008348280563950539
3072.0,-0.007867276668548584
3328.0,-0.005661561619490385
3584.0,-0.003921490628272295
3840.0,-0.006014163605868816
4096.0,-0.004261275287717581
4608.0,-0.006086084991693497
5120.0,-0.0059241848066449165
5632.0,-0.004430428612977266
6144.0,-0.002692521084100008
6656.0,-0.004297554027289152
7168.0,0.0004851241537835449
7680.0,0.002091614995151758
8192.0,-0.0014634983381256461
9216.0,0.00022361837909556925
10240.0,0.0012914639664813876
11264.0,0.004888493102043867
12288.0,0.003752370597794652
13312.0,-0.001786671346053481
14336.0,-0.002786329947412014
end
