version,3.0
numOfCh,1
type,point
parent_name,8-cuts
ch_type,1_1
kcount,1
numberNandB,1
brightnessNandB,1
carpet pos,0
pc,0
Time (ms),CH1 Auto-Correlation
1.0,0.07915020734071732
2.0,0.07874464243650436
3.0,0.07833719253540039
4.0,0.07793689519166946
5.0,0.07753084599971771
6.0,0.07711907476186752
7.0,0.07671423256397247
8.0,0.07631291449069977
9.0,0.07591062039136887
10.0,0.07550673186779022
11.0,0.07510936260223389
12.0,0.07472562044858932
13.0,0.07434503734111786
14.0,0.07399071007966995
15.0,0.07363414019346237
16.0,0.07328620553016663
18.0,0.07261272519826889
20.0,0.07197185605764389
22.0,0.0713750571012497
24.0,0.07079748064279556
26.0,0.07024411112070084
28.0,0.0697110965847969
30.0,0.06917670369148254
32.0,0.06865856796503067
36.0,0.067632295191288
40.0,0.06660296022891998
44.0,0.06551453471183777
48.0,0.06438172608613968
52.0,0.06324757635593414
56.0,0.062142904847860336
60.0,0.06110746040940285
64.0,0.060146134346723557
72.0,0.05844699963927269
80.0,0.056858908385038376
88.0,0.05524276942014694
96.0,0.05361306294798851
104.0,0.052067819982767105
112.0,0.050536565482616425
120.0,0.049233328551054
128.0,0.048145852982997894
144.0,0.04597092047333717
160.0,0.04329582303762436
176.0,0.04069652408361435
192.0,0.038560688495635986
208.0,0.036546774208545685
224.0,0.03459544479846954
240.0,0.03273411840200424
256.0,0.03110000304877758
288.0,0.028737889602780342
320.0,0.026814045384526253
352.0,0.025187702849507332
384.0,0.023359572514891624
416.0,0.021352389827370644
448.0,0.01918880082666874
480.0,0.01727174036204815
512.0,0.015849312767386436
576.0,0.011562992818653584
640.0,0.007329464424401522
704.0,0.0035201965365558863
768.0,0.0010072914883494377
832.0,-0.0013410309329628944
896.0,-0.0024843779392540455
960.0,-0.0022084678057581186
1024.0,-0.0030775475315749645
1152.0,-0.0056233592331409454
1280.0,-0.008110793307423592
1408.0,-0.010433213785290718
1536.0,-0.013833803124725819
1664.0,-0.016648737713694572
1792.0,-0.017791487276554108
1920.0,-0.01643587462604046
2048.0,-0.010932744480669498
2304.0,-0.011528721079230309
2560.0,-0.008518612943589687
2816.0,-0.007170729339122772
3072.0,-0.013832892291247845
3328.0,-0.009767690673470497
3584.0,-0.0003322921402286738
3840.0,0.01132451556622982
4096.0,0.015011080540716648
4608.0,0.006962418556213379
5120.0,-0.00838477723300457
5632.0,-0.020126333460211754
6144.0,-0.008858120068907738
6656.0,0.005686333402991295
7168.0,0.002230415353551507
7680.0,0.008030621334910393
8192.0,0.020107807591557503
9216.0,-0.004949971567839384
10240.0,-0.017291245982050896
11264.0,-0.0008211944368667901
12288.0,0.007025829516351223
13312.0,0.0022394349798560143
14336.0,-0.0014621546724811196
end
