version,3.0
numOfCh,1
type,point
parent_name,8-cuts
ch_type,1_1
kcount,1
numberNandB,1
brightnessNandB,1
carpet pos,0
pc,0
Time (ms),CH1 Auto-Correlation
1.0,0.028899991884827614
2.0,0.028654033318161964
3.0,0.028407657518982887
4.0,0.028165273368358612
5.0,0.027933383360505104
6.0,0.027701396495103836
7.0,0.027475105598568916
8.0,0.027249975129961967
9.0,0.02703050523996353
10.0,0.026811541989445686
11.0,0.026603303849697113
12.0,0.02639952301979065
13.0,0.026196787133812904
14.0,0.025986311957240105
15.0,0.025779495015740395
16.0,0.025578146800398827
18.0,0.025180421769618988
20.0,0.024786068126559258
22.0,0.024394026026129723
24.0,0.024009903892874718
26.0,0.023630796000361443
28.0,0.023257119581103325
30.0,0.022875111550092697
32.0,0.02250324748456478
36.0,0.021825991570949554
40.0,0.02118532918393612
44.0,0.02056940831243992
48.0,0.02000689134001732
52.0,0.019518405199050903
56.0,0.019080011174082756
60.0,0.018650298938155174
64.0,0.018242282792925835
72.0,0.017576955258846283
80.0,0.017060603946447372
88.0,0.016606727614998817
96.0,0.016195222735404968
104.0,0.015788443386554718
112.0,0.015441535040736198
120.0,0.01514806691557169
128.0,0.014940237626433372
144.0,0.01468613836914301
160.0,0.014285755343735218
176.0,0.013925058767199516
192.0,0.013235059566795826
208.0,0.012498521246016026
224.0,0.011839406564831734
240.0,0.011222613975405693
256.0,0.010849629528820515
288.0,0.009959381073713303
320.0,0.008948850445449352
352.0,0.007452917750924826
384.0,0.006113629788160324
416.0,0.005067132413387299
448.0,0.004301033448427916
480.0,0.003296992275863886
512.0,0.0020524123683571815
576.0,0.00013962686352897435
640.0,-0.0007409299141727388
704.0,-0.0022928935941308737
768.0,-0.004229650367051363
832.0,-0.004100132267922163
896.0,-0.003946339245885611
960.0,-0.004877693951129913
1024.0,-0.005382152274250984
1152.0,-0.0051690200343728065
1280.0,-0.0036010907497256994
1408.0,-0.0033132967073470354
1536.0,-0.0026370666455477476
1664.0,-0.0015134003479033709
1792.0,0.0001693081430858001
1920.0,0.0008886861032806337
2048.0,0.00016442309424746782
2304.0,-0.0035974213387817144
2560.0,-0.005593250505626202
2816.0,-0.006805194076150656
3072.0,-0.00496768718585372
3328.0,-0.00040046218782663345
3584.0,0.004281448200345039
3840.0,0.006615254562348127
4096.0,0.004418433643877506
4608.0,-0.004651637747883797
5120.0,-0.0024523509200662374
5632.0,0.0033520993310958147
6144.0,0.0009363303543068469
6656.0,0.0014295916771516204
7168.0,0.0052133346907794476
7680.0,0.005713325459510088
8192.0,-0.0014678286388516426
9216.0,-0.008242553099989891
10240.0,-0.00015780542162247002
11264.0,0.004114981275051832
12288.0,0.003447106806561351
13312.0,-0.0025727476458996534
14336.0,-9.62519261520356e-05
end
