version,3.0
numOfCh,1
type,point
parent_name,8-cuts
ch_type,1_1
kcount,1
numberNandB,1
brightnessNandB,1
carpet pos,0
pc,0
Time (ms),CH1 Auto-Correlation
1.0,0.04040014371275902
2.0,0.04019593074917793
3.0,0.03999727964401245
4.0,0.03979505971074104
5.0,0.03959839418530464
6.0,0.03940223157405853
7.0,0.03920638561248779
8.0,0.0390176996588707
9.0,0.038832467049360275
10.0,0.03865401819348335
11.0,0.03847379609942436
12.0,0.03829290345311165
13.0,0.03811962902545929
14.0,0.03794464096426964
15.0,0.037770822644233704
16.0,0.03760288655757904
18.0,0.03727316856384277
20.0,0.03695014864206314
22.0,0.03663800656795502
24.0,0.03633229434490204
26.0,0.03602336347103119
28.0,0.03572312742471695
30.0,0.03542400524020195
32.0,0.035135045647621155
36.0,0.034574463963508606
40.0,0.03400804102420807
44.0,0.03347942978143692
48.0,0.03301524370908737
52.0,0.03257710486650467
56.0,0.032149605453014374
60.0,0.03171471506357193
64.0,0.031276438385248184
72.0,0.030506590381264687
80.0,0.029893502593040466
88.0,0.02934630587697029
96.0,0.02875199355185032
104.0,0.02814461849629879
112.0,0.027563665062189102
120.0,0.026994656771421432
128.0,0.026426395401358604
144.0,0.02552386000752449
160.0,0.024557538330554962
176.0,0.023744013160467148
192.0,0.02309337630867958
208.0,0.022549718618392944
224.0,0.02204929292201996
240.0,0.021441198885440826
256.0,0.020818546414375305
288.0,0.0195761751383543
320.0,0.01834660768508911
352.0,0.01708207279443741
384.0,0.015831908211112022
416.0,0.014470243826508522
448.0,0.013632185757160187
480.0,0.012962390668690205
512.0,0.01216122880578041
576.0,0.010861664079129696
640.0,0.01027688942849636
704.0,0.009202960878610611
768.0,0.007866192609071732
832.0,0.0065679908730089664
896.0,0.005967338103801012
960.0,0.006163681857287884
1024.0,0.005604930687695742
1152.0,0.002405898179858923
1280.0,0.0032278201542794704
1408.0,0.0027419610414654016
1536.0,0.002133148955181241
1664.0,0.002799790818244219
1792.0,0.002379311714321375
1920.0,0.0015318267978727818
2048.0,8.408023131778464e-05
2304.0,-0.0031834521796554327
2560.0,-0.002148362109437585
2816.0,-0.0020623961463570595
3072.0,-0.0037822015583515167
3328.0,-0.0008001612732186913
3584.0,0.0007308170315809548
3840.0,-0.003958180546760559
4096.0,-0.008221759460866451
4608.0,-0.012330128811299801
5120.0,-0.012238605879247189
5632.0,-0.013582143932580948
6144.0,-0.008701786398887634
6656.0,-0.005925873294472694
7168.0,-0.004036282654851675
7680.0,-0.002475036308169365
8192.0,0.0016561902593821287
9216.0,0.010572291910648346
10240.0,0.005758739076554775
11264.0,0.003430627752095461
12288.0,0.004404075909405947
13312.0,-0.004076008684933186
14336.0,-0.006738430820405483
end
