version,3.0
numOfCh,1
type,point
parent_name,8-cuts
ch_type,1_1
kcount,1
numberNandB,1
brightnessNandB,1
carpet pos,0
pc,0
Time (ms),CH1 Auto-Correlation
1.0,0.02713177166879177
2.0,0.026917986571788788
3.0,0.02670382894575596
4.0,0.02648868039250374
5.0,0.02627710811793804
6.0,0.026067083701491356
7.0,0.02585681341588497
8.0,0.0256502628326416
9.0,0.025446832180023193
10.0,0.02524535171687603
11.0,0.025050846859812737
12.0,0.02485516108572483
13.0,0.024666372686624527
14.0,0.02447507530450821
15.0,0.024279505014419556
16.0,0.024085840210318565
18.0,0.02371707372367382
20.0,0.02335500344634056
22.0,0.022999005392193794
24.0,0.02265099808573723
26.0,0.022308018058538437
28.0,0.02198099158704281
30.0,0.021668758243322372
32.0,0.02136055752635002
36.0,0.020775025710463524
40.0,0.020240740850567818
44.0,0.019755057990550995
48.0,0.019279448315501213
52.0,0.01880190707743168
56.0,0.018320653587579727
60.0,0.017853880301117897
64.0,0.01740916632115841
72.0,0.01649520918726921
80.0,0.015526149421930313
88.0,0.014586587436497211
96.0,0.013690771535038948
104.0,0.012831819243729115
112.0,0.012123809196054935
120.0,0.011508635245263577
128.0,0.01094465795904398
144.0,0.00997546873986721
160.0,0.00908905640244484
176.0,0.00832031387835741
192.0,0.0076267602853477
208.0,0.006935068406164646
224.0,0.006399784702807665
240.0,0.0061265151016414165
256.0,0.005982203874737024
288.0,0.005458721425384283
320.0,0.004726378712803125
352.0,0.003779820865020156
384.0,0.003100526984781027
416.0,0.0026220635045319796
448.0,0.0025375857949256897
480.0,0.002738423179835081
512.0,0.003130771452561021
576.0,0.0035736311692744493
640.0,0.0026321695186197758
704.0,0.0009924669284373522
768.0,-4.086949775228277e-05
832.0,-0.0007378293666988611
896.0,-0.0011554143857210875
960.0,-0.0005412187892943621
1024.0,0.0007080291397869587
1152.0,0.001477087032981217
1280.0,0.0012502885656431317
1408.0,-0.00023836144828237593
1536.0,-0.001531796297058463
1664.0,-0.00230712560005486
1792.0,-0.0029058295767754316
1920.0,-0.004802566021680832
2048.0,-0.005795867647975683
2304.0,-0.005286454688757658
2560.0,-0.005488628521561623
2816.0,-0.0012719262158498168
3072.0,0.0015722111565992236
3328.0,-0.001084276009351015
3584.0,-0.003549222368746996
3840.0,-0.002334234770387411
4096.0,0.003169835079461336
4608.0,0.005666771437972784
5120.0,0.001583894481882453
5632.0,-0.0009434296516701579
6144.0,-0.002366570755839348
6656.0,-0.007667559664696455
7168.0,-0.002449573017656803
7680.0,-0.0025852962862700224
8192.0,-0.0018207996618002653
9216.0,0.002513069659471512
10240.0,0.0009469898650422692
11264.0,-0.0008817148045636714
12288.0,-0.0007661660783924162
13312.0,0.0015799776883795857
14336.0,0.0007789048831909895
end
