version,3.0
numOfCh,1
type,point
parent_name,8-cuts
ch_type,1_1
kcount,1
numberNandB,1
brightnessNandB,1
carpet pos,0
pc,0
Time (ms),CH1 Auto-Correlation
1.0,0.07989078015089035
2.0,0.07939600199460983
3.0,0.078902967274189
4.0,0.07842336595058441
5.0,0.07793351262807846
6.0,0.07746715843677521
7.0,0.07701659202575684
8.0,0.07657451927661896
9.0,0.07613451033830643
10.0,0.07569339871406555
11.0,0.07526472210884094
12.0,0.07484894245862961
13.0,0.0744398906826973
14.0,0.0740339607000351
15.0,0.07362280040979385
16.0,0.07320892065763474
18.0,0.0723717138171196
20.0,0.07155618816614151
22.0,0.07078690081834793
24.0,0.07008104771375656
26.0,0.0694018080830574
28.0,0.06876596063375473
30.0,0.06812559813261032
32.0,0.0674905925989151
36.0,0.06628800183534622
40.0,0.06522727012634277
44.0,0.06431125104427338
48.0,0.06344503164291382
52.0,0.06252666562795639
56.0,0.061553310602903366
60.0,0.06058770790696144
64.0,0.05959082767367363
72.0,0.05777021124958992
80.0,0.056083422154188156
88.0,0.05456100031733513
96.0,0.05309208855032921
104.0,0.051709309220314026
112.0,0.050331439822912216
120.0,0.04901345074176788
128.0,0.04790559783577919
144.0,0.04611224681138992
160.0,0.044631097465753555
176.0,0.043254412710666656
192.0,0.04162698984146118
208.0,0.03985769301652908
224.0,0.03841781988739967
240.0,0.036895301192998886
256.0,0.035269562155008316
288.0,0.032766230404376984
320.0,0.029805026948451996
352.0,0.026994086802005768
384.0,0.02391313761472702
416.0,0.02124057523906231
448.0,0.019473295658826828
480.0,0.018028967082500458
512.0,0.017200205475091934
576.0,0.012540597468614578
640.0,0.007790494244545698
704.0,0.002980500692501664
768.0,0.0009696445195004344
832.0,0.0013193704653531313
896.0,0.0013032015413045883
960.0,0.002030791714787483
1024.0,0.003877433482557535
1152.0,0.0034684929996728897
1280.0,0.0036458722315728664
1408.0,0.0018857838585972786
1536.0,0.003813436022028327
1664.0,0.010106828063726425
1792.0,0.0124700628221035
1920.0,0.01680188626050949
2048.0,0.01795763336122036
2304.0,0.010878601111471653
2560.0,0.006176353897899389
2816.0,0.0026532940100878477
3072.0,0.0010049317497760057
3328.0,-0.0060980236157774925
3584.0,-0.00019691394118126482
3840.0,0.004515588749200106
4096.0,0.006749954540282488
4608.0,-0.01668904349207878
5120.0,-0.010520662181079388
5632.0,0.0017681904137134552
6144.0,-0.0142634566873312
6656.0,-0.03226913511753082
7168.0,-0.03091595508158207
7680.0,-0.01065641175955534
8192.0,-0.005469075869768858
9216.0,-0.01674669049680233
10240.0,0.007332195993512869
11264.0,0.00530290650203824
12288.0,-0.00016895384760573506
13312.0,0.007489041890949011
14336.0,0.030332937836647034
end
