version,3.0
numOfCh,1
type,point
parent_name,8-cuts
ch_type,1_1
kcount,1
numberNandB,1
brightnessNandB,1
carpet pos,0
pc,0
Time (ms),CH1 Auto-Correlation
1.0,0.028553282842040062
2.0,0.02833419106900692
3.0,0.028118785470724106
4.0,0.027906620875000954
5.0,0.0276932530105114
6.0,0.027477428317070007
7.0,0.027261076495051384
8.0,0.02705175057053566
9.0,0.026839017868041992
10.0,0.026625989004969597
11.0,0.026408351957798004
12.0,0.026189865544438362
13.0,0.025977782905101776
14.0,0.025765929371118546
15.0,0.025554589927196503
16.0,0.02534618228673935
18.0,0.024929305538535118
20.0,0.02450977824628353
22.0,0.024075612425804138
24.0,0.023631170392036438
26.0,0.023191364482045174
28.0,0.022764703258872032
30.0,0.02236028201878071
32.0,0.021959539502859116
36.0,0.021157173439860344
40.0,0.020388800650835037
44.0,0.019635751843452454
48.0,0.018881220370531082
52.0,0.01818135194480419
56.0,0.01749551296234131
60.0,0.016819089651107788
64.0,0.01615525782108307
72.0,0.014911839738488197
80.0,0.013799455016851425
88.0,0.012732104398310184
96.0,0.011743555776774883
104.0,0.01077977754175663
112.0,0.009845498017966747
120.0,0.008982173167169094
128.0,0.008169340901076794
144.0,0.006857546046376228
160.0,0.005888095125555992
176.0,0.00512560224160552
192.0,0.0045502944849431515
208.0,0.0038781878538429737
224.0,0.003155874088406563
240.0,0.0025641489773988724
256.0,0.002035020152106881
288.0,0.001017983304336667
320.0,-0.00036237353924661875
352.0,-0.0018147861119359732
384.0,-0.002915142336860299
416.0,-0.0036137322895228863
448.0,-0.003913169261068106
480.0,-0.003541703335940838
512.0,-0.002699528820812702
576.0,-0.0010950003052130342
640.0,-0.0004405658692121506
704.0,-0.001892264699563384
768.0,-0.003574545495212078
832.0,-0.0034117724280804396
896.0,-0.0018725807312875986
960.0,-0.0003911403473466635
1024.0,0.000489790050778538
1152.0,0.0031951474957168102
1280.0,0.002529348013922572
1408.0,-0.0003948328085243702
1536.0,-0.0024921726435422897
1664.0,-0.002030707895755768
1792.0,-0.0011749895056709647
1920.0,0.00018417742103338242
2048.0,-0.0011306164087727666
2304.0,-0.003745477879419923
2560.0,-0.002408495405688882
2816.0,-0.00030322003294713795
3072.0,0.0018645963864400983
3328.0,0.0004831294063478708
3584.0,-0.0029230432119220495
3840.0,-0.0007054981542751193
4096.0,-0.0019817110151052475
4608.0,0.0020817366894334555
5120.0,-0.0020216896664351225
5632.0,0.0031501860357820988
6144.0,0.0017352461582049727
6656.0,0.001901154057122767
7168.0,-0.0022963115479797125
7680.0,0.002452882006764412
8192.0,-0.005314336623996496
9216.0,-0.0019760900177061558
10240.0,0.0007093002204783261
11264.0,0.0007046539685688913
12288.0,0.0013526794500648975
13312.0,0.0005529868067242205
14336.0,-0.0012051563244313002
end
