version,3.0
numOfCh,1
type,point
parent_name,8-cuts
ch_type,1_1
kcount,1
numberNandB,1
brightnessNandB,1
carpet pos,0
pc,0
Time (ms),CH1 Auto-Correlation
1.0,0.024647749960422516
2.0,0.024419298395514488
3.0,0.024197623133659363
4.0,0.023982271552085876
5.0,0.02376718260347843
6.0,0.023559456691145897
7.0,0.023349260911345482
8.0,0.02314702607691288
9.0,0.02294750325381756
10.0,0.02274475060403347
11.0,0.022543890401721
12.0,0.02234581857919693
13.0,0.022148985415697098
14.0,0.021951623260974884
15.0,0.021755632013082504
16.0,0.021566376090049744
18.0,0.021197780966758728
20.0,0.020836902782320976
22.0,0.020484264940023422
24.0,0.020144060254096985
26.0,0.019812490791082382
28.0,0.01948530785739422
30.0,0.01916416920721531
32.0,0.018856363371014595
36.0,0.01827818714082241
40.0,0.017721960321068764
44.0,0.017178276553750038
48.0,0.016647107899188995
52.0,0.016151877120137215
56.0,0.0156916044652462
60.0,0.01525124255567789
64.0,0.014839405193924904
72.0,0.014098198153078556
80.0,0.013417765498161316
88.0,0.012854589149355888
96.0,0.01231750100851059
104.0,0.011713048443198204
112.0,0.01110344659537077
120.0,0.010555955581367016
128.0,0.010099508799612522
144.0,0.009283887222409248
160.0,0.008694198913872242
176.0,0.007973694242537022
192.0,0.007213632110506296
208.0,0.006482013035565615
224.0,0.005745884031057358
240.0,0.0049045453779399395
256.0,0.0043395645916461945
288.0,0.003961731679737568
320.0,0.003183564404025674
352.0,0.0022912085987627506
384.0,0.0014972665812820196
416.0,0.0006245211698114872
448.0,-0.00029441731749102473
480.0,-0.0013597942888736725
512.0,-0.0024143820628523827
576.0,-0.0031177925411611795
640.0,-0.0035022569354623556
704.0,-0.004468611441552639
768.0,-0.004328464157879353
832.0,-0.003519742051139474
896.0,-0.0023597879335284233
960.0,-0.0012069657677784562
1024.0,-0.0017588684568181634
1152.0,-0.0002436723734717816
1280.0,0.0004993602633476257
1408.0,0.0004655594821088016
1536.0,0.001579668140038848
1664.0,0.00012239925854373723
1792.0,-8.929914474720135e-05
1920.0,0.0007618889212608337
2048.0,0.00010117436613654718
2304.0,0.000696961535140872
2560.0,0.0025513528380542994
2816.0,0.0016331169754266739
3072.0,-0.0008755101589486003
3328.0,-0.0012882574228569865
3584.0,-0.0019205742282792926
3840.0,-0.002985685830935836
4096.0,-0.00441587483510375
4608.0,0.0007759048603475094
5120.0,8.911301847547293e-05
5632.0,-0.0018043483141809702
6144.0,-0.00014723358617629856
6656.0,-0.00018880731659010053
7168.0,-0.0037949103862047195
7680.0,0.000965453393291682
8192.0,-0.000779115769546479
9216.0,0.00042019758257083595
10240.0,0.0018454912351444364
11264.0,0.002324060071259737
12288.0,0.0006544091156683862
13312.0,0.00037283680285327137
14336.0,-0.0054215663112699986
end
