version,3.0
numOfCh,1
type,point
parent_name,8-cuts
ch_type,1_1
kcount,1
numberNandB,1
brightnessNandB,1
carpet pos,0
pc,0
Time (ms),CH1 Auto-Correlation
1.0,0.05615471303462982
2.0,0.05571921914815903
3.0,0.0552874431014061
4.0,0.05486409366130829
5.0,0.054447345435619354
6.0,0.05403457581996918
7.0,0.05362115055322647
8.0,0.053210288286209106
9.0,0.05280556157231331
10.0,0.052412454038858414
11.0,0.05202252417802811
12.0,0.05164011940360069
13.0,0.051265694200992584
14.0,0.05088029056787491
15.0,0.05050145089626312
16.0,0.05012119561433792
18.0,0.0493902713060379
20.0,0.04867373779416084
22.0,0.048010971397161484
24.0,0.04736746847629547
26.0,0.04672883078455925
28.0,0.04612469673156738
30.0,0.045533470809459686
32.0,0.04495323821902275
36.0,0.0438152514398098
40.0,0.04266848415136337
44.0,0.04158464074134827
48.0,0.04054422304034233
52.0,0.03955000638961792
56.0,0.038600292056798935
60.0,0.03767825663089752
64.0,0.03674337640404701
72.0,0.03502648323774338
80.0,0.03347266837954521
88.0,0.03204052150249481
96.0,0.03074156492948532
104.0,0.029524285346269608
112.0,0.028433548286557198
120.0,0.02757585048675537
128.0,0.02676590532064438
144.0,0.025229504331946373
160.0,0.023726163432002068
176.0,0.022018220275640488
192.0,0.02037571184337139
208.0,0.018857935443520546
224.0,0.01774142123758793
240.0,0.016798395663499832
256.0,0.016364602372050285
288.0,0.016057536005973816
320.0,0.014957635663449764
352.0,0.013756589032709599
384.0,0.013015927746891975
416.0,0.013351778499782085
448.0,0.012668835930526257
480.0,0.01177250873297453
512.0,0.0116471778601408
576.0,0.010852360166609287
640.0,0.007889787666499615
704.0,0.005724661983549595
768.0,0.0016632085898891091
832.0,-9.198843326885253e-05
896.0,0.00035504469997249544
960.0,0.0017396487528458238
1024.0,0.003036517184227705
1152.0,0.005892882589250803
1280.0,0.003802168183028698
1408.0,0.0043900818563997746
1536.0,0.006789647042751312
1664.0,0.005899474024772644
1792.0,0.0035236140247434378
1920.0,0.0013680130941793323
2048.0,0.0016932946164160967
2304.0,-0.00023490525200031698
2560.0,0.00035216001560911536
2816.0,0.001437640399672091
3072.0,0.0019618335645645857
3328.0,0.0028656600043177605
3584.0,-0.004184809047728777
3840.0,-0.0068044806830585
4096.0,-0.013669519685208797
4608.0,-0.0033123905304819345
5120.0,-0.00011095249647041783
5632.0,-0.002732267137616873
6144.0,-0.011007479391992092
6656.0,-0.010677953250706196
7168.0,-0.008920246735215187
7680.0,-0.008251965045928955
8192.0,-0.007908073253929615
9216.0,-0.00831263791769743
10240.0,0.003934475593268871
11264.0,0.006605524104088545
12288.0,0.009671500883996487
13312.0,0.012741533108055592
14336.0,-0.00198552617803216
end
