version,3.0
numOfCh,1
type,point
parent_name,8-cuts
ch_type,1_1
kcount,1
numberNandB,1
brightnessNandB,1
carpet pos,0
pc,0
Time (ms),CH1 Auto-Correlation
1.0,0.06625170260667801
2.0,0.06582202017307281
3.0,0.06538806855678558
4.0,0.06496107578277588
5.0,0.06454245746135712
6.0,0.06413216888904572
7.0,0.0637332946062088
8.0,0.06333786994218826
9.0,0.06294030696153641
10.0,0.06252970546483994
11.0,0.062123268842697144
12.0,0.06172703206539154
13.0,0.0613369420170784
14.0,0.06095431372523308
15.0,0.0605783686041832
16.0,0.06020268425345421
18.0,0.05949102342128754
20.0,0.058810003101825714
22.0,0.058152347803115845
24.0,0.05749199166893959
26.0,0.056827038526535034
28.0,0.05617985874414444
30.0,0.05553474649786949
32.0,0.054898206144571304
36.0,0.05372089147567749
40.0,0.052587442100048065
44.0,0.051508210599422455
48.0,0.050526294857263565
52.0,0.04962487891316414
56.0,0.04876305162906647
60.0,0.047936711460351944
64.0,0.047082968056201935
72.0,0.04543139040470123
80.0,0.04391232505440712
88.0,0.04258599504828453
96.0,0.04144347831606865
104.0,0.04036469757556915
112.0,0.039142873138189316
120.0,0.038013897836208344
128.0,0.03704669699072838
144.0,0.03489989787340164
160.0,0.032752785831689835
176.0,0.03074069321155548
192.0,0.028940474614501
208.0,0.02725275605916977
224.0,0.026112398132681847
240.0,0.02510387822985649
256.0,0.024316497147083282
288.0,0.02304338850080967
320.0,0.021856902167201042
352.0,0.021674301475286484
384.0,0.02180548571050167
416.0,0.021739205345511436
448.0,0.01999162882566452
480.0,0.018735675141215324
512.0,0.018392935395240784
576.0,0.016494689509272575
640.0,0.013024925254285336
704.0,0.008637298829853535
768.0,0.004997840151190758
832.0,0.002233656123280525
896.0,0.0006077929283492267
960.0,-0.0004333923279773444
1024.0,-0.0015888386406004429
1152.0,-0.0027592135593295097
1280.0,-0.007448502350598574
1408.0,-0.010372057557106018
1536.0,-0.013240898959338665
1664.0,-0.015563197433948517
1792.0,-0.015936490148305893
1920.0,-0.015431491658091545
2048.0,-0.012083076871931553
2304.0,-0.0069283111952245235
2560.0,-0.0037796555552631617
2816.0,-0.0018014084780588746
3072.0,0.0012328926241025329
3328.0,0.008795567788183689
3584.0,0.010059393011033535
3840.0,0.008713911287486553
4096.0,0.0017136677633970976
4608.0,-0.012601478956639767
5120.0,-0.02364281564950943
5632.0,-0.023421360179781914
6144.0,-0.009600799530744553
6656.0,0.009292867965996265
7168.0,0.015863580629229546
7680.0,0.014641867019236088
8192.0,0.006618972402065992
9216.0,0.0006154724978841841
10240.0,0.005312529392540455
11264.0,0.007769545540213585
12288.0,-0.006212211679667234
13312.0,-0.02652878500521183
14336.0,0.005313698202371597
end
