version,3.0
numOfCh,1
type,point
parent_name,8-cuts
ch_type,1_1
kcount,1
numberNandB,1
brightnessNandB,1
carpet pos,0
pc,0
Time (ms),CH1 Auto-Correlation
1.0,0.09735263139009476
2.0,0.09674245119094849
3.0,0.0961344987154007
4.0,0.09553349763154984
5.0,0.0949438139796257
6.0,0.09434811770915985
7.0,0.09377143532037735
8.0,0.09319667518138885
9.0,0.09263461828231812
10.0,0.0920768603682518
11.0,0.09152716398239136
12.0,0.09097389876842499
13.0,0.09041692316532135
14.0,0.08985862880945206
15.0,0.0893237367272377
16.0,0.08879344165325165
18.0,0.08773922920227051
20.0,0.08668970316648483
22.0,0.08564432710409164
24.0,0.08462655544281006
26.0,0.08358771353960037
28.0,0.08257035166025162
30.0,0.08155852556228638
32.0,0.08056231588125229
36.0,0.0786173865199089
40.0,0.0767378956079483
44.0,0.07488641887903214
48.0,0.07302726060152054
52.0,0.07124817371368408
56.0,0.06958518922328949
60.0,0.06806761771440506
64.0,0.06667774170637131
72.0,0.06387493014335632
80.0,0.060999564826488495
88.0,0.05802043899893761
96.0,0.05487677454948425
104.0,0.052236635237932205
112.0,0.05015501007437706
120.0,0.048345897346735
128.0,0.046599384397268295
144.0,0.04274129122495651
160.0,0.038727425038814545
176.0,0.034556929022073746
192.0,0.03111187368631363
208.0,0.028354037553071976
224.0,0.02609780989587307
240.0,0.024414557963609695
256.0,0.023486308753490448
288.0,0.02148406393826008
320.0,0.019473860040307045
352.0,0.01819692924618721
384.0,0.017327770590782166
416.0,0.017632601782679558
448.0,0.018703637644648552
480.0,0.019632434472441673
512.0,0.0180423054844141
576.0,0.012185732834041119
640.0,0.009749459102749825
704.0,0.007740543689578772
768.0,0.007591236382722855
832.0,0.007058402057737112
896.0,0.0030565191991627216
960.0,-0.003156347433105111
1024.0,-0.008403746411204338
1152.0,-0.01648213155567646
1280.0,-0.010291697457432747
1408.0,-0.01040837075561285
1536.0,-0.01483079418540001
1664.0,-0.018063588067889214
1792.0,-0.012446779757738113
1920.0,-0.00823131762444973
2048.0,-0.014120083302259445
2304.0,-0.0150530394166708
2560.0,-0.007376492023468018
2816.0,-0.004196524620056152
3072.0,0.004851961508393288
3328.0,0.019583046436309814
3584.0,0.025204019621014595
3840.0,0.02515222690999508
4096.0,0.0141897639259696
4608.0,-0.017428740859031677
5120.0,-0.02592199295759201
5632.0,-0.021011121571063995
6144.0,-0.009589049033820629
6656.0,-0.001969971228390932
7168.0,0.01113541517406702
7680.0,0.0180329792201519
8192.0,-0.011248898692429066
9216.0,-0.008925387635827065
10240.0,0.006162297446280718
11264.0,0.013683230616152287
12288.0,0.0014433760661631823
13312.0,0.005080288741737604
14336.0,-0.005161412060260773
end
