version,3.0
numOfCh,1
type,point
parent_name,8-cuts
ch_type,1_1
kcount,1
numberNandB,1
brightnessNandB,1
carpet pos,0
pc,0
Time (ms),CH1 Auto-Correlation
1.0,0.02670431137084961
2.0,0.02649196796119213
3.0,0.026285404339432716
4.0,0.02608063444495201
5.0,0.025880176573991776
6.0,0.02567804418504238
7.0,0.025478046387434006
8.0,0.025283949449658394
9.0,0.025087827816605568
10.0,0.024896137416362762
11.0,0.024711204692721367
12.0,0.024528194218873978
13.0,0.024351073428988457
14.0,0.024170760065317154
15.0,0.023993847891688347
16.0,0.02381923422217369
18.0,0.02349182963371277
20.0,0.02316988632082939
22.0,0.022863293066620827
24.0,0.022569505497813225
26.0,0.022283095866441727
28.0,0.021994292736053467
30.0,0.02170015685260296
32.0,0.021405912935733795
36.0,0.020801767706871033
40.0,0.0201867688447237
44.0,0.019568132236599922
48.0,0.01899525709450245
52.0,0.018485670909285545
56.0,0.01802375353872776
60.0,0.017600996419787407
64.0,0.017208818346261978
72.0,0.016472192481160164
80.0,0.01576206088066101
88.0,0.015049588866531849
96.0,0.01435953751206398
104.0,0.013604998588562012
112.0,0.012835376895964146
120.0,0.012078655883669853
128.0,0.011388914659619331
144.0,0.010033629834651947
160.0,0.008853157050907612
176.0,0.007800012361258268
192.0,0.006852741353213787
208.0,0.006145378574728966
224.0,0.005663985852152109
240.0,0.005226536188274622
256.0,0.004901220090687275
288.0,0.004063099157065153
320.0,0.0031089172698557377
352.0,0.001978162443265319
384.0,0.0008899603853933513
416.0,-0.00016579868679400533
448.0,-0.0009499703883193433
480.0,-0.0011095572263002396
512.0,-0.0014362884685397148
576.0,-0.0017384415259584785
640.0,-0.0017149518243968487
704.0,-0.0017317129531875253
768.0,-0.0011316039599478245
832.0,0.000548682757653296
896.0,0.00220996025018394
960.0,0.003492825198918581
1024.0,0.004467351827770472
1152.0,0.0037267133593559265
1280.0,0.0023662217427045107
1408.0,-0.0011864439584314823
1536.0,-0.0006716062198393047
1664.0,0.0002907757298089564
1792.0,0.0013654663925990462
1920.0,0.002513224259018898
2048.0,0.0032332062255591154
2304.0,0.002553231082856655
2560.0,0.000576684542465955
2816.0,0.0022045972291380167
3072.0,0.00341115053743124
3328.0,0.0014243470504879951
3584.0,-0.00015503284521400928
3840.0,-0.0010192786576226354
4096.0,0.0017729951068758965
4608.0,0.001570780761539936
5120.0,0.0015789702301844954
5632.0,0.000541581423021853
6144.0,-0.003822585102170706
6656.0,-0.0018891369691118598
7168.0,-0.0009481576853431761
7680.0,0.002239933703094721
8192.0,-0.003135809674859047
9216.0,-0.004070284776389599
10240.0,-0.004481137730181217
11264.0,-0.002489318372681737
12288.0,-0.0033201328478753567
13312.0,-0.0032195684034377337
14336.0,-0.004483179654926062
end
