version,3.0
numOfCh,1
type,point
parent_name,8-cuts
ch_type,1_1
kcount,1
numberNandB,1
brightnessNandB,1
carpet pos,0
pc,0
Time (ms),CH1 Auto-Correlation
1.0,0.05554867163300514
2.0,0.05510753393173218
3.0,0.05467294901609421
4.0,0.054235029965639114
5.0,0.05380813777446747
6.0,0.05338136479258537
7.0,0.052963774651288986
8.0,0.0525481291115284
9.0,0.05214110016822815
10.0,0.05174056068062782
11.0,0.05134866386651993
12.0,0.050957463681697845
13.0,0.05055997520685196
14.0,0.05017724260687828
15.0,0.04980755224823952
16.0,0.049443569034338
18.0,0.04874785989522934
20.0,0.04805674031376839
22.0,0.047351814806461334
24.0,0.04665284603834152
26.0,0.045958831906318665
28.0,0.04525551199913025
30.0,0.044581443071365356
32.0,0.0439259298145771
36.0,0.04264318197965622
40.0,0.04136868566274643
44.0,0.040089499205350876
48.0,0.03880685567855835
52.0,0.03756578266620636
56.0,0.03640719875693321
60.0,0.03536248952150345
64.0,0.03439682349562645
72.0,0.03251364082098007
80.0,0.030550582334399223
88.0,0.028591210022568703
96.0,0.02670271322131157
104.0,0.02490670047700405
112.0,0.02333565056324005
120.0,0.021723058074712753
128.0,0.020093422383069992
144.0,0.016972966492176056
160.0,0.014481558464467525
176.0,0.012125177308917046
192.0,0.010082749649882317
208.0,0.007652735337615013
224.0,0.005021186079829931
240.0,0.0027262941002845764
256.0,0.001077984576113522
288.0,0.00013317831326276064
320.0,0.0012205559760332108
352.0,0.002831153804436326
384.0,0.004511391744017601
416.0,0.005092606879770756
448.0,0.004274172242730856
480.0,0.004237367305904627
512.0,0.0056950123980641365
576.0,0.0042481315322220325
640.0,-0.0009296450880356133
704.0,-0.002576197497546673
768.0,-0.0018034448148682714
832.0,-0.001999706495553255
896.0,-0.0007073888555169106
960.0,0.00014512057532556355
1024.0,-0.0016204123385250568
1152.0,-0.0036821782123297453
1280.0,-0.007960209622979164
1408.0,-0.010132074356079102
1536.0,-0.00846610777080059
1664.0,-0.002065704669803381
1792.0,0.0007505256799049675
1920.0,0.0011245760833844543
2048.0,0.0037646156270056963
2304.0,0.005415627732872963
2560.0,-0.00405554473400116
2816.0,-0.004291773773729801
3072.0,-0.004153118003159761
3328.0,-0.0030520695727318525
3584.0,-0.004507455974817276
3840.0,-0.006648075766861439
4096.0,-0.0034285394940525293
4608.0,-0.006535760592669249
5120.0,-0.00024510204093530774
5632.0,0.007994990795850754
6144.0,0.009519636631011963
6656.0,-0.0010087353875860572
7168.0,-0.007252077106386423
7680.0,0.0040080430917441845
8192.0,0.00950669962912798
9216.0,-0.005843549035489559
10240.0,-0.0046804072335362434
11264.0,-0.0006933833938091993
12288.0,0.0005531982169486582
13312.0,5.6842443882487714e-05
14336.0,0.012656980194151402
end
