version,3.0
numOfCh,1
type,point
parent_name,8-cuts
ch_type,1_1
kcount,1
numberNandB,1
brightnessNandB,1
carpet pos,0
pc,0
Time (ms),CH1 Auto-Correlation
1.0,0.07781784236431122
2.0,0.0772753357887268
3.0,0.07674882560968399
4.0,0.07622909545898438
5.0,0.0757080540060997
6.0,0.07519586384296417
7.0,0.07469494640827179
8.0,0.07419406622648239
9.0,0.07370147854089737
10.0,0.07321693748235703
11.0,0.0727362409234047
12.0,0.07226041704416275
13.0,0.07179145514965057
14.0,0.07133259624242783
15.0,0.07086611539125443
16.0,0.07041403651237488
18.0,0.06950445473194122
20.0,0.06861269474029541
22.0,0.06772937625646591
24.0,0.06686761975288391
26.0,0.06602256000041962
28.0,0.06518783420324326
30.0,0.06439268589019775
32.0,0.06361167877912521
36.0,0.062040459364652634
40.0,0.0604172945022583
44.0,0.05884088575839996
48.0,0.0573737807571888
52.0,0.05593213066458702
56.0,0.05450265109539032
60.0,0.05312199145555496
64.0,0.05179034546017647
72.0,0.04933694750070572
80.0,0.04695563018321991
88.0,0.044772304594516754
96.0,0.042768701910972595
104.0,0.04097660630941391
112.0,0.03935698792338371
120.0,0.0376068614423275
128.0,0.03586855158209801
144.0,0.03266909718513489
160.0,0.02923876978456974
176.0,0.025557518005371094
192.0,0.022356592118740082
208.0,0.019826842471957207
224.0,0.01836767978966236
240.0,0.01707380823791027
256.0,0.016207832843065262
288.0,0.016195200383663177
320.0,0.016863685101270676
352.0,0.017364170402288437
384.0,0.01650933176279068
416.0,0.015259726904332638
448.0,0.014749310910701752
480.0,0.014512298628687859
512.0,0.014325195923447609
576.0,0.013173025101423264
640.0,0.012170854024589062
704.0,0.010230210609734058
768.0,0.011197604238986969
832.0,0.010533738881349564
896.0,0.009551105089485645
960.0,0.010446099564433098
1024.0,0.009679947979748249
1152.0,0.00528639554977417
1280.0,-0.0002314660814590752
1408.0,-0.002152714179828763
1536.0,-0.003970265854150057
1664.0,0.0018302471144124866
1792.0,-0.0014569484628736973
1920.0,-0.008430353365838528
2048.0,-0.00470348447561264
2304.0,-0.013843740336596966
2560.0,-0.01964684948325157
2816.0,-0.015835460275411606
3072.0,-0.012043271213769913
3328.0,-0.012851555831730366
3584.0,-0.012056519277393818
3840.0,-0.0020123631693422794
4096.0,-0.0008913628989830613
4608.0,-0.0025310185737907887
5120.0,0.005813185591250658
5632.0,-0.0009193489095196128
6144.0,0.004746325314044952
6656.0,0.0029777036979794502
7168.0,0.008975371718406677
7680.0,0.006445811130106449
8192.0,0.004503781441599131
9216.0,-0.003656480461359024
10240.0,-0.01119867991656065
11264.0,-0.014966034330427647
12288.0,-0.015370821580290794
13312.0,0.007071494124829769
14336.0,0.023215897381305695
end
