version,3.0
numOfCh,1
type,point
parent_name,8-cuts
ch_type,1_1
kcount,1
numberNandB,1
brightnessNandB,1
carpet pos,0
pc,0
Time (ms),CH1 Auto-Correlation
1.0,0.08366230875253677
2.0,0.08317849040031433
3.0,0.08270014822483063
4.0,0.08222443610429764
5.0,0.08175072073936462
6.0,0.0812784731388092
7.0,0.08081874251365662
8.0,0.08036324381828308
9.0,0.07991296052932739
10.0,0.07947840541601181
11.0,0.07904920727014542
12.0,0.07861606776714325
13.0,0.07819350063800812
14.0,0.0777864009141922
15.0,0.07736866921186447
16.0,0.07694794237613678
18.0,0.07610756903886795
20.0,0.07529161125421524
22.0,0.07450063526630402
24.0,0.07373777031898499
26.0,0.07299596816301346
28.0,0.0722707211971283
30.0,0.07156439125537872
32.0,0.07087743282318115
36.0,0.06951318681240082
40.0,0.06820450723171234
44.0,0.06698857992887497
48.0,0.0658571794629097
52.0,0.06480717658996582
56.0,0.0638076663017273
60.0,0.06288336217403412
64.0,0.06196276843547821
72.0,0.06031442806124687
80.0,0.058817941695451736
88.0,0.05747620016336441
96.0,0.056232351809740067
104.0,0.05487469583749771
112.0,0.053534407168626785
120.0,0.05215175077319145
128.0,0.05080479755997658
144.0,0.048157040029764175
160.0,0.04572685435414314
176.0,0.04358251765370369
192.0,0.04165395349264145
208.0,0.04022100195288658
224.0,0.038942936807870865
240.0,0.037808556109666824
256.0,0.03677114099264145
288.0,0.03471731022000313
320.0,0.033599525690078735
352.0,0.033242207020521164
384.0,0.032197006046772
416.0,0.030283039435744286
448.0,0.028849661350250244
480.0,0.02766001783311367
512.0,0.026430774480104446
576.0,0.024868788197636604
640.0,0.022778376936912537
704.0,0.02118741162121296
768.0,0.019708571955561638
832.0,0.01971276104450226
896.0,0.01941557787358761
960.0,0.020080873742699623
1024.0,0.017397193238139153
1152.0,0.011387231759727001
1280.0,0.008137083612382412
1408.0,0.006212132517248392
1536.0,0.005232327152043581
1664.0,-0.0023271767422556877
1792.0,-0.006591071840375662
1920.0,-0.0037381721194833517
2048.0,-0.0010699826525524259
2304.0,-0.003256798954680562
2560.0,-0.006672542076557875
2816.0,-0.008389758877456188
3072.0,-0.016032343730330467
3328.0,-0.023492002859711647
3584.0,-0.019380364567041397
3840.0,-0.02436002902686596
4096.0,-0.024762000888586044
4608.0,-0.01083850022405386
5120.0,0.001242155092768371
5632.0,0.001129568787291646
6144.0,0.009207409806549549
6656.0,0.015637625008821487
7168.0,0.017399949952960014
7680.0,0.02670128457248211
8192.0,0.02136007510125637
9216.0,-0.0035877625923603773
10240.0,-0.020086010918021202
11264.0,-0.037018898874521255
12288.0,-0.019320761784911156
13312.0,-0.011058278381824493
14336.0,0.007378211710602045
end
