version,3.0
numOfCh,1
type,point
parent_name,8-cuts
ch_type,1_1
kcount,1
numberNandB,1
brightnessNandB,1
carpet pos,0
pc,0
Time (ms),CH1 Auto-Correlation
1.0,0.0942816361784935
2.0,0.09360086917877197
3.0,0.0929301381111145
4.0,0.09226390719413757
5.0,0.09160910546779633
6.0,0.09095437079668045
7.0,0.09032899886369705
8.0,0.08970988541841507
9.0,0.08910775184631348
10.0,0.08851461112499237
11.0,0.08792603015899658
12.0,0.08735664188861847
13.0,0.08681173622608185
14.0,0.0862644836306572
15.0,0.0857243686914444
16.0,0.08519480377435684
18.0,0.0841541662812233
20.0,0.08311330527067184
22.0,0.08212250471115112
24.0,0.0812060609459877
26.0,0.08031640201807022
28.0,0.07949113100767136
30.0,0.07871811091899872
32.0,0.07798463106155396
36.0,0.07645216584205627
40.0,0.07490833103656769
44.0,0.07339714467525482
48.0,0.07188916951417923
52.0,0.07039789110422134
56.0,0.06892211735248566
60.0,0.06755978614091873
64.0,0.06619571894407272
72.0,0.06373249739408493
80.0,0.0614955760538578
88.0,0.05947062000632286
96.0,0.05738213658332825
104.0,0.05562513694167137
112.0,0.053992535918951035
120.0,0.052465490996837616
128.0,0.050886910408735275
144.0,0.04855668544769287
160.0,0.04734832048416138
176.0,0.04623638093471527
192.0,0.0453401543200016
208.0,0.044454507529735565
224.0,0.04358481615781784
240.0,0.04241844266653061
256.0,0.04138903692364693
288.0,0.03917578607797623
320.0,0.03445768356323242
352.0,0.029938675463199615
384.0,0.02619313634932041
416.0,0.022876132279634476
448.0,0.021728741005063057
480.0,0.021112684160470963
512.0,0.018423883244395256
576.0,0.013252350501716137
640.0,0.009028893895447254
704.0,0.006605956237763166
768.0,0.0038708599749952555
832.0,0.003207023022696376
896.0,0.0023037162609398365
960.0,0.0012551109539344907
1024.0,-0.0007224396686069667
1152.0,0.0026647208724170923
1280.0,0.006265291012823582
1408.0,0.012996159493923187
1536.0,0.009482038207352161
1664.0,0.010313701815903187
1792.0,0.01166759617626667
1920.0,0.010293052531778812
2048.0,0.008501050062477589
2304.0,0.003381463699042797
2560.0,-0.0006182022043503821
2816.0,0.0003829948545899242
3072.0,0.009707020595669746
3328.0,0.015450473874807358
3584.0,0.005916673224419355
3840.0,-0.007170557044446468
4096.0,-0.015294129960238934
4608.0,-0.0065927812829613686
5120.0,-0.009171031415462494
5632.0,-0.003924774471670389
6144.0,0.0005588203202933073
6656.0,0.00638098968192935
7168.0,0.0001053119995049201
7680.0,0.009094074368476868
8192.0,-0.0007325995247811079
9216.0,-0.004478618502616882
10240.0,-0.011293604969978333
11264.0,-0.021717235445976257
12288.0,-0.026549341157078743
13312.0,-0.040539029985666275
14336.0,-0.001013218774460256
end
