version,3.0
numOfCh,1
type,point
parent_name,8-cuts
ch_type,1_1
kcount,1
numberNandB,1
brightnessNandB,1
carpet pos,0
pc,0
Time (ms),CH1 Auto-Correlation
1.0,0.03362514451146126
2.0,0.033402856439352036
3.0,0.03317958861589432
4.0,0.03296331316232681
5.0,0.032749369740486145
6.0,0.03253454715013504
7.0,0.03231984004378319
8.0,0.03210495039820671
9.0,0.03189247474074364
10.0,0.031687598675489426
11.0,0.031485024839639664
12.0,0.03128623962402344
13.0,0.031089751049876213
14.0,0.03089749626815319
15.0,0.03070715442299843
16.0,0.03051651455461979
18.0,0.03014357015490532
20.0,0.02977987751364708
22.0,0.029423613101243973
24.0,0.029078219085931778
26.0,0.028739137575030327
28.0,0.028406482189893723
30.0,0.028081947937607765
32.0,0.027758128941059113
36.0,0.027141166850924492
40.0,0.026584401726722717
44.0,0.026036133989691734
48.0,0.025502730160951614
52.0,0.025005090981721878
56.0,0.02450999617576599
60.0,0.024013927206397057
64.0,0.023518802598118782
72.0,0.022539272904396057
80.0,0.02158527448773384
88.0,0.020668458193540573
96.0,0.019788257777690887
104.0,0.01898433081805706
112.0,0.01823599264025688
120.0,0.017572881653904915
128.0,0.016960525885224342
144.0,0.01582198217511177
160.0,0.01495189219713211
176.0,0.014308667741715908
192.0,0.013718204572796822
208.0,0.013368619605898857
224.0,0.012932190671563148
240.0,0.012464204803109169
256.0,0.011882875114679337
288.0,0.010959782637655735
320.0,0.010032085701823235
352.0,0.009299911558628082
384.0,0.008760875090956688
416.0,0.008013603277504444
448.0,0.007086724042892456
480.0,0.006412734277546406
512.0,0.00546390051022172
576.0,0.005102716851979494
640.0,0.005789478309452534
704.0,0.006959354504942894
768.0,0.0065377322025597095
832.0,0.00468770507723093
896.0,0.00440604193136096
960.0,0.004891267046332359
1024.0,0.0056799487210810184
1152.0,0.005334292072802782
1280.0,0.0021279449574649334
1408.0,-0.0018783094128593802
1536.0,-0.005295668728649616
1664.0,-0.005556461401283741
1792.0,-0.004298549611121416
1920.0,-0.004737024661153555
2048.0,-0.003568100742995739
2304.0,-0.0021859363187104464
2560.0,-0.0018613613210618496
2816.0,-0.00031601780210621655
3072.0,0.0016124582616612315
3328.0,0.002946052933111787
3584.0,0.00037763023283332586
3840.0,0.002858753316104412
4096.0,0.0010960454819723964
4608.0,-0.0009120884351432323
5120.0,-0.001431675162166357
5632.0,0.0011608181521296501
6144.0,-0.0002756993053480983
6656.0,-0.0007166649447754025
7168.0,-0.00602641049772501
7680.0,-0.005279959179461002
8192.0,-0.006542874500155449
9216.0,0.0010802174219861627
10240.0,-0.0028157993219792843
11264.0,-0.00231926585547626
12288.0,0.003980882000178099
13312.0,9.025613690027967e-05
14336.0,-0.015302748419344425
end
