version,3.0
numOfCh,1
type,point
parent_name,8-cuts
ch_type,1_1
kcount,1
numberNandB,1
brightnessNandB,1
carpet pos,0
pc,0
Time (ms),CH1 Auto-Correlation
1.0,0.03117094188928604
2.0,0.03098105639219284
3.0,0.030793676152825356
4.0,0.030611520633101463
5.0,0.030429387465119362
6.0,0.03025107830762863
7.0,0.03007642924785614
8.0,0.02990475483238697
9.0,0.029734181240200996
10.0,0.02957163006067276
11.0,0.029409706592559814
12.0,0.029251117259263992
13.0,0.02909652143716812
14.0,0.028943656012415886
15.0,0.02879527397453785
16.0,0.028649860993027687
18.0,0.02836626209318638
20.0,0.02809479832649231
22.0,0.0278257317841053
24.0,0.027562342584133148
26.0,0.02729697898030281
28.0,0.02701612003147602
30.0,0.026740528643131256
32.0,0.02647748775780201
36.0,0.025952432304620743
40.0,0.025442535057663918
44.0,0.024948645383119583
48.0,0.024470236152410507
52.0,0.02398274652659893
56.0,0.023495137691497803
60.0,0.023019148036837578
64.0,0.022563941776752472
72.0,0.021722732111811638
80.0,0.020958082750439644
88.0,0.02028384804725647
96.0,0.019650408998131752
104.0,0.019114460796117783
112.0,0.018620656803250313
120.0,0.018153594806790352
128.0,0.017738809809088707
144.0,0.016909662634134293
160.0,0.01633201539516449
176.0,0.015763167291879654
192.0,0.015215806663036346
208.0,0.01457467395812273
224.0,0.013899821788072586
240.0,0.013125411234796047
256.0,0.012341459281742573
288.0,0.01075409259647131
320.0,0.009034900926053524
352.0,0.0075553711503744125
384.0,0.0064689526334404945
416.0,0.006022759713232517
448.0,0.005151654593646526
480.0,0.0044253915548324585
512.0,0.004025363828986883
576.0,0.00323704956099391
640.0,0.003160298801958561
704.0,0.0038715919945389032
768.0,0.004455528687685728
832.0,0.004234494175761938
896.0,0.0031098255421966314
960.0,0.0016324179014191031
1024.0,0.000777707842644304
1152.0,-0.001330014900304377
1280.0,-0.003938849084079266
1408.0,-0.002542396541684866
1536.0,-0.00145167566370219
1664.0,1.2651338693103753e-05
1792.0,0.00029786163941025734
1920.0,0.0018986889626830816
2048.0,0.0014663803158327937
2304.0,0.002629521768540144
2560.0,0.0018638294422999024
2816.0,-0.0013051570858806372
3072.0,0.0016484662191942334
3328.0,0.00253721559420228
3584.0,5.07076911162585e-05
3840.0,0.004258131142705679
4096.0,0.005622421856969595
4608.0,-0.003531075781211257
5120.0,-0.006491189356893301
5632.0,-0.005638658069074154
6144.0,-0.002412747126072645
6656.0,0.0015173971187323332
7168.0,-6.952313560759649e-05
7680.0,-0.0037206707056611776
8192.0,-0.0011695517459884286
9216.0,-0.011115786619484425
10240.0,-0.002401780802756548
11264.0,-0.0009066957281902432
12288.0,-0.004178075585514307
13312.0,0.0037885410711169243
14336.0,0.016857517883181572
end
