version,3.0
numOfCh,1
type,point
parent_name,8-cuts
ch_type,1_1
kcount,1
numberNandB,1
brightnessNandB,1
carpet pos,0
pc,0
Time (ms),CH1 Auto-Correlation
1.0,0.0734989270567894
2.0,0.07299172878265381
3.0,0.07248308509588242
4.0,0.0719730332493782
5.0,0.07146424800157547
6.0,0.07095181941986084
7.0,0.07044844329357147
8.0,0.06993632018566132
9.0,0.06943502277135849
10.0,0.06893905252218246
11.0,0.06846071779727936
12.0,0.06799457967281342
13.0,0.0675332322716713
14.0,0.06707350164651871
15.0,0.06661435961723328
16.0,0.06615994870662689
18.0,0.06527528911828995
20.0,0.0643995925784111
22.0,0.06352043151855469
24.0,0.0626843273639679
26.0,0.061870213598012924
28.0,0.06105026602745056
30.0,0.060260169208049774
32.0,0.05952812731266022
36.0,0.058122772723436356
40.0,0.056746210902929306
44.0,0.05545598641037941
48.0,0.05425829440355301
52.0,0.05317176505923271
56.0,0.05221715569496155
60.0,0.05135677382349968
64.0,0.05056805908679962
72.0,0.04906511679291725
80.0,0.047828249633312225
88.0,0.04674990475177765
96.0,0.045682065188884735
104.0,0.044587913900613785
112.0,0.0434894934296608
120.0,0.04244289547204971
128.0,0.041579172015190125
144.0,0.0400572270154953
160.0,0.03859514743089676
176.0,0.03660149127244949
192.0,0.035293467342853546
208.0,0.03448929265141487
224.0,0.03349887207150459
240.0,0.03234419599175453
256.0,0.03130914643406868
288.0,0.02867908589541912
320.0,0.026241464540362358
352.0,0.02522754669189453
384.0,0.023652737960219383
416.0,0.02092740312218666
448.0,0.01905234158039093
480.0,0.018535960465669632
512.0,0.018477389588952065
576.0,0.01754169724881649
640.0,0.014367762953042984
704.0,0.011836588382720947
768.0,0.011009556241333485
832.0,0.01124463602900505
896.0,0.009542516432702541
960.0,0.009031732566654682
1024.0,0.009570284746587276
1152.0,0.009023433551192284
1280.0,0.0100180022418499
1408.0,0.017526809126138687
1536.0,0.018038365989923477
1664.0,0.02064843475818634
1792.0,0.015968425199389458
1920.0,0.0138491066172719
2048.0,0.006896878592669964
2304.0,0.007015954237431288
2560.0,0.0008097266545519233
2816.0,-0.004947636742144823
3072.0,-0.005515228025615215
3328.0,0.0019016984151676297
3584.0,0.005536112003028393
3840.0,0.004017634782940149
4096.0,0.001626914949156344
4608.0,-0.008872014470398426
5120.0,-0.0018083081813529134
5632.0,-0.0068951863795518875
6144.0,-0.010417422279715538
6656.0,-0.005774693563580513
7168.0,-0.002325099427253008
7680.0,0.002611137693747878
8192.0,0.006354210898280144
9216.0,-0.0037101523485034704
10240.0,-0.01939220540225506
11264.0,-0.021705079823732376
12288.0,-0.011925681494176388
13312.0,-0.019041825085878372
14336.0,-0.018984541296958923
end
