version,3.0
numOfCh,1
type,point
parent_name,8-cuts
ch_type,1_1
kcount,1
numberNandB,1
brightnessNandB,1
carpet pos,0
pc,0
Time (ms),CH1 Auto-Correlation
1.0,0.034230269491672516
2.0,0.03402816504240036
3.0,0.03383386880159378
4.0,0.03364664688706398
5.0,0.03346824273467064
6.0,0.03329387679696083
7.0,0.03312836214900017
8.0,0.032960422337055206
9.0,0.03279173746705055
10.0,0.0326225645840168
11.0,0.03245062008500099
12.0,0.032275740057229996
13.0,0.03210281580686569
14.0,0.03193763643503189
15.0,0.03177335113286972
16.0,0.03160874545574188
18.0,0.03128333389759064
20.0,0.030967922881245613
22.0,0.03065391071140766
24.0,0.030345134437084198
26.0,0.03005356155335903
28.0,0.02978217415511608
30.0,0.029520288109779358
32.0,0.02926112525165081
36.0,0.028789516538381577
40.0,0.028333207592368126
44.0,0.02788926661014557
48.0,0.027457764372229576
52.0,0.027005964890122414
56.0,0.02656671032309532
60.0,0.02611144818365574
64.0,0.025642061606049538
72.0,0.024672934785485268
80.0,0.023746930062770844
88.0,0.02290264330804348
96.0,0.022133808583021164
104.0,0.021446194499731064
112.0,0.02088969200849533
120.0,0.02039214037358761
128.0,0.01989283412694931
144.0,0.01890725828707218
160.0,0.017893677577376366
176.0,0.017084958031773567
192.0,0.016445327550172806
208.0,0.01571798324584961
224.0,0.014983546920120716
240.0,0.014335386455059052
256.0,0.013687118887901306
288.0,0.012428156100213528
320.0,0.011669321916997433
352.0,0.011238076724112034
384.0,0.010476244613528252
416.0,0.009408815763890743
448.0,0.008382360450923443
480.0,0.0068936473689973354
512.0,0.005029462743550539
576.0,0.0017631889786571264
640.0,0.0002781774091999978
704.0,-0.0013044608058407903
768.0,-0.003070434555411339
832.0,-0.004241288173943758
896.0,-0.005258286837488413
960.0,-0.005502395797520876
1024.0,-0.005490205250680447
1152.0,-0.0033085469622164965
1280.0,-0.0018881860887631774
1408.0,0.0014054985949769616
1536.0,0.0044248998165130615
1664.0,0.004404876381158829
1792.0,0.004769928753376007
1920.0,0.00275229150429368
2048.0,0.0007973869796842337
2304.0,-0.0018774267518892884
2560.0,-0.004250543657690287
2816.0,-0.0056078205816447735
3072.0,-0.004780637100338936
3328.0,-0.0022553743328899145
3584.0,-0.0008883812115527689
3840.0,-0.0013313899980857968
4096.0,-0.0023585648741573095
4608.0,-0.006431829184293747
5120.0,-0.0012103865155950189
5632.0,0.001558133284561336
6144.0,0.005353006534278393
6656.0,0.006612430326640606
7168.0,-0.005068250000476837
7680.0,0.0010421944316476583
8192.0,0.0041230362839996815
9216.0,-0.0031446253415197134
10240.0,-0.0040274797938764095
11264.0,-0.002317198319360614
12288.0,0.0006853074301034212
13312.0,0.0009019869612529874
14336.0,0.00039127565105445683
end
