version,3.0
numOfCh,1
type,point
parent_name,8-cuts
ch_type,1_1
kcount,1
numberNandB,1
brightnessNandB,1
carpet pos,0
pc,0
Time (ms),CH1 Auto-Correlation
1.0,0.07724227756261826
2.0,0.07672154903411865
3.0,0.07619588077068329
4.0,0.07567401975393295
5.0,0.07517219334840775
6.0,0.07468435168266296
7.0,0.07421087473630905
8.0,0.0737418457865715
9.0,0.07327478379011154
10.0,0.07280665636062622
11.0,0.07236427068710327
12.0,0.07192482054233551
13.0,0.0714883878827095
14.0,0.0710582286119461
15.0,0.07063028961420059
16.0,0.07019530236721039
18.0,0.06935589760541916
20.0,0.06855066865682602
22.0,0.06775666773319244
24.0,0.06695248186588287
26.0,0.0661817416548729
28.0,0.06546000391244888
30.0,0.06473803520202637
32.0,0.0640268325805664
36.0,0.06260129809379578
40.0,0.06115477532148361
44.0,0.05973881110548973
48.0,0.058410562574863434
52.0,0.05715532228350639
56.0,0.05595455691218376
60.0,0.05484500527381897
64.0,0.05379968136548996
72.0,0.05192869156599045
80.0,0.0503113716840744
88.0,0.04881662130355835
96.0,0.047347452491521835
104.0,0.04594602808356285
112.0,0.04482925683259964
120.0,0.043731093406677246
128.0,0.042507532984018326
144.0,0.03969958797097206
160.0,0.037182483822107315
176.0,0.035084318369627
192.0,0.03308342397212982
208.0,0.03138697147369385
224.0,0.029743362218141556
240.0,0.027528775855898857
256.0,0.025253167375922203
288.0,0.022490601986646652
320.0,0.020176755264401436
352.0,0.018220342695713043
384.0,0.017173290252685547
416.0,0.01684621162712574
448.0,0.0158603023737669
480.0,0.015377524308860302
512.0,0.015670737251639366
576.0,0.014855206944048405
640.0,0.013972120359539986
704.0,0.01436302438378334
768.0,0.012520972639322281
832.0,0.012030726298689842
896.0,0.011399558745324612
960.0,0.010005307383835316
1024.0,0.011850380338728428
1152.0,0.010575775988399982
1280.0,0.003928300458937883
1408.0,-0.004850513767451048
1536.0,-0.010199589654803276
1664.0,-0.012149776332080364
1792.0,-0.011780799366533756
1920.0,-0.009684818796813488
2048.0,-0.005709029734134674
2304.0,-0.007211755495518446
2560.0,-0.012595970183610916
2816.0,-0.015420293435454369
3072.0,-0.008985783904790878
3328.0,-0.00807829387485981
3584.0,-0.005471311509609222
3840.0,-0.0031261839903891087
4096.0,0.00412249518558383
4608.0,-0.008475562557578087
5120.0,-0.01674599014222622
5632.0,-0.013412225991487503
6144.0,-0.006596019025892019
6656.0,0.00497066043317318
7168.0,0.01841803826391697
7680.0,0.023652665317058563
8192.0,0.014331954531371593
9216.0,-0.005857361480593681
10240.0,-0.010179677978157997
11264.0,0.007394325453788042
12288.0,-0.0008811391890048981
13312.0,-0.005244542844593525
14336.0,0.0010026999516412616
end
