version,3.0
numOfCh,1
type,point
parent_name,8-cuts
ch_type,1_1
kcount,1
numberNandB,1
brightnessNandB,1
carpet pos,0
pc,0
Time (ms),CH1 Auto-Correlation
1.0,0.06624817848205566
2.0,0.06577326357364655
3.0,0.06529955565929413
4.0,0.06482956558465958
5.0,0.06436670571565628
6.0,0.06389789283275604
7.0,0.06342853605747223
8.0,0.06297042965888977
9.0,0.06250665336847305
10.0,0.062049828469753265
11.0,0.06159333884716034
12.0,0.06113678216934204
13.0,0.06068959832191467
14.0,0.060235679149627686
15.0,0.05979498475790024
16.0,0.05936561897397041
18.0,0.05852832645177841
20.0,0.057717740535736084
22.0,0.056920796632766724
24.0,0.05614331364631653
26.0,0.05533958598971367
28.0,0.054528333246707916
30.0,0.05374419689178467
32.0,0.052978917956352234
36.0,0.05162401497364044
40.0,0.050448328256607056
44.0,0.049326132982969284
48.0,0.048231761902570724
52.0,0.04718891158699989
56.0,0.04622616618871689
60.0,0.04525976628065109
64.0,0.044337235391139984
72.0,0.04255868121981621
80.0,0.040621306747198105
88.0,0.03889938443899155
96.0,0.03734976798295975
104.0,0.03595362603664398
112.0,0.034834135323762894
120.0,0.03396466374397278
128.0,0.03312036767601967
144.0,0.031378719955682755
160.0,0.029590094462037086
176.0,0.028086582198739052
192.0,0.02686261013150215
208.0,0.025288168340921402
224.0,0.023320641368627548
240.0,0.021720046177506447
256.0,0.020123567432165146
288.0,0.016789637506008148
320.0,0.015466608107089996
352.0,0.014086134731769562
384.0,0.012483803555369377
416.0,0.01026160642504692
448.0,0.008205976337194443
480.0,0.006457179319113493
512.0,0.0051549579948186874
576.0,0.006389513611793518
640.0,0.0036484934389591217
704.0,-0.00036709397681988776
768.0,-0.0013559423387050629
832.0,-0.001652454724535346
896.0,-0.003368569537997246
960.0,-0.0036605969071388245
1024.0,-0.003995158709585667
1152.0,-0.0011831226292997599
1280.0,0.0005130711360834539
1408.0,0.00031858767033554614
1536.0,0.0007216196972876787
1664.0,-0.0012374651851132512
1792.0,0.003982225898653269
1920.0,0.004885166883468628
2048.0,0.0031831148080527782
2304.0,0.00016646251606289297
2560.0,-0.002110215835273266
2816.0,-0.010211610235273838
3072.0,-0.014069221913814545
3328.0,-0.014373837038874626
3584.0,-0.004960972815752029
3840.0,0.0008358938503079116
4096.0,0.001683796290308237
4608.0,0.0002769749262370169
5120.0,-0.006600210443139076
5632.0,0.00020011066226288676
6144.0,-0.0023472874891012907
6656.0,-0.006039494648575783
7168.0,-0.005225582979619503
7680.0,-0.00714529026299715
8192.0,-0.00171181361656636
9216.0,0.012687088921666145
10240.0,0.009776107035577297
11264.0,-0.0045781549997627735
12288.0,-0.011449833400547504
13312.0,-0.003498530015349388
14336.0,0.009394091553986073
end
