version,3.0
numOfCh,1
type,point
parent_name,8-cuts
ch_type,1_1
kcount,1
numberNandB,1
brightnessNandB,1
carpet pos,0
pc,0
Time (ms),CH1 Auto-Correlation
1.0,0.08931475877761841
2.0,0.08881516009569168
3.0,0.08831910043954849
4.0,0.08782721310853958
5.0,0.08734597265720367
6.0,0.0868658795952797
7.0,0.08638657629489899
8.0,0.08591517806053162
9.0,0.08543800562620163
10.0,0.08495303243398666
11.0,0.08448570221662521
12.0,0.08400386571884155
13.0,0.08351581543684006
14.0,0.08302829414606094
15.0,0.08254985511302948
16.0,0.08206652849912643
18.0,0.08110272139310837
20.0,0.08016005158424377
22.0,0.07927517592906952
24.0,0.07842260599136353
26.0,0.077605240046978
28.0,0.07680864632129669
30.0,0.07604196667671204
32.0,0.07527079433202744
36.0,0.07376658171415329
40.0,0.07234569638967514
44.0,0.07101517170667648
48.0,0.06969748437404633
52.0,0.06840220838785172
56.0,0.06718282401561737
60.0,0.06599859893321991
64.0,0.06481345742940903
72.0,0.06257268786430359
80.0,0.06025558337569237
88.0,0.057941727340221405
96.0,0.05588594824075699
104.0,0.05397159233689308
112.0,0.05215400829911232
120.0,0.050273504108190536
128.0,0.04844896122813225
144.0,0.045131999999284744
160.0,0.041898902505636215
176.0,0.03855128586292267
192.0,0.03510306775569916
208.0,0.03183027729392052
224.0,0.028473293408751488
240.0,0.02510574460029602
256.0,0.021656570956110954
288.0,0.01563595049083233
320.0,0.011851481162011623
352.0,0.010124152526259422
384.0,0.00810170080512762
416.0,0.00747660081833601
448.0,0.008058948442339897
480.0,0.00962122343480587
512.0,0.011367659084498882
576.0,0.012472446076571941
640.0,0.012401759624481201
704.0,0.013225824572145939
768.0,0.012105890549719334
832.0,0.008218086324632168
896.0,0.005906161852180958
960.0,0.0027548091020435095
1024.0,-0.00023734172282274812
1152.0,-0.0070623611100018024
1280.0,-0.008600583299994469
1408.0,-0.00961734727025032
1536.0,-0.01045631431043148
1664.0,-0.015137970447540283
1792.0,-0.01588921807706356
1920.0,-0.01570264995098114
2048.0,-0.012310690246522427
2304.0,-0.011777331121265888
2560.0,-0.010720103047788143
2816.0,0.0009196986211463809
3072.0,0.010474776849150658
3328.0,0.012822011485695839
3584.0,0.01550464890897274
3840.0,0.013333091512322426
4096.0,0.01508709043264389
4608.0,-0.007086725905537605
5120.0,-0.02335289865732193
5632.0,-0.023838333785533905
6144.0,-0.013129542581737041
6656.0,-0.003149573691189289
7168.0,0.0008408089051954448
7680.0,0.010241156443953514
8192.0,-0.002504803938791156
9216.0,-0.007316049188375473
10240.0,0.016750333830714226
11264.0,0.0069448091089725494
12288.0,-0.0030918626580387354
13312.0,0.011353148147463799
14336.0,0.01079582143574953
end
