version,3.0
numOfCh,1
type,point
parent_name,8-cuts
ch_type,1_1
kcount,1
numberNandB,1
brightnessNandB,1
carpet pos,0
pc,0
Time (ms),CH1 Auto-Correlation
1.0,0.09272956103086472
2.0,0.0921926274895668
3.0,0.09166963398456573
4.0,0.09116826206445694
5.0,0.09067879617214203
6.0,0.09018263965845108
7.0,0.08968721330165863
8.0,0.08918604254722595
9.0,0.08870267122983932
10.0,0.08823220431804657
11.0,0.08776889741420746
12.0,0.08732019364833832
13.0,0.08687439560890198
14.0,0.08641350269317627
15.0,0.08595122396945953
16.0,0.08548779040575027
18.0,0.08456684648990631
20.0,0.08365856856107712
22.0,0.08277913182973862
24.0,0.08190280944108963
26.0,0.0810299888253212
28.0,0.0802212506532669
30.0,0.07946238666772842
32.0,0.0787043422460556
36.0,0.0772462859749794
40.0,0.07587829977273941
44.0,0.07456391304731369
48.0,0.07328835129737854
52.0,0.07198390364646912
56.0,0.07072503119707108
60.0,0.06957494467496872
64.0,0.06841753423213959
72.0,0.06609359383583069
80.0,0.06375476717948914
88.0,0.061504557728767395
96.0,0.059300415217876434
104.0,0.05699918419122696
112.0,0.05469474941492081
120.0,0.05238211527466774
128.0,0.05031397193670273
144.0,0.04712099954485893
160.0,0.044620126485824585
176.0,0.04175979644060135
192.0,0.03881988674402237
208.0,0.03650772571563721
224.0,0.034332916140556335
240.0,0.032157354056835175
256.0,0.029943445697426796
288.0,0.02661980874836445
320.0,0.024334875866770744
352.0,0.022688699886202812
384.0,0.020852427929639816
416.0,0.019138021394610405
448.0,0.017153460532426834
480.0,0.014928294345736504
512.0,0.014611305668950081
576.0,0.01651705801486969
640.0,0.019288498908281326
704.0,0.016902482137084007
768.0,0.012342065572738647
832.0,0.008104207925498486
896.0,0.006807691417634487
960.0,0.007297571282833815
1024.0,0.004840100649744272
1152.0,-0.0017361369682475924
1280.0,-0.0041579389944672585
1408.0,-0.008676594123244286
1536.0,-0.012019394896924496
1664.0,-0.013793081045150757
1792.0,-0.012316632084548473
1920.0,-0.008158526383340359
2048.0,0.0005269055836834013
2304.0,-0.0065551334992051125
2560.0,-0.0033103018067777157
2816.0,0.001856472808867693
3072.0,0.00801430456340313
3328.0,0.008943251334130764
3584.0,0.004318171180784702
3840.0,-0.0010546392295509577
4096.0,-0.0021298909559845924
4608.0,-0.00803984422236681
5120.0,-0.016602376475930214
5632.0,-0.010436736047267914
6144.0,-0.0001418066822225228
6656.0,-0.0003684808616526425
7168.0,-0.0009629047708585858
7680.0,0.00848277099430561
8192.0,0.007405667100101709
9216.0,-0.015623549930751324
10240.0,-0.012346864677965641
11264.0,0.004406665917485952
12288.0,-0.02164463698863983
13312.0,-0.014717311598360538
14336.0,0.06249020993709564
end
