version,3.0
numOfCh,1
type,point
parent_name,8-cuts
ch_type,1_1
kcount,1
numberNandB,1
brightnessNandB,1
carpet pos,0
pc,0
Time (ms),CH1 Auto-Correlation
1.0,0.024153683334589005
2.0,0.02394808828830719
3.0,0.023744672536849976
4.0,0.023538392037153244
5.0,0.023337459191679955
6.0,0.023139456287026405
7.0,0.02294320799410343
8.0,0.02274656668305397
9.0,0.02255270443856716
10.0,0.02236638218164444
11.0,0.022183828055858612
12.0,0.021999379619956017
13.0,0.02181769534945488
14.0,0.02163081243634224
15.0,0.021446149796247482
16.0,0.021259045228362083
18.0,0.020879577845335007
20.0,0.0204975176602602
22.0,0.020121291279792786
24.0,0.019750120118260384
26.0,0.019386714324355125
28.0,0.019031669944524765
30.0,0.01868327520787716
32.0,0.01833745650947094
36.0,0.017692266032099724
40.0,0.017079342156648636
44.0,0.016507193446159363
48.0,0.015962323173880577
52.0,0.015449403785169125
56.0,0.014942774549126625
60.0,0.014458466321229935
64.0,0.013990414328873158
72.0,0.013086934573948383
80.0,0.012224821373820305
88.0,0.011368456296622753
96.0,0.010584820061922073
104.0,0.009930998086929321
112.0,0.0093236044049263
120.0,0.008793716318905354
128.0,0.008402751758694649
144.0,0.007701592054218054
160.0,0.007136869709938765
176.0,0.006648525130003691
192.0,0.006199474446475506
208.0,0.005867166444659233
224.0,0.0056757377460598946
240.0,0.005453875754028559
256.0,0.0051545025780797005
288.0,0.0045015523210167885
320.0,0.003503820626065135
352.0,0.0028718276880681515
384.0,0.002713835332542658
416.0,0.0022027073428034782
448.0,0.0017174341483041644
480.0,0.0013003417989239097
512.0,0.0009299377561546862
576.0,0.00021882320288568735
640.0,-0.0011397257912904024
704.0,-0.002825170522555709
768.0,-0.002131276996806264
832.0,-0.000929501315113157
896.0,-0.0015998571179807186
960.0,-0.0025625107809901237
1024.0,-0.00369429518468678
1152.0,-0.003391868667677045
1280.0,-0.003575296839699149
1408.0,-0.0029435802716761827
1536.0,-0.0023810758721083403
1664.0,-0.002963694976642728
1792.0,-0.002339192433282733
1920.0,-0.00029760741745121777
2048.0,-0.00037811254151165485
2304.0,-0.0009423025767318904
2560.0,0.0022796825505793095
2816.0,0.0007998694200068712
3072.0,-0.00022666809672955424
3328.0,0.0006746601429767907
3584.0,0.0021238031331449747
3840.0,0.0016250256448984146
4096.0,-0.0022284735459834337
4608.0,-0.0033821125980466604
5120.0,-0.0020842929370701313
5632.0,0.0037461111787706614
6144.0,0.0031312524806708097
6656.0,-0.0019632051698863506
7168.0,-0.0011610218789428473
7680.0,-0.0019771477673202753
8192.0,-0.0031383740715682507
9216.0,0.0014368232805281878
10240.0,-0.00019340465951245278
11264.0,-0.0008819191716611385
12288.0,0.0008766313549131155
13312.0,-0.0003473389078862965
14336.0,-0.00019484279619064182
end
