version,3.0
numOfCh,1
type,point
parent_name,8-cuts
ch_type,1_1
kcount,1
numberNandB,1
brightnessNandB,1
carpet pos,0
pc,0
Time (ms),CH1 Auto-Correlation
1.0,0.07648376375436783
2.0,0.07607754319906235
3.0,0.07567387074232101
4.0,0.07528341561555862
5.0,0.07489272952079773
6.0,0.07450581341981888
7.0,0.07411998510360718
8.0,0.07373668998479843
9.0,0.07335899770259857
10.0,0.07298077642917633
11.0,0.0726054385304451
12.0,0.07223457098007202
13.0,0.07186969369649887
14.0,0.07151159644126892
15.0,0.0711514800786972
16.0,0.07078216224908829
18.0,0.07007622718811035
20.0,0.06940824538469315
22.0,0.0687369853258133
24.0,0.06806933879852295
26.0,0.0674026682972908
28.0,0.06673460453748703
30.0,0.06608173251152039
32.0,0.06544049084186554
36.0,0.06418339908123016
40.0,0.06294109672307968
44.0,0.06172308698296547
48.0,0.06053541600704193
52.0,0.05941380187869072
56.0,0.0583513006567955
60.0,0.05731038376688957
64.0,0.05627231299877167
72.0,0.054255008697509766
80.0,0.05221017822623253
88.0,0.05036332085728645
96.0,0.04872096702456474
104.0,0.04718862473964691
112.0,0.045615240931510925
120.0,0.044114891439676285
128.0,0.04263189435005188
144.0,0.039718709886074066
160.0,0.036927733570337296
176.0,0.03469163924455643
192.0,0.03300830349326134
208.0,0.031744759529829025
224.0,0.030331872403621674
240.0,0.029296953231096268
256.0,0.028394123539328575
288.0,0.026446111500263214
320.0,0.024579420685768127
352.0,0.023817503824830055
384.0,0.023738617077469826
416.0,0.023945879191160202
448.0,0.02415642701089382
480.0,0.023152660578489304
512.0,0.022435598075389862
576.0,0.02117469534277916
640.0,0.01908724755048752
704.0,0.015819277614355087
768.0,0.012572290375828743
832.0,0.011076163500547409
896.0,0.010190718807280064
960.0,0.006105002481490374
1024.0,0.001174159930087626
1152.0,-0.0012299278751015663
1280.0,0.0029968845192342997
1408.0,0.003475300269201398
1536.0,0.003086893353611231
1664.0,0.0005808151327073574
1792.0,-0.00041237418190576136
1920.0,-0.003912563435733318
2048.0,-0.007449544500559568
2304.0,-0.008629601448774338
2560.0,-0.005554059520363808
2816.0,-0.006553024519234896
3072.0,-0.0044367085210978985
3328.0,-0.006878862623125315
3584.0,-0.012652411125600338
3840.0,-0.006112735718488693
4096.0,-4.8658763262210414e-05
4608.0,0.0104236314073205
5120.0,0.007146965712308884
5632.0,0.009093917906284332
6144.0,-0.0004927361151203513
6656.0,-0.014417179860174656
7168.0,-0.010332973673939705
7680.0,-0.013155371882021427
8192.0,-0.01937158778309822
9216.0,-0.01667861081659794
10240.0,-0.000673622649628669
11264.0,-0.004313284531235695
12288.0,0.015224129892885685
13312.0,0.001007578568533063
14336.0,4.362937488622265e-06
end
