version,3.0
numOfCh,1
type,point
parent_name,8-cuts
ch_type,1_1
kcount,1
numberNandB,1
brightnessNandB,1
carpet pos,0
pc,0
Time (ms),CH1 Auto-Correlation
1.0,0.03681070730090141
2.0,0.0365738645195961
3.0,0.036342598497867584
4.0,0.03611339256167412
5.0,0.03587932139635086
6.0,0.03564571589231491
7.0,0.03541494533419609
8.0,0.03518562763929367
9.0,0.03495953604578972
10.0,0.03474078327417374
11.0,0.03452648967504501
12.0,0.03430921211838722
13.0,0.03409222885966301
14.0,0.033879827708005905
15.0,0.033668819814920425
16.0,0.033455703407526016
18.0,0.03303428739309311
20.0,0.0326349213719368
22.0,0.032245390117168427
24.0,0.031865522265434265
26.0,0.031489741057157516
28.0,0.03112040087580681
30.0,0.030761169269680977
32.0,0.03040735051035881
36.0,0.02975250966846943
40.0,0.02912307158112526
44.0,0.028510790318250656
48.0,0.02791730873286724
52.0,0.02735818922519684
56.0,0.026853011921048164
60.0,0.02637426368892193
64.0,0.025924144312739372
72.0,0.02501976490020752
80.0,0.02410253882408142
88.0,0.023195143789052963
96.0,0.022284632548689842
104.0,0.021411577239632607
112.0,0.020554836839437485
120.0,0.019667383283376694
128.0,0.018837718293070793
144.0,0.017104975879192352
160.0,0.015444986522197723
176.0,0.013899419456720352
192.0,0.012619396671652794
208.0,0.01139309722930193
224.0,0.010120798833668232
240.0,0.008987173438072205
256.0,0.007700660265982151
288.0,0.005817165598273277
320.0,0.004627443850040436
352.0,0.003423911053687334
384.0,0.0028299950063228607
416.0,0.002872952027246356
448.0,0.002731946762651205
480.0,0.0026210835203528404
512.0,0.00252986210398376
576.0,0.0015194232109934092
640.0,-0.00012032511585857719
704.0,-0.000513326667714864
768.0,-0.00036178051959723234
832.0,-0.0002108936314471066
896.0,0.0008556806715205312
960.0,0.002646454842761159
1024.0,0.004356967750936747
1152.0,0.006014734506607056
1280.0,0.003701866837218404
1408.0,0.0005862631369382143
1536.0,-0.00015536950377281755
1664.0,0.000581417407374829
1792.0,0.0017639658180996776
1920.0,0.00077726726885885
2048.0,0.0018348845187574625
2304.0,0.001247718115337193
2560.0,-0.0016535620670765638
2816.0,0.0012491565430536866
3072.0,-0.001988994888961315
3328.0,-0.004910790827125311
3584.0,-0.004862501285970211
3840.0,-0.0021368227899074554
4096.0,0.00015144383360166103
4608.0,-0.0015025530010461807
5120.0,-0.0066721620969474316
5632.0,-0.005135900340974331
6144.0,-0.0037307841703295708
6656.0,0.002146950690075755
7168.0,-0.0028611256275326014
7680.0,-0.002660744823515415
8192.0,-0.0047481185756623745
9216.0,0.0009469232754781842
10240.0,0.0024599903263151646
11264.0,0.0032292099203914404
12288.0,-0.0027940417639911175
13312.0,0.005132270511239767
14336.0,-0.0020320862531661987
end
