version,3.0
numOfCh,1
type,point
parent_name,8-cuts
ch_type,1_1
kcount,1
numberNandB,1
brightnessNandB,1
carpet pos,0
pc,0
Time (ms),CH1 Auto-Correlation
1.0,0.050370220094919205
2.0,0.049953874200582504
3.0,0.0495375394821167
4.0,0.049124982208013535
5.0,0.048704445362091064
6.0,0.04828042536973953
7.0,0.04786970093846321
8.0,0.04747087508440018
9.0,0.04707875847816467
10.0,0.0466947928071022
11.0,0.04631340876221657
12.0,0.04593523591756821
13.0,0.0455697625875473
14.0,0.04520399868488312
15.0,0.04484511911869049
16.0,0.044497501105070114
18.0,0.0437997505068779
20.0,0.04310317710042
22.0,0.04241306334733963
24.0,0.041739802807569504
26.0,0.04109511151909828
28.0,0.04046982154250145
30.0,0.039846111088991165
32.0,0.039220210164785385
36.0,0.03798973187804222
40.0,0.0368502251803875
44.0,0.03572278097271919
48.0,0.03461872413754463
52.0,0.033552467823028564
56.0,0.03256906196475029
60.0,0.03161739930510521
64.0,0.030650192871689796
72.0,0.028835982084274292
80.0,0.02719559334218502
88.0,0.025727808475494385
96.0,0.024501949548721313
104.0,0.023366285488009453
112.0,0.022252369672060013
120.0,0.021085845306515694
128.0,0.0198165662586689
144.0,0.01752319000661373
160.0,0.015484311617910862
176.0,0.013818311505019665
192.0,0.01204205397516489
208.0,0.010580510832369328
224.0,0.009183061309158802
240.0,0.007998713292181492
256.0,0.00691911019384861
288.0,0.005089203827083111
320.0,0.003687379416078329
352.0,0.0028514829464256763
384.0,0.0015707260463386774
416.0,3.2014999305829406e-05
448.0,-0.0009902995079755783
480.0,-0.0015021611470729113
512.0,-0.00188247871119529
576.0,-0.0038414865266531706
640.0,-0.0035495301708579063
704.0,-0.0015753941843286157
768.0,-3.560272671165876e-05
832.0,0.003565551247447729
896.0,0.006507228594273329
960.0,0.009471635334193707
1024.0,0.009626775048673153
1152.0,0.00438279751688242
1280.0,0.0026037150528281927
1408.0,-0.0005994498496875167
1536.0,-0.0009427291806787252
1664.0,-0.0010771214729174972
1792.0,-0.001653912477195263
1920.0,-0.001901410985738039
2048.0,-0.00573310861364007
2304.0,-0.002934581134468317
2560.0,0.003839067881926894
2816.0,0.0007430902915075421
3072.0,-0.005154578480869532
3328.0,0.0018792087212204933
3584.0,0.007419051136821508
3840.0,6.4159130488405935e-06
4096.0,0.0013692073989659548
4608.0,0.007673652842640877
5120.0,-0.003830443602055311
5632.0,-0.004839250817894936
6144.0,-0.0035705119371414185
6656.0,-0.0074883862398564816
7168.0,0.0026722014881670475
7680.0,0.0012520571472123265
8192.0,0.0019406378269195557
9216.0,-0.0048387618735432625
10240.0,-0.0013948086416348815
11264.0,0.0012646352406591177
12288.0,0.0003053931286558509
13312.0,-0.008325660601258278
14336.0,-0.013324931263923645
end
