version,3.0
numOfCh,1
type,point
parent_name,8-cuts
ch_type,1_1
kcount,1
numberNandB,1
brightnessNandB,1
carpet pos,0
pc,0
Time (ms),CH1 Auto-Correlation
1.0,0.12101903557777405
2.0,0.12037789076566696
3.0,0.11974003911018372
4.0,0.1191226989030838
5.0,0.11849688738584518
6.0,0.11786310374736786
7.0,0.1172402873635292
8.0,0.11662433296442032
9.0,0.11600343137979507
10.0,0.1153644546866417
11.0,0.11471796035766602
12.0,0.11406420916318893
13.0,0.11340627074241638
14.0,0.11276809871196747
15.0,0.11214014142751694
16.0,0.11151684820652008
18.0,0.11026700586080551
20.0,0.10900058597326279
22.0,0.10775993764400482
24.0,0.10655311495065689
26.0,0.1053905114531517
28.0,0.10424921661615372
30.0,0.10315359383821487
32.0,0.10213080048561096
36.0,0.10017629712820053
40.0,0.0983676090836525
44.0,0.09666237235069275
48.0,0.09504777938127518
52.0,0.09354471415281296
56.0,0.0920819491147995
60.0,0.09058336913585663
64.0,0.08909539133310318
72.0,0.08616302162408829
80.0,0.0833490863442421
88.0,0.08076327294111252
96.0,0.0783599242568016
104.0,0.0758761316537857
112.0,0.07335085421800613
120.0,0.0709991380572319
128.0,0.0688236728310585
144.0,0.06522669643163681
160.0,0.06255177408456802
176.0,0.05957319959998131
192.0,0.0564868338406086
208.0,0.05384153500199318
224.0,0.05118099972605705
240.0,0.04823123291134834
256.0,0.04567824676632881
288.0,0.04091138765215874
320.0,0.035863399505615234
352.0,0.029668942093849182
384.0,0.023770401254296303
416.0,0.01759054698050022
448.0,0.01196478120982647
480.0,0.007550786715000868
512.0,0.0021516699343919754
576.0,-0.006462572142481804
640.0,-0.013571536168456078
704.0,-0.01653382182121277
768.0,-0.017006592825055122
832.0,-0.02004748024046421
896.0,-0.021932749077677727
960.0,-0.022344060242176056
1024.0,-0.01922697201371193
1152.0,-0.01252828910946846
1280.0,-0.004525838419795036
1408.0,-9.33842093218118e-05
1536.0,-0.001398104359395802
1664.0,0.0013405061326920986
1792.0,0.005398287903517485
1920.0,0.01277500856667757
2048.0,0.015266395173966885
2304.0,0.014123701490461826
2560.0,0.006976183969527483
2816.0,-0.006314006168395281
3072.0,-0.021031923592090607
3328.0,-0.02112964354455471
3584.0,-0.012617459520697594
3840.0,-0.0003807053726632148
4096.0,9.866245090961456e-05
4608.0,-0.006655234377831221
5120.0,0.004015257116407156
5632.0,-0.0004296892147976905
6144.0,-0.0006590004777535796
6656.0,-0.010831249877810478
7168.0,0.010438908822834492
7680.0,0.022568052634596825
8192.0,-0.014776783064007759
9216.0,-0.007337478455156088
10240.0,-0.015011432580649853
11264.0,-0.014541770331561565
12288.0,0.013715796172618866
13312.0,0.013729588128626347
14336.0,0.018125150352716446
end
