version,3.0
numOfCh,1
type,point
parent_name,8-cuts
ch_type,1_1
kcount,1
numberNandB,1
brightnessNandB,1
carpet pos,0
pc,0
Time (ms),CH1 Auto-Correlation
1.0,0.030572393909096718
2.0,0.030365390703082085
3.0,0.030159277841448784
4.0,0.0299567561596632
5.0,0.029752468690276146
6.0,0.02954595535993576
7.0,0.029339361935853958
8.0,0.02913586236536503
9.0,0.028936654329299927
10.0,0.028739023953676224
11.0,0.02853960171341896
12.0,0.02834312804043293
13.0,0.02814394049346447
14.0,0.027939049527049065
15.0,0.027742674574255943
16.0,0.027550147846341133
18.0,0.027178335934877396
20.0,0.026812024414539337
22.0,0.026451120153069496
24.0,0.026090115308761597
26.0,0.025737307965755463
28.0,0.0253981351852417
30.0,0.02506929077208042
32.0,0.02473609708249569
36.0,0.024131298065185547
40.0,0.02355542778968811
44.0,0.02301330491900444
48.0,0.022515946999192238
52.0,0.02202749438583851
56.0,0.02152782306075096
60.0,0.021048644557595253
64.0,0.020599370822310448
72.0,0.019823256880044937
80.0,0.01920716091990471
88.0,0.018673382699489594
96.0,0.018176758661866188
104.0,0.01770777441561222
112.0,0.017230281606316566
120.0,0.016825711354613304
128.0,0.016520485281944275
144.0,0.015701593831181526
160.0,0.014714725315570831
176.0,0.013894467614591122
192.0,0.013446442782878876
208.0,0.013054431416094303
224.0,0.012626705691218376
240.0,0.012465915642678738
256.0,0.012223890982568264
288.0,0.011598078534007072
320.0,0.011108803562819958
352.0,0.010408908128738403
384.0,0.009611826390028
416.0,0.008622683584690094
448.0,0.007503571920096874
480.0,0.005996274296194315
512.0,0.004831206053495407
576.0,0.003841368481516838
640.0,0.0038724741898477077
704.0,0.003484579036012292
768.0,0.0033435302320867777
832.0,0.0028506603557616472
896.0,0.0021700914949178696
960.0,0.0008004392147995532
1024.0,-0.00035373264108784497
1152.0,-0.0004240631533320993
1280.0,-0.0009232302545569837
1408.0,-0.0015638386830687523
1536.0,-0.0013342436868697405
1664.0,-0.001793003175407648
1792.0,-0.0021313270553946495
1920.0,-0.0034062329214066267
2048.0,-0.004681706894189119
2304.0,-0.008504027500748634
2560.0,-0.00831927452236414
2816.0,-0.008620506152510643
3072.0,-0.00792667269706726
3328.0,-0.008452899754047394
3584.0,-0.007369819562882185
3840.0,-0.004740801639854908
4096.0,-0.0008252662955783308
4608.0,0.00328018213622272
5120.0,0.004357694182544947
5632.0,0.007907857187092304
6144.0,0.007692831102758646
6656.0,0.0004587416478898376
7168.0,-0.0006590554839931428
7680.0,-0.0030247627291828394
8192.0,-0.004011091776192188
9216.0,0.0007520174840465188
10240.0,-0.0020476733334362507
11264.0,-0.0013042839709669352
12288.0,0.00039156273123808205
13312.0,-0.0015159545000642538
14336.0,0.00849212147295475
end
