version,3.0
numOfCh,1
type,point
parent_name,8-cuts
ch_type,1_1
kcount,1
numberNandB,1
brightnessNandB,1
carpet pos,0
pc,0
Time (ms),CH1 Auto-Correlation
1.0,0.07150830328464508
2.0,0.07092974334955215
3.0,0.07036492228507996
4.0,0.06982126086950302
5.0,0.06928063184022903
6.0,0.06875798106193542
7.0,0.06822606176137924
8.0,0.06771613657474518
9.0,0.06721953302621841
10.0,0.06674284487962723
11.0,0.06628444790840149
12.0,0.06583753973245621
13.0,0.06539434939622879
14.0,0.06493774056434631
15.0,0.06448305398225784
16.0,0.06403273344039917
18.0,0.06312818825244904
20.0,0.062238018959760666
22.0,0.061369527131319046
24.0,0.06053068861365318
26.0,0.059693846851587296
28.0,0.058846365660429
30.0,0.05798855051398277
32.0,0.05718528851866722
36.0,0.05570291727781296
40.0,0.05425778031349182
44.0,0.05284343659877777
48.0,0.05151912197470665
52.0,0.050269853323698044
56.0,0.049102533608675
60.0,0.04801877588033676
64.0,0.0469651035964489
72.0,0.04509006068110466
80.0,0.043576180934906006
88.0,0.04209533706307411
96.0,0.04078830033540726
104.0,0.03951722010970116
112.0,0.03826553001999855
120.0,0.037041857838630676
128.0,0.035992491990327835
144.0,0.03404911980032921
160.0,0.03224366903305054
176.0,0.03041095845401287
192.0,0.02829531580209732
208.0,0.026578720659017563
224.0,0.025183990597724915
240.0,0.024373363703489304
256.0,0.023889850825071335
288.0,0.021803423762321472
320.0,0.019084973260760307
352.0,0.017361482605338097
384.0,0.01537221111357212
416.0,0.014464562758803368
448.0,0.014363473281264305
480.0,0.013783485628664494
512.0,0.01384827308356762
576.0,0.012057945132255554
640.0,0.012216862291097641
704.0,0.011526431888341904
768.0,0.009150775149464607
832.0,0.009240170940756798
896.0,0.010771864093840122
960.0,0.01103241927921772
1024.0,0.011025507934391499
1152.0,0.00888900924474001
1280.0,0.005978824105113745
1408.0,0.00387389212846756
1536.0,-0.0014648736687377095
1664.0,-0.005667855963110924
1792.0,-0.006604607682675123
1920.0,-0.0048829056322574615
2048.0,-0.005580427125096321
2304.0,-0.013280664570629597
2560.0,-0.01136468630284071
2816.0,-0.009650064632296562
3072.0,-0.007673317566514015
3328.0,-0.007744829636067152
3584.0,-0.0013530536089092493
3840.0,-0.0030714799650013447
4096.0,-0.0004667942994274199
4608.0,-0.0003685354604385793
5120.0,0.0021434095688164234
5632.0,-0.0002906353329308331
6144.0,-0.002440381096675992
6656.0,-0.002898512175306678
7168.0,-0.0005927368183620274
7680.0,0.003696890315040946
8192.0,-0.009022745303809643
9216.0,-0.00443261256441474
10240.0,-0.002162835095077753
11264.0,-0.007965192198753357
12288.0,-0.002238859422504902
13312.0,0.011550228111445904
14336.0,0.0004597629886120558
end
