version,3.0
numOfCh,1
type,point
parent_name,8-cuts
ch_type,1_1
kcount,1
numberNandB,1
brightnessNandB,1
carpet pos,0
pc,0
Time (ms),CH1 Auto-Correlation
1.0,0.10131638497114182
2.0,0.10069840401411057
3.0,0.10008829832077026
4.0,0.09948375821113586
5.0,0.09889586269855499
6.0,0.09830531477928162
7.0,0.09772370755672455
8.0,0.09715507924556732
9.0,0.09660182148218155
10.0,0.09604178369045258
11.0,0.095500148832798
12.0,0.0949622169137001
13.0,0.09444010257720947
14.0,0.09390977770090103
15.0,0.09338335692882538
16.0,0.09285198897123337
18.0,0.09185092896223068
20.0,0.09088712930679321
22.0,0.08994333446025848
24.0,0.08900425583124161
26.0,0.08809759467840195
28.0,0.08719874173402786
30.0,0.08628983795642853
32.0,0.08539287000894547
36.0,0.08362894505262375
40.0,0.08190643787384033
44.0,0.0802370086312294
48.0,0.07863624393939972
52.0,0.07705796509981155
56.0,0.0756157636642456
60.0,0.07432139664888382
64.0,0.07304419577121735
72.0,0.07060045003890991
80.0,0.0681956559419632
88.0,0.0658435970544815
96.0,0.06345316022634506
104.0,0.06118099391460419
112.0,0.0592438243329525
120.0,0.05764440819621086
128.0,0.05603228509426117
144.0,0.052940212190151215
160.0,0.04989277571439743
176.0,0.04661618545651436
192.0,0.043216630816459656
208.0,0.04043066129088402
224.0,0.038326554000377655
240.0,0.03631613403558731
256.0,0.0342523567378521
288.0,0.03310524672269821
320.0,0.033606790006160736
352.0,0.03279249370098114
384.0,0.03046843595802784
416.0,0.028660325333476067
448.0,0.027127383276820183
480.0,0.024922490119934082
512.0,0.021674862131476402
576.0,0.017290255054831505
640.0,0.01634274609386921
704.0,0.01644488051533699
768.0,0.015471885912120342
832.0,0.013737193308770657
896.0,0.011429025791585445
960.0,0.008715027943253517
1024.0,0.00711664417758584
1152.0,0.003927971236407757
1280.0,-0.002502784598618746
1408.0,-0.007677997928112745
1536.0,-0.009883062914013863
1664.0,-0.01456991396844387
1792.0,-0.01895914040505886
1920.0,-0.020515987649559975
2048.0,-0.017470194026827812
2304.0,-0.011015168391168118
2560.0,-0.009897560812532902
2816.0,-0.010313278995454311
3072.0,-0.013366618193686008
3328.0,-0.00999899860471487
3584.0,0.007267100270837545
3840.0,0.012494070455431938
4096.0,0.008128445595502853
4608.0,0.004983351565897465
5120.0,-0.00038342687184922397
5632.0,-0.013210958801209927
6144.0,-0.0176878422498703
6656.0,-0.02598285861313343
7168.0,-0.020169390365481377
7680.0,-0.005757329519838095
8192.0,0.006725827232003212
9216.0,0.009439480490982533
10240.0,0.0018171090632677078
11264.0,0.00037131583667360246
12288.0,0.012188361957669258
13312.0,-0.006406992673873901
14336.0,-0.0013510409044101834
end
