version,3.0
numOfCh,1
type,point
parent_name,8-cuts
ch_type,1_1
kcount,1
numberNandB,1
brightnessNandB,1
carpet pos,0
pc,0
Time (ms),CH1 Auto-Correlation
1.0,0.02282627485692501
2.0,0.022611534222960472
3.0,0.022399231791496277
4.0,0.02218971960246563
5.0,0.02198437601327896
6.0,0.021774129942059517
7.0,0.02155953273177147
8.0,0.02134653553366661
9.0,0.021137302741408348
10.0,0.020927339792251587
11.0,0.020716482773423195
12.0,0.02051103301346302
13.0,0.020300913602113724
14.0,0.020090587437152863
15.0,0.01988673023879528
16.0,0.019685138016939163
18.0,0.019296979531645775
20.0,0.018907688558101654
22.0,0.018521679565310478
24.0,0.01815270446240902
26.0,0.01779257319867611
28.0,0.017443036660552025
30.0,0.01710100658237934
32.0,0.01676546037197113
36.0,0.01610242761671543
40.0,0.015474089421331882
44.0,0.014871174469590187
48.0,0.014286225661635399
52.0,0.013741451315581799
56.0,0.013236730359494686
60.0,0.012743658386170864
64.0,0.01225060410797596
72.0,0.01138891838490963
80.0,0.010634020902216434
88.0,0.00994571577757597
96.0,0.00935435015708208
104.0,0.008895020931959152
112.0,0.00854539405554533
120.0,0.008280282840132713
128.0,0.008149640634655952
144.0,0.007876858115196228
160.0,0.007153401151299477
176.0,0.006341180764138699
192.0,0.0054956357926130295
208.0,0.00477592134848237
224.0,0.0043252198956906796
240.0,0.003958453889936209
256.0,0.003553877817466855
288.0,0.002917290898039937
320.0,0.002350045368075371
352.0,0.0015419591218233109
384.0,0.0010651707416400313
416.0,0.0007882922072894871
448.0,0.0003691802849061787
480.0,-0.0004650810151360929
512.0,-0.0013168731238692999
576.0,-0.0028698162641376257
640.0,-0.003788568079471588
704.0,-0.0035608839243650436
768.0,-0.003405461786314845
832.0,-0.0033046486787497997
896.0,-0.0010258553083986044
960.0,-8.551250357413664e-05
1024.0,-0.000153670203872025
1152.0,-0.0007423676433973014
1280.0,-0.0008098836988210678
1408.0,9.445659816265106e-05
1536.0,2.944940933957696e-05
1664.0,-0.00022065297525841743
1792.0,0.00012776762014254928
1920.0,0.0026308728847652674
2048.0,0.0027332445606589317
2304.0,0.00348590686917305
2560.0,0.002300855005159974
2816.0,5.699074608855881e-05
3072.0,-0.00303450645878911
3328.0,-0.0029264537151902914
3584.0,0.00011955162335652858
3840.0,0.0025402624160051346
4096.0,0.0030824285931885242
4608.0,-0.0003573553403839469
5120.0,-0.0024189043324440718
5632.0,-0.003567610401660204
6144.0,0.0005308333784341812
6656.0,-0.0007416583248414099
7168.0,-0.0029755132272839546
7680.0,-0.0019283870933577418
8192.0,0.0002022243570536375
9216.0,-0.0029694947879761457
10240.0,0.0011086099548265338
11264.0,1.8404245565761812e-05
12288.0,0.0006109699024818838
13312.0,0.001130688819102943
14336.0,0.0023760111071169376
end
