version,3.0
numOfCh,1
type,point
parent_name,8-cuts
ch_type,1_1
kcount,1
numberNandB,1
brightnessNandB,1
carpet pos,0
pc,0
Time (ms),CH1 Auto-Correlation
1.0,0.08839651197195053
2.0,0.08776991814374924
3.0,0.08714991807937622
4.0,0.08655785024166107
5.0,0.08596757054328918
6.0,0.08538886159658432
7.0,0.08480939269065857
8.0,0.08423063158988953
9.0,0.08365343511104584
10.0,0.08306507021188736
11.0,0.08248511701822281
12.0,0.08190757781267166
13.0,0.08132627606391907
14.0,0.08074294775724411
15.0,0.08018917590379715
16.0,0.0796525627374649
18.0,0.0786045491695404
20.0,0.07756823301315308
22.0,0.07654418796300888
24.0,0.07554008066654205
26.0,0.07456614822149277
28.0,0.07361169904470444
30.0,0.07267390936613083
32.0,0.0718313679099083
36.0,0.0701562762260437
40.0,0.06853393465280533
44.0,0.06696060299873352
48.0,0.06541507691144943
52.0,0.06398572772741318
56.0,0.06258471310138702
60.0,0.06117936223745346
64.0,0.05980993062257767
72.0,0.05733135715126991
80.0,0.05506657063961029
88.0,0.05301263555884361
96.0,0.05092255398631096
104.0,0.04882644861936569
112.0,0.04679349437355995
120.0,0.044700246304273605
128.0,0.04253513738512993
144.0,0.03877963125705719
160.0,0.035725027322769165
176.0,0.03307611495256424
192.0,0.030914923176169395
208.0,0.02944520302116871
224.0,0.028095487505197525
240.0,0.026828939095139503
256.0,0.025492636486887932
288.0,0.023847443982958794
320.0,0.02289828658103943
352.0,0.0218190997838974
384.0,0.019971415400505066
416.0,0.017585469409823418
448.0,0.014217279851436615
480.0,0.011715411208570004
512.0,0.010664024390280247
576.0,0.011140593327581882
640.0,0.0073384311981499195
704.0,0.0017391114961355925
768.0,-0.0016440525650978088
832.0,-0.0013463563518598676
896.0,-0.0005405836855061352
960.0,-0.0004854863218497485
1024.0,4.94210580654908e-05
1152.0,0.002821508329361677
1280.0,0.002027889247983694
1408.0,1.6183703337446786e-05
1536.0,-0.004074240569025278
1664.0,-0.008573286235332489
1792.0,-0.010572521947324276
1920.0,-0.009195609018206596
2048.0,-0.0077482848428189754
2304.0,-0.0034554372541606426
2560.0,-0.0017838699277490377
2816.0,-0.006530473940074444
3072.0,-0.011586744338274002
3328.0,-0.012379439547657967
3584.0,-0.004430030472576618
3840.0,-0.008286405354738235
4096.0,-0.02025437541306019
4608.0,-0.006543882191181183
5120.0,0.006459095980972052
5632.0,0.009617332369089127
6144.0,-0.0030808979645371437
6656.0,-0.008754709735512733
7168.0,-0.003911976702511311
7680.0,0.00597451301291585
8192.0,0.0027592533733695745
9216.0,0.0063278162851929665
10240.0,0.0038926508277654648
11264.0,-0.002911811927333474
12288.0,0.0020605085883289576
13312.0,-0.002672472968697548
14336.0,0.0018373881466686726
end
