version,3.0
numOfCh,1
type,point
parent_name,8-cuts
ch_type,1_1
kcount,1
numberNandB,1
brightnessNandB,1
carpet pos,0
pc,0
Time (ms),CH1 Auto-Correlation
1.0,0.05452162027359009
2.0,0.05409596115350723
3.0,0.0536721795797348
4.0,0.053253404796123505
5.0,0.052830182015895844
6.0,0.05242690443992615
7.0,0.05203377082943916
8.0,0.05164368823170662
9.0,0.05124758929014206
10.0,0.0508560910820961
11.0,0.050478495657444
12.0,0.050100453197956085
13.0,0.049731072038412094
14.0,0.049364734441041946
15.0,0.04900994151830673
16.0,0.048659853637218475
18.0,0.04798475280404091
20.0,0.0473039485514164
22.0,0.04662712290883064
24.0,0.045951321721076965
26.0,0.045267701148986816
28.0,0.044571638107299805
30.0,0.043888453394174576
32.0,0.0432453453540802
36.0,0.04211213439702988
40.0,0.04102352261543274
44.0,0.03998385742306709
48.0,0.038972802460193634
52.0,0.037993915379047394
56.0,0.03702855110168457
60.0,0.036060381680727005
64.0,0.03511616960167885
72.0,0.03328736126422882
80.0,0.03167818859219551
88.0,0.030310681089758873
96.0,0.029031679034233093
104.0,0.027728812769055367
112.0,0.026417236775159836
120.0,0.025284454226493835
128.0,0.02424645982682705
144.0,0.02216816507279873
160.0,0.02012789063155651
176.0,0.01886642724275589
192.0,0.017986971884965897
208.0,0.016728386282920837
224.0,0.015291149728000164
240.0,0.014113797806203365
256.0,0.013325372710824013
288.0,0.012741011567413807
320.0,0.011898184195160866
352.0,0.010101642459630966
384.0,0.007389837875962257
416.0,0.004568953532725573
448.0,0.002145012142136693
480.0,0.0021143690682947636
512.0,0.0017873471369966865
576.0,-0.0005653231637552381
640.0,0.0005200337618589401
704.0,0.0029779449105262756
768.0,0.003042146097868681
832.0,0.0029293557163327932
896.0,0.0033767595887184143
960.0,0.00501477625221014
1024.0,0.005004237871617079
1152.0,0.0004876473103649914
1280.0,0.0010377856669947505
1408.0,-0.00028086642851121724
1536.0,-0.0009437409462407231
1664.0,0.00033417303347960114
1792.0,-0.002716361777856946
1920.0,-0.004134487826377153
2048.0,-0.0029400240164250135
2304.0,-0.0095386803150177
2560.0,-0.006486712023615837
2816.0,0.00040239744703285396
3072.0,0.004271038807928562
3328.0,0.006123748607933521
3584.0,-0.0017453363398090005
3840.0,-0.0022767616901546717
4096.0,0.0024704812094569206
4608.0,-0.0006485541816800833
5120.0,0.007430597208440304
5632.0,-0.002594904974102974
6144.0,-1.823786078603007e-05
6656.0,-0.002157327253371477
7168.0,0.0017374524613842368
7680.0,-0.004805086646229029
8192.0,-0.000402569305151701
9216.0,-0.0003691139863803983
10240.0,-0.00045235268771648407
11264.0,-0.012944470159709454
12288.0,-0.0019340019207447767
13312.0,-0.001678287168033421
14336.0,-0.021119775250554085
end
