version,3.0
numOfCh,1
type,point
parent_name,8-cuts
ch_type,1_1
kcount,1
numberNandB,1
brightnessNandB,1
carpet pos,0
pc,0
Time (ms),CH1 Auto-Correlation
1.0,0.05130087956786156
2.0,0.050925012677907944
3.0,0.05054554343223572
4.0,0.05017761513590813
5.0,0.04980942979454994
6.0,0.049445558339357376
7.0,0.04907091334462166
8.0,0.04869639873504639
9.0,0.04833059385418892
10.0,0.047963179647922516
11.0,0.047603342682123184
12.0,0.04725677892565727
13.0,0.04691239818930626
14.0,0.046574369072914124
15.0,0.04624789580702782
16.0,0.045925430953502655
18.0,0.045287616550922394
20.0,0.04465995356440544
22.0,0.04403895512223244
24.0,0.043445244431495667
26.0,0.04286472126841545
28.0,0.042307741940021515
30.0,0.04176429286599159
32.0,0.04123982414603233
36.0,0.04024858772754669
40.0,0.03925207257270813
44.0,0.03827907517552376
48.0,0.03732198476791382
52.0,0.0364186093211174
56.0,0.03556833416223526
60.0,0.0347895510494709
64.0,0.03405575081706047
72.0,0.032589469105005264
80.0,0.0312768891453743
88.0,0.030205272138118744
96.0,0.029303286224603653
104.0,0.028447402641177177
112.0,0.02761053666472435
120.0,0.02675825171172619
128.0,0.02576584555208683
144.0,0.02351929061114788
160.0,0.021529851481318474
176.0,0.020203780382871628
192.0,0.019333019852638245
208.0,0.018759476020932198
224.0,0.01816415786743164
240.0,0.017479242756962776
256.0,0.01677263155579567
288.0,0.015403570607304573
320.0,0.013795546256005764
352.0,0.012436458840966225
384.0,0.01133186649531126
416.0,0.010691991075873375
448.0,0.009971867315471172
480.0,0.00882488302886486
512.0,0.007768642157316208
576.0,0.004822667222470045
640.0,0.003912098705768585
704.0,0.004637713078409433
768.0,0.005470523610711098
832.0,0.004421742167323828
896.0,0.00467902235686779
960.0,0.006635899655520916
1024.0,0.009225582703948021
1152.0,0.009636219590902328
1280.0,0.011647190898656845
1408.0,0.012578228488564491
1536.0,0.01229807548224926
1664.0,0.01065679918974638
1792.0,0.0094875143840909
1920.0,0.005102264229208231
2048.0,0.006564730312675238
2304.0,0.00640882970765233
2560.0,0.007829527370631695
2816.0,0.004314057063311338
3072.0,-0.0005586862098425627
3328.0,-0.003996212035417557
3584.0,-0.0015118314186111093
3840.0,0.000744324759580195
4096.0,0.0021697634365409613
4608.0,6.26419423497282e-05
5120.0,-0.004308567848056555
5632.0,-0.008289500139653683
6144.0,-0.005054848734289408
6656.0,-0.011440537869930267
7168.0,-0.007624925579875708
7680.0,-0.00847690925002098
8192.0,-0.015006677247583866
9216.0,-0.004586366470903158
10240.0,-0.006774818059056997
11264.0,-0.00397798465564847
12288.0,-0.0035647752229124308
13312.0,-0.0024431978818029165
14336.0,-0.001981204142794013
end
