version,3.0
numOfCh,1
type,point
parent_name,8-cuts
ch_type,1_1
kcount,1
numberNandB,1
brightnessNandB,1
carpet pos,0
pc,0
Time (ms),CH1 Auto-Correlation
1.0,0.05923645943403244
2.0,0.0587434247136116
3.0,0.058264829218387604
4.0,0.057793762534856796
5.0,0.057323891669511795
6.0,0.05684979632496834
7.0,0.05638084560632706
8.0,0.05591215565800667
9.0,0.055446695536375046
10.0,0.05499564856290817
11.0,0.0545501634478569
12.0,0.05410013720393181
13.0,0.05365703999996185
14.0,0.05321726202964783
15.0,0.05277560278773308
16.0,0.05233444273471832
18.0,0.051482412964105606
20.0,0.05062276870012283
22.0,0.049778636544942856
24.0,0.04894182085990906
26.0,0.048115119338035583
28.0,0.047278597950935364
30.0,0.046440452337265015
32.0,0.045598406344652176
36.0,0.04397788643836975
40.0,0.04242212325334549
44.0,0.04089776426553726
48.0,0.039521243423223495
52.0,0.038220860064029694
56.0,0.036921482533216476
60.0,0.035701483488082886
64.0,0.034611981362104416
72.0,0.03262358903884888
80.0,0.030899880453944206
88.0,0.029400097206234932
96.0,0.027881836518645287
104.0,0.0265089999884367
112.0,0.02544402703642845
120.0,0.024425040930509567
128.0,0.02348427288234234
144.0,0.021558020263910294
160.0,0.01980966329574585
176.0,0.018386125564575195
192.0,0.0176515132188797
208.0,0.016625938937067986
224.0,0.015260792337357998
240.0,0.014219018630683422
256.0,0.013134628534317017
288.0,0.010906004346907139
320.0,0.00844865757972002
352.0,0.006054105702787638
384.0,0.004495976958423853
416.0,0.002384949242696166
448.0,0.0003178364713676274
480.0,-0.0010261950083076954
512.0,-0.0019298364641144872
576.0,-0.005401088856160641
640.0,-0.00761690828949213
704.0,-0.007855470292270184
768.0,-0.007651041261851788
832.0,-0.009048396721482277
896.0,-0.009879648685455322
960.0,-0.008497422561049461
1024.0,-0.005718078929930925
1152.0,-0.007831880822777748
1280.0,-0.008942491374909878
1408.0,-0.009007160551846027
1536.0,-0.0072492132894694805
1664.0,-0.00508155720308423
1792.0,-0.004741002805531025
1920.0,-0.005041658878326416
2048.0,-0.0007685307646170259
2304.0,0.0027569872327148914
2560.0,0.00464307377114892
2816.0,-0.001389878336340189
3072.0,-0.003156735096126795
3328.0,0.0009858757257461548
3584.0,0.007251279894262552
3840.0,0.006770683918148279
4096.0,-0.00047738669672980905
4608.0,0.0007482719956897199
5120.0,-0.004310420248657465
5632.0,-0.00944287609308958
6144.0,-0.003486903151497245
6656.0,0.006530305370688438
7168.0,0.007028117310255766
7680.0,-0.0032154449727386236
8192.0,-0.00541339349001646
9216.0,0.0033844264689832926
10240.0,-0.0038558044470846653
11264.0,0.004357671365141869
12288.0,0.0013448998797684908
13312.0,-0.005640744231641293
14336.0,0.0034653954207897186
end
