version,3.0
numOfCh,1
type,point
parent_name,8-cuts
ch_type,1_1
kcount,1
numberNandB,1
brightnessNandB,1
carpet pos,0
pc,0
Time (ms),CH1 Auto-Correlation
1.0,0.09185490012168884
2.0,0.0912351980805397
3.0,0.09062380343675613
4.0,0.09002517908811569
5.0,0.08942855149507523
6.0,0.08882865309715271
7.0,0.08825116604566574
8.0,0.08767744153738022
9.0,0.08710774034261703
10.0,0.08655387163162231
11.0,0.08601231127977371
12.0,0.08546643704175949
13.0,0.08492743968963623
14.0,0.08438720554113388
15.0,0.08385280519723892
16.0,0.08333390951156616
18.0,0.08229681849479675
20.0,0.08128061145544052
22.0,0.08029517531394958
24.0,0.0793740451335907
26.0,0.07848823070526123
28.0,0.07764475047588348
30.0,0.07681936025619507
32.0,0.07599557191133499
36.0,0.07436562329530716
40.0,0.0728076919913292
44.0,0.07130414247512817
48.0,0.06982593238353729
52.0,0.06839843839406967
56.0,0.06696416437625885
60.0,0.06557343155145645
64.0,0.06416915357112885
72.0,0.06150772422552109
80.0,0.059201765805482864
88.0,0.05711986869573593
96.0,0.05515136569738388
104.0,0.053295038640499115
112.0,0.05178980529308319
120.0,0.05043221265077591
128.0,0.049173712730407715
144.0,0.0470849834382534
160.0,0.045170169323682785
176.0,0.04381651058793068
192.0,0.04311239719390869
208.0,0.042823463678359985
224.0,0.04248356446623802
240.0,0.04213713854551315
256.0,0.04193414747714996
288.0,0.04062557592988014
320.0,0.038209572434425354
352.0,0.03454197570681572
384.0,0.032111674547195435
416.0,0.030987873673439026
448.0,0.029094554483890533
480.0,0.027787311002612114
512.0,0.027773302048444748
576.0,0.029116777703166008
640.0,0.026027603074908257
704.0,0.020915694534778595
768.0,0.015515999868512154
832.0,0.01327846385538578
896.0,0.010432234965264797
960.0,0.008380576968193054
1024.0,0.009069697931408882
1152.0,0.0012828164035454392
1280.0,-0.0026608100160956383
1408.0,-0.003953161183744669
1536.0,-0.007779679261147976
1664.0,-0.0015705240657553077
1792.0,0.0015113530680537224
1920.0,0.005769367795437574
2048.0,0.005612489301711321
2304.0,0.00875408947467804
2560.0,0.008823593147099018
2816.0,0.006217489019036293
3072.0,0.004769217222929001
3328.0,-0.00393699761480093
3584.0,-0.006936166901141405
3840.0,-0.008861510083079338
4096.0,-0.013605105690658092
4608.0,-0.008269770070910454
5120.0,-0.0029390999116003513
5632.0,-0.00495447451248765
6144.0,-0.000498636974953115
6656.0,-0.002580785658210516
7168.0,-0.0048191845417022705
7680.0,-0.019125178456306458
8192.0,-0.019844166934490204
9216.0,-0.030821742489933968
10240.0,-0.024358367547392845
11264.0,0.014712388627231121
12288.0,0.005304343067109585
13312.0,0.029710272327065468
14336.0,0.031085984781384468
end
