version,3.0
numOfCh,1
type,point
parent_name,8-cuts
ch_type,1_1
kcount,1
numberNandB,1
brightnessNandB,1
carpet pos,0
pc,0
Time (ms),CH1 Auto-Correlation
1.0,0.03594474121928215
2.0,0.03573454171419144
3.0,0.03553080931305885
4.0,0.03533480316400528
5.0,0.03514162823557854
6.0,0.03495054692029953
7.0,0.03476296365261078
8.0,0.034572817385196686
9.0,0.03438238054513931
10.0,0.034193459898233414
11.0,0.034007273614406586
12.0,0.033821750432252884
13.0,0.03363586589694023
14.0,0.033458270132541656
15.0,0.03328141197562218
16.0,0.033112913370132446
18.0,0.03278105705976486
20.0,0.032450348138809204
22.0,0.03212427720427513
24.0,0.031802620738744736
26.0,0.03148608282208443
28.0,0.031181668862700462
30.0,0.030890434980392456
32.0,0.030595870688557625
36.0,0.030038921162486076
40.0,0.029534023255109787
44.0,0.02905588038265705
48.0,0.028577469289302826
52.0,0.02810744382441044
56.0,0.027674097567796707
60.0,0.027302591130137444
64.0,0.02697751857340336
72.0,0.026337934657931328
80.0,0.025684582069516182
88.0,0.02500823885202408
96.0,0.02438010461628437
104.0,0.023790879175066948
112.0,0.023166323080658913
120.0,0.02256808802485466
128.0,0.022043300792574883
144.0,0.021100137382745743
160.0,0.020135091617703438
176.0,0.019094308838248253
192.0,0.017792684957385063
208.0,0.016378816217184067
224.0,0.014893583953380585
240.0,0.013413412496447563
256.0,0.012185622937977314
288.0,0.010512806475162506
320.0,0.009224513545632362
352.0,0.00797189399600029
384.0,0.006984618958085775
416.0,0.005790274124592543
448.0,0.0051247975789010525
480.0,0.004577191546559334
512.0,0.003927360754460096
576.0,0.0026470706798136234
640.0,0.0011014111805707216
704.0,0.000554413883946836
768.0,0.00012048859935021028
832.0,-0.00035958513035438955
896.0,-0.0005945597076788545
960.0,-0.0007850716938264668
1024.0,-0.002222475130110979
1152.0,-0.0051691061817109585
1280.0,-0.006018349900841713
1408.0,-0.0040976121090352535
1536.0,-0.00044813143904320896
1664.0,0.00046989982365630567
1792.0,-0.00048049024189822376
1920.0,-0.0018937300192192197
2048.0,-0.0029243421740829945
2304.0,-0.0009551196708343923
2560.0,0.0051892404444515705
2816.0,0.005006810184568167
3072.0,-1.0956829100905452e-05
3328.0,-0.004349265247583389
3584.0,-0.004123263526707888
3840.0,-0.008618887513875961
4096.0,-0.00870636384934187
4608.0,-0.00523787084966898
5120.0,-0.0005574161768890917
5632.0,0.0017571640200912952
6144.0,-0.004045316483825445
6656.0,-0.007640082389116287
7168.0,-0.0009081244934350252
7680.0,0.005130981560796499
8192.0,0.006612838711589575
9216.0,5.178104038350284e-05
10240.0,0.002349077258259058
11264.0,-0.00018734304467216134
12288.0,0.004410171415656805
13312.0,-0.00031610022415407
14336.0,-0.013547842390835285
end
