version,3.0
numOfCh,1
type,point
parent_name,8-cuts
ch_type,1_1
kcount,1
numberNandB,1
brightnessNandB,1
carpet pos,0
pc,0
Time (ms),CH1 Auto-Correlation
1.0,0.07577360421419144
2.0,0.0751938745379448
3.0,0.07463395595550537
4.0,0.07408691197633743
5.0,0.07354877889156342
6.0,0.0730106458067894
7.0,0.07246457040309906
8.0,0.07193141430616379
9.0,0.07140988856554031
10.0,0.07089125365018845
11.0,0.07038365304470062
12.0,0.06988303363323212
13.0,0.06938748061656952
14.0,0.06889892369508743
15.0,0.06842611730098724
16.0,0.0679524689912796
18.0,0.06701129674911499
20.0,0.06611450761556625
22.0,0.06523269414901733
24.0,0.06435717642307281
26.0,0.0635204017162323
28.0,0.06269817054271698
30.0,0.06188439950346947
32.0,0.06106528639793396
36.0,0.05950222164392471
40.0,0.0580705888569355
44.0,0.0567045658826828
48.0,0.055339209735393524
52.0,0.05399398133158684
56.0,0.052695535123348236
60.0,0.051430728286504745
64.0,0.05022590607404709
72.0,0.04766417667269707
80.0,0.04503113031387329
88.0,0.042445823550224304
96.0,0.04019355773925781
104.0,0.03814023360610008
112.0,0.036180611699819565
120.0,0.03424159437417984
128.0,0.032525435090065
144.0,0.02984778769314289
160.0,0.02721092663705349
176.0,0.024499405175447464
192.0,0.021829478442668915
208.0,0.01978495717048645
224.0,0.018639883026480675
240.0,0.018116813153028488
256.0,0.01800866797566414
288.0,0.01827303133904934
320.0,0.018409855663776398
352.0,0.01810297556221485
384.0,0.017287760972976685
416.0,0.017347285524010658
448.0,0.017198612913489342
480.0,0.016793645918369293
512.0,0.01650382950901985
576.0,0.015069695189595222
640.0,0.012835891917347908
704.0,0.01126804854720831
768.0,0.012074777856469154
832.0,0.017248906195163727
896.0,0.022203749045729637
960.0,0.02189018949866295
1024.0,0.013642963021993637
1152.0,0.0007500297506339848
1280.0,-0.0001606038276804611
1408.0,-0.0007070606807246804
1536.0,-3.347047822899185e-05
1664.0,-0.00571588147431612
1792.0,-0.0031617144122719765
1920.0,-0.00569101283326745
2048.0,-0.018332870677113533
2304.0,-0.010588894598186016
2560.0,-0.011515915393829346
2816.0,-0.017840102314949036
3072.0,-0.011853029020130634
3328.0,-0.0077151088044047356
3584.0,-0.0035347542725503445
3840.0,-0.0027143771294504404
4096.0,0.0013482298236340284
4608.0,0.0037953925784677267
5120.0,0.013307323679327965
5632.0,0.016282981261610985
6144.0,0.01441170647740364
6656.0,-0.0014591390499845147
7168.0,-0.007799185812473297
7680.0,-0.018911566585302353
8192.0,-0.020496660843491554
9216.0,-0.006399113219231367
10240.0,0.0020184852182865143
11264.0,0.0031955763697624207
12288.0,-0.005563010927289724
13312.0,-0.012882936745882034
14336.0,-0.00568029098212719
end
