version,3.0
numOfCh,1
type,point
parent_name,8-cuts
ch_type,1_1
kcount,1
numberNandB,1
brightnessNandB,1
carpet pos,0
pc,0
Time (ms),CH1 Auto-Correlation
1.0,0.02636624127626419
2.0,0.026169519871473312
3.0,0.02597215212881565
4.0,0.025772307068109512
5.0,0.025577645748853683
6.0,0.025390999391674995
7.0,0.025209644809365273
8.0,0.025029059499502182
9.0,0.02485225722193718
10.0,0.024678576737642288
11.0,0.024506207555532455
12.0,0.024333123117685318
13.0,0.024165764451026917
14.0,0.024002468213438988
15.0,0.02383720502257347
16.0,0.023674797266721725
18.0,0.02336415834724903
20.0,0.023053506389260292
22.0,0.02275542914867401
24.0,0.02245824784040451
26.0,0.022162698209285736
28.0,0.02187003567814827
30.0,0.02157372608780861
32.0,0.02128668874502182
36.0,0.02072783187031746
40.0,0.020170943811535835
44.0,0.01964551769196987
48.0,0.019153879955410957
52.0,0.018704969435930252
56.0,0.018287790939211845
60.0,0.01788529008626938
64.0,0.017505580559372902
72.0,0.016707345843315125
80.0,0.015869541093707085
88.0,0.015079012140631676
96.0,0.014402802102267742
104.0,0.013790040276944637
112.0,0.013274777680635452
120.0,0.012829757295548916
128.0,0.012480358593165874
144.0,0.011926482431590557
160.0,0.0113598071038723
176.0,0.0108479093760252
192.0,0.010248263366520405
208.0,0.009475193917751312
224.0,0.008569574914872646
240.0,0.007765563670545816
256.0,0.007320075761526823
288.0,0.006712379865348339
320.0,0.006022133398801088
352.0,0.005696497857570648
384.0,0.0055337222293019295
416.0,0.005528278648853302
448.0,0.005001404322683811
480.0,0.004350760485976934
512.0,0.003856690600514412
576.0,0.003469084855169058
640.0,0.002620645333081484
704.0,0.0020454772748053074
768.0,0.0015832354547455907
832.0,0.000579516519792378
896.0,0.0004168525920249522
960.0,-0.00020561010751407593
1024.0,-0.00047200973494909704
1152.0,-0.0002265176153741777
1280.0,-0.0002512478386051953
1408.0,-0.0006699241930618882
1536.0,-0.002095527481287718
1664.0,-0.0020730062387883663
1792.0,0.0011420146329328418
1920.0,0.0009693436441011727
2048.0,0.0006412739166989923
2304.0,-0.0017992613138630986
2560.0,-0.0021961601451039314
2816.0,-0.0016198469093069434
3072.0,-0.00101365614682436
3328.0,-0.0010631527984514832
3584.0,-0.003320823423564434
3840.0,-0.00157895777374506
4096.0,-0.000799438392277807
4608.0,0.00035893431049771607
5120.0,0.00229193945415318
5632.0,0.0035413517616689205
6144.0,0.004020084626972675
6656.0,0.0032700151205062866
7168.0,0.0005726558156311512
7680.0,-0.0017759775510057807
8192.0,-0.0019574530888348818
9216.0,-0.0031521208584308624
10240.0,-0.0005526795284822583
11264.0,-0.001868806197308004
12288.0,0.004923531319946051
13312.0,-0.00396549329161644
14336.0,-0.011251334100961685
end
