version,3.0
numOfCh,1
type,point
parent_name,8-cuts
ch_type,1_1
kcount,1
numberNandB,1
brightnessNandB,1
carpet pos,0
pc,0
Time (ms),CH1 Auto-Correlation
1.0,0.020688911899924278
2.0,0.020489757880568504
3.0,0.02029225416481495
4.0,0.020099688321352005
5.0,0.019908996298909187
6.0,0.019722910597920418
7.0,0.019540278241038322
8.0,0.019363991916179657
9.0,0.01918967068195343
10.0,0.01902235485613346
11.0,0.018852882087230682
12.0,0.018684599548578262
13.0,0.018516501411795616
14.0,0.0183543898165226
15.0,0.018192484974861145
16.0,0.018035834655165672
18.0,0.017730195075273514
20.0,0.017428940162062645
22.0,0.017122458666563034
24.0,0.016814006492495537
26.0,0.016513755545020103
28.0,0.016231561079621315
30.0,0.015948500484228134
32.0,0.015675004571676254
36.0,0.015171974897384644
40.0,0.014711341820657253
44.0,0.01426649373024702
48.0,0.013847642578184605
52.0,0.013442262075841427
56.0,0.013045377098023891
60.0,0.012660292908549309
64.0,0.012268259190022945
72.0,0.011506348848342896
80.0,0.010754595510661602
88.0,0.010036027058959007
96.0,0.00942512508481741
104.0,0.008824669755995274
112.0,0.008251652121543884
120.0,0.007769261486828327
128.0,0.007348218001425266
144.0,0.006684396415948868
160.0,0.006243293639272451
176.0,0.0057274880819022655
192.0,0.0053031607531011105
208.0,0.005043984856456518
224.0,0.0046892715618014336
240.0,0.004254423547536135
256.0,0.003908137325197458
288.0,0.0033824292477220297
320.0,0.0030871531926095486
352.0,0.0029618816915899515
384.0,0.0031566431280225515
416.0,0.0033078875858336687
448.0,0.0028607486747205257
480.0,0.0022862304467707872
512.0,0.0017862864769995213
576.0,0.0013815232086926699
640.0,0.0012009510537609458
704.0,0.0009599991026334465
768.0,0.001067573786713183
832.0,0.0019343268359079957
896.0,0.0011586026521399617
960.0,-0.00038270646473392844
1024.0,-0.0010518018389120698
1152.0,-0.002204110147431493
1280.0,-0.002488225931301713
1408.0,-0.0015441336436197162
1536.0,-0.001732644741423428
1664.0,-0.000970286491792649
1792.0,-0.0005932113854214549
1920.0,-0.001781470375135541
2048.0,-0.0027903716545552015
2304.0,-0.0004783396434504539
2560.0,2.455250796629116e-05
2816.0,-0.0008270582766272128
3072.0,-0.0006220545619726181
3328.0,-0.002829546108841896
3584.0,-0.0021142305340617895
3840.0,0.000770593760535121
4096.0,0.0004926707479171455
4608.0,0.001655449392274022
5120.0,0.001048936741426587
5632.0,0.00017754708824213594
6144.0,-0.0028965333476662636
6656.0,-0.00013131539162714034
7168.0,-0.001430779811926186
7680.0,0.0005377562483772635
8192.0,-0.0017450188752263784
9216.0,0.0022450590040534735
10240.0,-0.0004851653065998107
11264.0,-0.007525709457695484
12288.0,0.0017917880322784185
13312.0,-0.0007027945830486715
14336.0,0.007518899627029896
end
