version,3.0
numOfCh,1
type,point
parent_name,8-cuts
ch_type,1_1
kcount,1
numberNandB,1
brightnessNandB,1
carpet pos,0
pc,0
Time (ms),CH1 Auto-Correlation
1.0,0.029689420014619827
2.0,0.029492609202861786
3.0,0.02929825149476528
4.0,0.029105572029948235
5.0,0.028918089345097542
6.0,0.02873389422893524
7.0,0.028553863987326622
8.0,0.028368329629302025
9.0,0.028183436021208763
10.0,0.028001468628644943
11.0,0.027822012081742287
12.0,0.027646379545331
13.0,0.027471447363495827
14.0,0.027297288179397583
15.0,0.027125200256705284
16.0,0.02695697359740734
18.0,0.02661817893385887
20.0,0.02628888562321663
22.0,0.025964580476284027
24.0,0.025651702657341957
26.0,0.025340333580970764
28.0,0.025027884170413017
30.0,0.02471087872982025
32.0,0.02439957857131958
36.0,0.023785166442394257
40.0,0.023166682571172714
44.0,0.022555314004421234
48.0,0.021963221952319145
52.0,0.021398324519395828
56.0,0.020867619663476944
60.0,0.02035520039498806
64.0,0.01986589841544628
72.0,0.01903710700571537
80.0,0.018340306356549263
88.0,0.01774381287395954
96.0,0.01714155077934265
104.0,0.016579778864979744
112.0,0.016079280525445938
120.0,0.01566028594970703
128.0,0.015212406404316425
144.0,0.014343305490911007
160.0,0.01357169821858406
176.0,0.012595439329743385
192.0,0.011568433605134487
208.0,0.010487791150808334
224.0,0.00929235853254795
240.0,0.008307325653731823
256.0,0.007363754324615002
288.0,0.006144137587398291
320.0,0.005370258819311857
352.0,0.004545368254184723
384.0,0.0033591545652598143
416.0,0.0021366013679653406
448.0,0.0015738592483103275
480.0,0.0015039036516100168
512.0,0.001642649993300438
576.0,0.0010697651887312531
640.0,0.0003584650403354317
704.0,0.0004506495897658169
768.0,-0.00015987751248758286
832.0,-0.0015652170404791832
896.0,-0.002033540513366461
960.0,-0.002603704808279872
1024.0,-0.0032279700972139835
1152.0,-0.005574338138103485
1280.0,-0.006690921261906624
1408.0,-0.0069694737903773785
1536.0,-0.006405404303222895
1664.0,-0.00505023030564189
1792.0,-0.0026407719124108553
1920.0,-0.0023879832588136196
2048.0,-0.002164366189390421
2304.0,-0.0004834527208004147
2560.0,-0.00044493161840364337
2816.0,0.00020694942213594913
3072.0,0.0028710083570331335
3328.0,-0.0014069443568587303
3584.0,-0.003989650402218103
3840.0,-0.00106637307908386
4096.0,-0.0006048034993000329
4608.0,0.0003897890856023878
5120.0,0.004920497536659241
5632.0,0.002628107788041234
6144.0,-0.0028728386387228966
6656.0,-0.0049895900301635265
7168.0,-0.00021931347146164626
7680.0,0.0048936945386230946
8192.0,0.004725900944322348
9216.0,-0.0046234168112277985
10240.0,0.0012202056823298335
11264.0,-0.007092123851180077
12288.0,0.009243741631507874
13312.0,0.013333768583834171
14336.0,-0.02501450479030609
end
