version,3.0
numOfCh,1
type,point
parent_name,8-cuts
ch_type,1_1
kcount,1
numberNandB,1
brightnessNandB,1
carpet pos,0
pc,0
Time (ms),CH1 Auto-Correlation
1.0,0.0780981034040451
2.0,0.07759934663772583
3.0,0.07710849493741989
4.0,0.07663296908140182
5.0,0.07616817951202393
6.0,0.07570871710777283
7.0,0.07525528967380524
8.0,0.0748043954372406
9.0,0.07435107231140137
10.0,0.07391073554754257
11.0,0.07347357273101807
12.0,0.0730271264910698
13.0,0.07258609682321548
14.0,0.07215113937854767
15.0,0.07172756642103195
16.0,0.07129980623722076
18.0,0.07045654207468033
20.0,0.0696505755186081
22.0,0.06888219714164734
24.0,0.06812504678964615
26.0,0.06737656146287918
28.0,0.06667573750019073
30.0,0.06600692868232727
32.0,0.06535284221172333
36.0,0.06409336626529694
40.0,0.06293682754039764
44.0,0.06188344210386276
48.0,0.060863200575113297
52.0,0.059817634522914886
56.0,0.05882355570793152
60.0,0.05781479924917221
64.0,0.0568406842648983
72.0,0.054946430027484894
80.0,0.05310000479221344
88.0,0.05131806433200836
96.0,0.04957860708236694
104.0,0.04788438230752945
112.0,0.046303749084472656
120.0,0.0447414293885231
128.0,0.043192118406295776
144.0,0.04032454267144203
160.0,0.037640612572431564
176.0,0.03538522869348526
192.0,0.03312660753726959
208.0,0.031071539968252182
224.0,0.029108768329024315
240.0,0.027304043993353844
256.0,0.02572217769920826
288.0,0.022381912916898727
320.0,0.020717550069093704
352.0,0.019954673945903778
384.0,0.019013240933418274
416.0,0.016918079927563667
448.0,0.014658180996775627
480.0,0.012158943340182304
512.0,0.009806761518120766
576.0,0.009286466054618359
640.0,0.01104210875928402
704.0,0.011999563314020634
768.0,0.011340069584548473
832.0,0.011189713142812252
896.0,0.010341078042984009
960.0,0.009337726049125195
1024.0,0.0077129993587732315
1152.0,0.002613685093820095
1280.0,0.0001207222230732441
1408.0,-0.0018699273932725191
1536.0,-0.002435112837702036
1664.0,0.002652887487784028
1792.0,0.0070647248066961765
1920.0,0.0128845926374197
2048.0,0.013400825671851635
2304.0,0.011009261943399906
2560.0,0.007255475968122482
2816.0,0.004245541989803314
3072.0,0.0017103225691244006
3328.0,0.0041128117591142654
3584.0,0.005836870986968279
3840.0,0.006178003270179033
4096.0,-0.0008757131872698665
4608.0,-0.009796234779059887
5120.0,-0.017053645104169846
5632.0,-0.0132063627243042
6144.0,-0.012972196564078331
6656.0,-0.015239706262946129
7168.0,-0.021066829562187195
7680.0,-0.01482706144452095
8192.0,-0.01269390620291233
9216.0,-0.02127688378095627
10240.0,0.00291446247138083
11264.0,-0.004422436933964491
12288.0,0.010722300969064236
13312.0,0.021846577525138855
14336.0,0.022303154692053795
end
