version,3.0
numOfCh,1
type,point
parent_name,8-cuts
ch_type,1_1
kcount,1
numberNandB,1
brightnessNandB,1
carpet pos,0
pc,0
Time (ms),CH1 Auto-Correlation
1.0,0.030660904943943024
2.0,0.030458033084869385
3.0,0.030254947021603584
4.0,0.030060777440667152
5.0,0.029867615550756454
6.0,0.029678141698241234
7.0,0.029492922127246857
8.0,0.0293106772005558
9.0,0.029128149151802063
10.0,0.028946418315172195
11.0,0.028765926137566566
12.0,0.028588805347681046
13.0,0.0284111425280571
14.0,0.028237497434020042
15.0,0.02806045487523079
16.0,0.027881594374775887
18.0,0.027543339878320694
20.0,0.02721274644136429
22.0,0.026879116892814636
24.0,0.02654859982430935
26.0,0.026232603937387466
28.0,0.025922350585460663
30.0,0.025617092847824097
32.0,0.025311611592769623
36.0,0.02469959296286106
40.0,0.024104079231619835
44.0,0.02354597859084606
48.0,0.02302481047809124
52.0,0.022519271820783615
56.0,0.022050058469176292
60.0,0.021591534838080406
64.0,0.02112795040011406
72.0,0.02027040161192417
80.0,0.01947997696697712
88.0,0.018799934536218643
96.0,0.01814550906419754
104.0,0.01747851073741913
112.0,0.016837138682603836
120.0,0.01620253548026085
128.0,0.0155922407284379
144.0,0.014781372621655464
160.0,0.014287794008851051
176.0,0.013938678428530693
192.0,0.013549605384469032
208.0,0.012908133678138256
224.0,0.012233004905283451
240.0,0.01158757135272026
256.0,0.010934345424175262
288.0,0.009447946213185787
320.0,0.00871549267321825
352.0,0.00803436804562807
384.0,0.007243035826832056
416.0,0.0072739506140351295
448.0,0.007526850793510675
480.0,0.007252872921526432
512.0,0.006914271041750908
576.0,0.00637102173641324
640.0,0.00701138423755765
704.0,0.007989373058080673
768.0,0.008051067590713501
832.0,0.007184532005339861
896.0,0.006296804174780846
960.0,0.005752525757998228
1024.0,0.006342828273773193
1152.0,0.007764343172311783
1280.0,0.007113175466656685
1408.0,0.006869797594845295
1536.0,0.0048131924122571945
1664.0,0.003931224346160889
1792.0,0.0024470379576087
1920.0,0.00218784436583519
2048.0,0.0015533246332779527
2304.0,0.0039164056070148945
2560.0,0.004035143181681633
2816.0,0.0034422685857862234
3072.0,0.004309921059757471
3328.0,0.005847195629030466
3584.0,0.005969617050141096
3840.0,0.0023525075521320105
4096.0,-0.00036895766970701516
4608.0,0.0004132766916882247
5120.0,-0.0007636811933480203
5632.0,-0.003339640563353896
6144.0,-0.00288955750875175
6656.0,1.4356130122905597e-05
7168.0,-0.003450544085353613
7680.0,-0.003996196202933788
8192.0,-0.0014243553159758449
9216.0,-0.010717375203967094
10240.0,-0.012555022723972797
11264.0,-0.0057832468301057816
12288.0,-0.008183549158275127
13312.0,-0.009121902287006378
14336.0,-0.00234325067140162
end
