version,3.0
numOfCh,1
type,point
parent_name,8-cuts
ch_type,1_1
kcount,1
numberNandB,1
brightnessNandB,1
carpet pos,0
pc,0
Time (ms),CH1 Auto-Correlation
1.0,0.07654605060815811
2.0,0.07612141966819763
3.0,0.07570644468069077
4.0,0.07529503852128983
5.0,0.07488459348678589
6.0,0.07448102533817291
7.0,0.07409124076366425
8.0,0.0737038254737854
9.0,0.0733228400349617
10.0,0.07295355945825577
11.0,0.07259120047092438
12.0,0.07224009931087494
13.0,0.0718841627240181
14.0,0.07152871042490005
15.0,0.07117853313684464
16.0,0.07083584368228912
18.0,0.07016918808221817
20.0,0.06952719390392303
22.0,0.06890465319156647
24.0,0.06831040233373642
26.0,0.06772470474243164
28.0,0.0671716257929802
30.0,0.0666157677769661
32.0,0.06603306531906128
36.0,0.06487573683261871
40.0,0.06373237073421478
44.0,0.06261894851922989
48.0,0.06151505187153816
52.0,0.060411036014556885
56.0,0.05932861939072609
60.0,0.058360274881124496
64.0,0.05747459456324577
72.0,0.05587097257375717
80.0,0.05440833419561386
88.0,0.05314511060714722
96.0,0.05189977213740349
104.0,0.05074317008256912
112.0,0.04961127042770386
120.0,0.04852176085114479
128.0,0.04746806249022484
144.0,0.04553815349936485
160.0,0.04373366758227348
176.0,0.041679468005895615
192.0,0.03974669799208641
208.0,0.037904996424913406
224.0,0.03630349040031433
240.0,0.034875012934207916
256.0,0.033337488770484924
288.0,0.03134935349225998
320.0,0.029503317549824715
352.0,0.02686208300292492
384.0,0.024479495361447334
416.0,0.0230054073035717
448.0,0.022313376888632774
480.0,0.021646250039339066
512.0,0.020721664652228355
576.0,0.02132396399974823
640.0,0.022672025486826897
704.0,0.02382615953683853
768.0,0.023164095357060432
832.0,0.022921208292245865
896.0,0.02128666453063488
960.0,0.020665597170591354
1024.0,0.020122885704040527
1152.0,0.014459829777479172
1280.0,0.010601086542010307
1408.0,0.013082600198686123
1536.0,0.011319301091134548
1664.0,0.009054135531187057
1792.0,0.004588491283357143
1920.0,-0.0021067687775939703
2048.0,-0.0029131120536476374
2304.0,0.0037756285164505243
2560.0,0.0007832215633243322
2816.0,-0.00843431893736124
3072.0,-0.008505923673510551
3328.0,-0.0004793889820575714
3584.0,0.006731690838932991
3840.0,0.004828839097172022
4096.0,0.005137905944138765
4608.0,-0.002451699459925294
5120.0,-0.009676860645413399
5632.0,-0.018645022064447403
6144.0,-0.02762451022863388
6656.0,-0.03735262528061867
7168.0,-0.022107087075710297
7680.0,-0.015732569620013237
8192.0,-0.012515834532678127
9216.0,-0.008264859206974506
10240.0,-0.012952355667948723
11264.0,0.0012919571017846465
12288.0,0.02577395550906658
13312.0,0.02894974686205387
14336.0,0.023139547556638718
end
