version,3.0
numOfCh,1
type,point
parent_name,8-cuts
ch_type,1_1
kcount,1
numberNandB,1
brightnessNandB,1
carpet pos,0
pc,0
Time (ms),CH1 Auto-Correlation
1.0,0.05791054293513298
2.0,0.05737695097923279
3.0,0.056856755167245865
4.0,0.056331146508455276
5.0,0.05582740530371666
6.0,0.05532945692539215
7.0,0.05484946072101593
8.0,0.054380446672439575
9.0,0.053911082446575165
10.0,0.053449597209692
11.0,0.053010113537311554
12.0,0.05258781462907791
13.0,0.052177999168634415
14.0,0.051772378385066986
15.0,0.051365312188863754
16.0,0.05095382779836655
18.0,0.05015319213271141
20.0,0.04938073083758354
22.0,0.04860534891486168
24.0,0.04782285913825035
26.0,0.047057297080755234
28.0,0.046307895332574844
30.0,0.04557521268725395
32.0,0.04485958069562912
36.0,0.04351784288883209
40.0,0.042335350066423416
44.0,0.04118066281080246
48.0,0.04002360627055168
52.0,0.0389401949942112
56.0,0.037864718586206436
60.0,0.03683324530720711
64.0,0.035869039595127106
72.0,0.03399655595421791
80.0,0.03225693106651306
88.0,0.030669372528791428
96.0,0.02942877821624279
104.0,0.02841092459857464
112.0,0.027334528043866158
120.0,0.026128310710191727
128.0,0.025042369961738586
144.0,0.02339642308652401
160.0,0.02217830717563629
176.0,0.020789625123143196
192.0,0.01910855993628502
208.0,0.017530210316181183
224.0,0.016459980979561806
240.0,0.015490942634642124
256.0,0.01436389796435833
288.0,0.012655792757868767
320.0,0.011033750139176846
352.0,0.010188037529587746
384.0,0.009805272333323956
416.0,0.009766497649252415
448.0,0.010398504324257374
480.0,0.011357283219695091
512.0,0.012279623188078403
576.0,0.01250116154551506
640.0,0.011398132890462875
704.0,0.007309465203434229
768.0,0.005722277332097292
832.0,0.003587179584428668
896.0,0.0014964204747229815
960.0,0.003420874010771513
1024.0,0.005519095342606306
1152.0,0.005435991566628218
1280.0,0.003750626463443041
1408.0,0.0023223054595291615
1536.0,-0.0019202264957129955
1664.0,-0.005329963751137257
1792.0,-0.003298855619505048
1920.0,-0.003452575532719493
2048.0,0.0007543775718659163
2304.0,-0.0034615271724760532
2560.0,-0.005988006480038166
2816.0,-0.0020644438918679953
3072.0,-7.031455606920645e-05
3328.0,0.001249391702003777
3584.0,-0.0040707034058868885
3840.0,-0.006297667045146227
4096.0,-0.003011745400726795
4608.0,-0.004462353885173798
5120.0,-0.0011310557601973414
5632.0,-0.0012559780152514577
6144.0,-0.0032736121211200953
6656.0,-0.00862500537186861
7168.0,-0.010054966434836388
7680.0,-0.001969544216990471
8192.0,-0.0019101965008303523
9216.0,0.003216665470972657
10240.0,-0.0009588645771145821
11264.0,0.007221548352390528
12288.0,-0.0021428167819976807
13312.0,-0.0029986074659973383
14336.0,0.004655166529119015
end
