version,3.0
numOfCh,1
type,point
parent_name,8-cuts
ch_type,1_1
kcount,1
numberNandB,1
brightnessNandB,1
carpet pos,0
pc,0
Time (ms),CH1 Auto-Correlation
1.0,0.023803433403372765
2.0,0.023594915866851807
3.0,0.02338407374918461
4.0,0.023172974586486816
5.0,0.022967426106333733
6.0,0.022763680666685104
7.0,0.022561583667993546
8.0,0.022363321855664253
9.0,0.022170819342136383
10.0,0.02197660133242607
11.0,0.021785469725728035
12.0,0.02159782312810421
13.0,0.021414538845419884
14.0,0.02123112604022026
15.0,0.0210511963814497
16.0,0.020873744040727615
18.0,0.020519454032182693
20.0,0.02018144354224205
22.0,0.019859900698065758
24.0,0.019552242010831833
26.0,0.019261280074715614
28.0,0.018987402319908142
30.0,0.018723059445619583
32.0,0.01845438778400421
36.0,0.017931602895259857
40.0,0.017415238544344902
44.0,0.016923002898693085
48.0,0.01645529828965664
52.0,0.016026068478822708
56.0,0.01564423367381096
60.0,0.015290732495486736
64.0,0.014959602616727352
72.0,0.014414810575544834
80.0,0.013911189511418343
88.0,0.01346223521977663
96.0,0.013052656315267086
104.0,0.012640537694096565
112.0,0.012142890132963657
120.0,0.011652631685137749
128.0,0.011182370595633984
144.0,0.01030845008790493
160.0,0.009434706531465054
176.0,0.008796067908406258
192.0,0.00826762244105339
208.0,0.00781736895442009
224.0,0.007627141661942005
240.0,0.007394470274448395
256.0,0.007097667548805475
288.0,0.006390778813511133
320.0,0.005610701162368059
352.0,0.004725076723843813
384.0,0.0037464117631316185
416.0,0.0029202508740127087
448.0,0.0028483576606959105
480.0,0.0028141981456428766
512.0,0.002610128140076995
576.0,0.001433925237506628
640.0,0.001142229768447578
704.0,0.000667824933771044
768.0,0.0013848546659573913
832.0,0.00213591568171978
896.0,0.0011848225258290768
960.0,0.00027363005210645497
1024.0,-0.0008058869861997664
1152.0,-0.001322791213169694
1280.0,-0.0015731763560324907
1408.0,-0.0008716229349374771
1536.0,0.00026546401204541326
1664.0,0.0005533913499675691
1792.0,0.0005749609554186463
1920.0,-0.00013814530393574387
2048.0,-0.0009072796092368662
2304.0,-0.004005494527518749
2560.0,-0.004929512273520231
2816.0,-0.0015403528232127428
3072.0,9.017200500238687e-05
3328.0,0.0009718832443468273
3584.0,0.0023684592451900244
3840.0,0.002981230616569519
4096.0,0.0011506174923852086
4608.0,-0.0002647829824127257
5120.0,-0.0034834598191082478
5632.0,-0.0057867420837283134
6144.0,-0.001400667242705822
6656.0,0.0009231624426320195
7168.0,-0.0027006270829588175
7680.0,0.0007452743011526763
8192.0,0.0022175568155944347
9216.0,2.4493831006111577e-05
10240.0,0.004491463769227266
11264.0,-0.001953855622559786
12288.0,0.00043506486690603197
13312.0,-0.0022488238755613565
14336.0,-0.00040276258368976414
end
