version,3.0
numOfCh,1
type,point
parent_name,8-cuts
ch_type,1_1
kcount,1
numberNandB,1
brightnessNandB,1
carpet pos,0
pc,0
Time (ms),CH1 Auto-Correlation
1.0,0.022885235026478767
2.0,0.022700302302837372
3.0,0.022516969591379166
4.0,0.022338923066854477
5.0,0.022164983674883842
6.0,0.021991964429616928
7.0,0.02182123437523842
8.0,0.021648390218615532
9.0,0.02147539146244526
10.0,0.021308720111846924
11.0,0.021148471161723137
12.0,0.020992089062929153
13.0,0.02083159238100052
14.0,0.02067623846232891
15.0,0.020523488521575928
16.0,0.020365800708532333
18.0,0.020049434155225754
20.0,0.01973317377269268
22.0,0.019424550235271454
24.0,0.01912442035973072
26.0,0.01882312074303627
28.0,0.01853959821164608
30.0,0.01826789602637291
32.0,0.018004562705755234
36.0,0.017479412257671356
40.0,0.01694192737340927
44.0,0.01641685701906681
48.0,0.015918653458356857
52.0,0.015451394952833652
56.0,0.014992308802902699
60.0,0.01454914826899767
64.0,0.01414419524371624
72.0,0.013423139229416847
80.0,0.012819904834032059
88.0,0.012257271446287632
96.0,0.011743583716452122
104.0,0.011310405097901821
112.0,0.010903005488216877
120.0,0.010545949451625347
128.0,0.010189688764512539
144.0,0.009536877274513245
160.0,0.008867776952683926
176.0,0.008171205408871174
192.0,0.007367545738816261
208.0,0.006550204940140247
224.0,0.0057865832932293415
240.0,0.005237783771008253
256.0,0.004826365504413843
288.0,0.004471933469176292
320.0,0.004541154485195875
352.0,0.004244404379278421
384.0,0.003456771606579423
416.0,0.002894207602366805
448.0,0.0027296149637550116
480.0,0.0028224473353475332
512.0,0.0028613507747650146
576.0,0.002585616195574403
640.0,0.002440070966258645
704.0,0.001734882709570229
768.0,0.0016921213828027248
832.0,0.002138154348358512
896.0,0.002411773195490241
960.0,0.0026162758003920317
1024.0,0.001511070760898292
1152.0,0.0005915460642427206
1280.0,0.0012919389409944415
1408.0,0.0011071041226387024
1536.0,-3.8646561733912677e-05
1664.0,-0.0010035530431196094
1792.0,-0.001071622595191002
1920.0,-0.0008737907628528774
2048.0,-0.0005624485202133656
2304.0,-0.0002984879829455167
2560.0,-0.0015114137204363942
2816.0,-0.00365128880366683
3072.0,-0.003719312371686101
3328.0,-0.005458278115838766
3584.0,-0.007095657289028168
3840.0,-0.006836792919784784
4096.0,-0.0010287665063515306
4608.0,-0.0014654775150120258
5120.0,0.00021440218552015722
5632.0,0.000989503227174282
6144.0,0.0013927462277933955
6656.0,0.0057050385512411594
7168.0,0.004607995506376028
7680.0,0.0017994098598137498
8192.0,-0.0010193131165578961
9216.0,-0.0005310263950377703
10240.0,-0.002738304203376174
11264.0,-0.0005996521795168519
12288.0,0.0011228278744965792
13312.0,0.00021415908122435212
14336.0,-0.004583645612001419
end
