version,3.0
numOfCh,1
type,point
parent_name,8-cuts
ch_type,1_1
kcount,1
numberNandB,1
brightnessNandB,1
carpet pos,0
pc,0
Time (ms),CH1 Auto-Correlation
1.0,0.06283211708068848
2.0,0.0622870996594429
3.0,0.06175613775849342
4.0,0.06123288348317146
5.0,0.06070460006594658
6.0,0.06018570438027382
7.0,0.059671346098184586
8.0,0.05916016176342964
9.0,0.05867055431008339
10.0,0.058180056512355804
11.0,0.057699054479599
12.0,0.057210974395275116
13.0,0.05672914534807205
14.0,0.05626366659998894
15.0,0.05580176040530205
16.0,0.055340852588415146
18.0,0.05445345491170883
20.0,0.05358194559812546
22.0,0.05272621288895607
24.0,0.051894526928663254
26.0,0.0510723777115345
28.0,0.05029155686497688
30.0,0.04953815042972565
32.0,0.048730578273534775
36.0,0.047186169773340225
40.0,0.04571996256709099
44.0,0.044312525540590286
48.0,0.04289048910140991
52.0,0.041529618203639984
56.0,0.04020264744758606
60.0,0.038867026567459106
64.0,0.03755149245262146
72.0,0.035079170018434525
80.0,0.03261536732316017
88.0,0.030308615416288376
96.0,0.027933236211538315
104.0,0.02564345858991146
112.0,0.023646757006645203
120.0,0.021662671118974686
128.0,0.019836455583572388
144.0,0.016450077295303345
160.0,0.013276147656142712
176.0,0.01048510055989027
192.0,0.007989409379661083
208.0,0.0060300324112176895
224.0,0.004508303478360176
240.0,0.003018872579559684
256.0,0.0012868252815678716
288.0,-0.0016961738001555204
320.0,-0.0025604802649468184
352.0,-0.002415612805634737
384.0,-0.002571931341663003
416.0,-0.0022873464040458202
448.0,-0.0007936824695207179
480.0,0.0015416312962770462
512.0,0.0029938274528831244
576.0,0.00308393407613039
640.0,0.00014256882423069328
704.0,-0.0018948819488286972
768.0,-0.003146345028653741
832.0,-0.0048431516624987125
896.0,-0.005233398173004389
960.0,-0.0023997242096811533
1024.0,0.0016476879827678204
1152.0,0.0035949305165559053
1280.0,-0.0016747275367379189
1408.0,-0.00796661339700222
1536.0,-0.005260463338345289
1664.0,-0.001581828691996634
1792.0,-0.0009248103597201407
1920.0,-0.006064933724701405
2048.0,-0.005678870715200901
2304.0,-0.002366450848057866
2560.0,-0.006886085961014032
2816.0,0.0019939313642680645
3072.0,0.0012316562933847308
3328.0,0.011174364946782589
3584.0,0.0057159895077347755
3840.0,-0.0007911504944786429
4096.0,0.009562148712575436
4608.0,-0.001635632012039423
5120.0,-0.00576212489977479
5632.0,-0.00047741434536874294
6144.0,-0.006389817222952843
6656.0,0.0016379652079194784
7168.0,-0.001481778803281486
7680.0,1.3824635971104726e-05
8192.0,-0.0018604921642690897
9216.0,-0.0010554423788562417
10240.0,0.0020143957808613777
11264.0,0.0004102429957129061
12288.0,-0.0037216569762676954
13312.0,-0.0023723659105598927
14336.0,0.01455778069794178
end
