version,3.0
numOfCh,1
type,point
parent_name,8-cuts
ch_type,1_1
kcount,1
numberNandB,1
brightnessNandB,1
carpet pos,0
pc,0
Time (ms),CH1 Auto-Correlation
1.0,0.08341388404369354
2.0,0.08295882493257523
3.0,0.0825110524892807
4.0,0.08206827193498611
5.0,0.08163248002529144
6.0,0.08120516687631607
7.0,0.08077841252088547
8.0,0.08035854250192642
9.0,0.07994683086872101
10.0,0.079534150660038
11.0,0.0791177973151207
12.0,0.07871367037296295
13.0,0.07831358164548874
14.0,0.07791724056005478
15.0,0.07752037793397903
16.0,0.07713169604539871
18.0,0.07634842395782471
20.0,0.07558509707450867
22.0,0.07484840601682663
24.0,0.0741124376654625
26.0,0.0734080895781517
28.0,0.07274730503559113
30.0,0.07211025804281235
32.0,0.07148072868585587
36.0,0.07022842019796371
40.0,0.06898630410432816
44.0,0.06776999682188034
48.0,0.06666622310876846
52.0,0.06552615761756897
56.0,0.06433984637260437
60.0,0.06317688524723053
64.0,0.062140386551618576
72.0,0.06021489202976227
80.0,0.05853183567523956
88.0,0.05700812116265297
96.0,0.05548904091119766
104.0,0.05401971936225891
112.0,0.05262267589569092
120.0,0.051337726414203644
128.0,0.05018341541290283
144.0,0.04807513952255249
160.0,0.045860860496759415
176.0,0.04385051503777504
192.0,0.041778117418289185
208.0,0.03949328139424324
224.0,0.037073180079460144
240.0,0.03489076346158981
256.0,0.03312933072447777
288.0,0.03044082038104534
320.0,0.027759555727243423
352.0,0.025360818952322006
384.0,0.02392847090959549
416.0,0.02362056076526642
448.0,0.023614436388015747
480.0,0.023830942809581757
512.0,0.0234819408506155
576.0,0.020445695146918297
640.0,0.017528319731354713
704.0,0.01581297442317009
768.0,0.01432912889868021
832.0,0.012858712114393711
896.0,0.010774815455079079
960.0,0.00882767979055643
1024.0,0.006295426748692989
1152.0,-0.0005405134870670736
1280.0,-0.0028189250733703375
1408.0,-0.0056867110542953014
1536.0,-0.007194494362920523
1664.0,-0.008617740124464035
1792.0,-0.007527568377554417
1920.0,-0.007254407275468111
2048.0,-0.0008594911196269095
2304.0,0.00665156077593565
2560.0,0.009134620428085327
2816.0,0.006389506161212921
3072.0,0.007879258133471012
3328.0,0.0032808699179440737
3584.0,-0.0039062316063791513
3840.0,-0.0017862219829112291
4096.0,0.0012322177644819021
4608.0,0.0211922749876976
5120.0,0.019255274906754494
5632.0,0.005333113018423319
6144.0,-0.02684105560183525
6656.0,-0.028665153309702873
7168.0,-0.019333142787218094
7680.0,-0.005519900470972061
8192.0,-0.007248381152749062
9216.0,-0.010981413535773754
10240.0,-0.010874309577047825
11264.0,-0.023571860045194626
12288.0,-0.005880376324057579
13312.0,-0.0011394834145903587
14336.0,-0.013015879318118095
end
