version,3.0
numOfCh,1
type,point
parent_name,8-cuts
ch_type,1_1
kcount,1
numberNandB,1
brightnessNandB,1
carpet pos,0
pc,0
Time (ms),CH1 Auto-Correlation
1.0,0.08308371156454086
2.0,0.08236640691757202
3.0,0.08167511224746704
4.0,0.08101260662078857
5.0,0.08036599308252335
6.0,0.07973833382129669
7.0,0.07911220192909241
8.0,0.07849276065826416
9.0,0.07787629961967468
10.0,0.07725770026445389
11.0,0.0766594186425209
12.0,0.07607068866491318
13.0,0.07547198235988617
14.0,0.07488542050123215
15.0,0.07431468367576599
16.0,0.0737571120262146
18.0,0.07268141955137253
20.0,0.07164590060710907
22.0,0.07065317779779434
24.0,0.06969799846410751
26.0,0.0687413364648819
28.0,0.06779871881008148
30.0,0.06688110530376434
32.0,0.06598325073719025
36.0,0.06423340737819672
40.0,0.06251755356788635
44.0,0.06084676459431648
48.0,0.05923045799136162
52.0,0.05763115733861923
56.0,0.05600357800722122
60.0,0.05446673929691315
64.0,0.05295305699110031
72.0,0.05017164722084999
80.0,0.04787900671362877
88.0,0.04584849625825882
96.0,0.044153135269880295
104.0,0.04249643161892891
112.0,0.04056897014379501
120.0,0.038685254752635956
128.0,0.037015777081251144
144.0,0.03398597240447998
160.0,0.03058614395558834
176.0,0.027025407180190086
192.0,0.023838993161916733
208.0,0.02101765014231205
224.0,0.018062695860862732
240.0,0.015544848516583443
256.0,0.01321615744382143
288.0,0.009058342315256596
320.0,0.006397740915417671
352.0,0.0042180768214166164
384.0,0.0013017269084230065
416.0,-0.002646856475621462
448.0,-0.005775212775915861
480.0,-0.007391388062387705
512.0,-0.009509660303592682
576.0,-0.01349160261452198
640.0,-0.014294156804680824
704.0,-0.010946317575871944
768.0,-0.0065447501838207245
832.0,-0.0023484157864004374
896.0,-0.0009301217505708337
960.0,0.0007045154925435781
1024.0,0.0010856696171686053
1152.0,-0.0036659345496445894
1280.0,-0.0036734831519424915
1408.0,-0.00590228708460927
1536.0,-0.008031408302485943
1664.0,-0.00444628344848752
1792.0,0.002985313069075346
1920.0,0.0023329120595008135
2048.0,-0.004617676604539156
2304.0,-0.005664244759827852
2560.0,-0.00016396712453570217
2816.0,-0.0005771148717030883
3072.0,-0.007129605859518051
3328.0,-0.0022682505659759045
3584.0,0.003863521385937929
3840.0,0.0055204699747264385
4096.0,0.009605172090232372
4608.0,-0.009461278095841408
5120.0,0.002742852782830596
5632.0,-0.00776805030182004
6144.0,-0.007945753633975983
6656.0,0.009809931740164757
7168.0,-0.0005371093866415322
7680.0,-0.002029928145930171
8192.0,0.00462222658097744
9216.0,0.001487990841269493
10240.0,0.004759868141263723
11264.0,0.009701038710772991
12288.0,-0.009157439693808556
13312.0,-0.009772375226020813
14336.0,0.005278913304209709
end
