version,3.0
numOfCh,1
type,point
parent_name,8-cuts
ch_type,1_1
kcount,1
numberNandB,1
brightnessNandB,1
carpet pos,0
pc,0
Time (ms),CH1 Auto-Correlation
1.0,0.08632180094718933
2.0,0.08580432087182999
3.0,0.08528927713632584
4.0,0.08478333801031113
5.0,0.08428964018821716
6.0,0.08380474895238876
7.0,0.08333460986614227
8.0,0.08287149667739868
9.0,0.08242364227771759
10.0,0.0819917768239975
11.0,0.08156561851501465
12.0,0.08114692568778992
13.0,0.08073808252811432
14.0,0.08034142851829529
15.0,0.07994870096445084
16.0,0.07956685870885849
18.0,0.0788016989827156
20.0,0.07806874811649323
22.0,0.07733579725027084
24.0,0.0766468420624733
26.0,0.07598218321800232
28.0,0.07529369741678238
30.0,0.07460915297269821
32.0,0.07392723858356476
36.0,0.07261775434017181
40.0,0.07142581045627594
44.0,0.07031097263097763
48.0,0.06920339912176132
52.0,0.0680648535490036
56.0,0.06695814430713654
60.0,0.06585902720689774
64.0,0.06471744179725647
72.0,0.06276672333478928
80.0,0.06128112971782684
88.0,0.06007487699389458
96.0,0.058831945061683655
104.0,0.05755530297756195
112.0,0.05601276457309723
120.0,0.054384130984544754
128.0,0.052859652787446976
144.0,0.05052727460861206
160.0,0.048545680940151215
176.0,0.046954281628131866
192.0,0.046256210654973984
208.0,0.04598727822303772
224.0,0.04528794810175896
240.0,0.04454739764332771
256.0,0.04390944167971611
288.0,0.04163201153278351
320.0,0.039115242660045624
352.0,0.03600471094250679
384.0,0.03241055831313133
416.0,0.029228100553154945
448.0,0.02804553508758545
480.0,0.027645116671919823
512.0,0.02700234018266201
576.0,0.026434311643242836
640.0,0.025491666048765182
704.0,0.023726699873805046
768.0,0.02346540242433548
832.0,0.02387639321386814
896.0,0.024393467232584953
960.0,0.024287529289722443
1024.0,0.022642474621534348
1152.0,0.02311285398900509
1280.0,0.01757028140127659
1408.0,0.011146328411996365
1536.0,0.006111131515353918
1664.0,-0.0018071463564410806
1792.0,-0.0036893810611218214
1920.0,1.829493157856632e-05
2048.0,0.004882020875811577
2304.0,0.004830682650208473
2560.0,0.009872321970760822
2816.0,0.010924913920462132
3072.0,0.017504842951893806
3328.0,0.0200346652418375
3584.0,0.022738119587302208
3840.0,0.011025991290807724
4096.0,-1.639062429603655e-05
4608.0,-0.0017684015911072493
5120.0,-0.009663905017077923
5632.0,-0.011848716996610165
6144.0,-0.002289657713845372
6656.0,-0.009847545996308327
7168.0,-0.017774341627955437
7680.0,-0.02952025644481182
8192.0,-0.02778596431016922
9216.0,-0.02310868352651596
10240.0,-0.02831263653934002
11264.0,-0.03012353926897049
12288.0,-0.010840784758329391
13312.0,0.01763632707297802
14336.0,0.013626105152070522
end
