version,3.0
numOfCh,1
type,point
parent_name,dirty_0dot2-1dot0
ch_type,1_1
kcount,1
numberNandB,1
brightnessNandB,1
carpet pos,0
pc,0
Time (ms),CH1 Auto-Correlation
1.0,0.07121822983026505
2.0,0.06552588939666748
3.0,0.06122959032654762
4.0,0.057559188455343246
5.0,0.054253850132226944
6.0,0.051129452884197235
7.0,0.04809552803635597
8.0,0.04507379233837128
9.0,0.042378153651952744
10.0,0.04041208699345589
11.0,0.0387277826666832
12.0,0.03734499216079712
13.0,0.03558995947241783
14.0,0.034229811280965805
15.0,0.03310916945338249
16.0,0.03253437951207161
18.0,0.030197814106941223
20.0,0.027181381359696388
22.0,0.024208227172493935
24.0,0.022508224472403526
26.0,0.02135167084634304
28.0,0.020042020827531815
30.0,0.018407756462693214
32.0,0.017782023176550865
36.0,0.016825972124934196
40.0,0.01518270093947649
44.0,0.013738998211920261
48.0,0.012919956818223
52.0,0.012596630491316319
56.0,0.011254159733653069
60.0,0.011238820850849152
64.0,0.010622162371873856
72.0,0.009615627117455006
80.0,0.009756341576576233
88.0,0.00842699222266674
96.0,0.0055709523148834705
104.0,0.004067833069711924
112.0,0.0025503109209239483
120.0,0.0006584149086847901
128.0,0.0007404242642223835
144.0,0.0013215289218351245
160.0,-0.0008661179454065859
176.0,-0.0022835570853203535
192.0,-0.002132658613845706
208.0,0.0006870234501548111
224.0,-0.0009856050601229072
240.0,-0.0008492266642861068
256.0,-0.0006477667484432459
288.0,-0.001250548637472093
320.0,-0.0003892031090799719
352.0,0.00306538213044405
384.0,0.0012040029978379607
416.0,0.0009121667826548219
448.0,0.00020185545145068318
480.0,-0.0004164082638453692
512.0,-0.0003172615834046155
576.0,-7.955212640808895e-05
640.0,-0.0009405307937413454
704.0,-0.00036597627331502736
768.0,-0.001013176515698433
832.0,-0.0022253040224313736
896.0,0.002892192220315337
960.0,0.0003205587563570589
1024.0,0.0016551141161471605
1152.0,-0.0009514812263660133
1280.0,-0.0009955927962437272
1408.0,0.00035526801366358995
1536.0,0.002208763500675559
1664.0,0.002018011175096035
1792.0,0.0012813633074983954
1920.0,0.002015521051362157
2048.0,0.0015749008161947131
2304.0,-0.0017406257102265954
2560.0,0.00026524876011535525
2816.0,0.0015524799237027764
3072.0,0.00125313235912472
3328.0,-0.001833008718676865
3584.0,0.00020345125813037157
3840.0,-0.00020638036949094385
4096.0,-0.000513994658831507
4608.0,-0.0014189654029905796
5120.0,-0.002477415604516864
5632.0,-1.6853549823281355e-05
6144.0,-0.0013645464787259698
6656.0,-0.00201760814525187
7168.0,-0.0014716933947056532
7680.0,0.00031819933792576194
8192.0,-0.002632035640999675
9216.0,-5.278714161249809e-05
10240.0,0.0008293651626445353
11264.0,0.0011694938875734806
12288.0,0.0011457904474809766
13312.0,-4.358645674074069e-05
14336.0,0.00022811621602158993
end
