version,3.0
numOfCh,1
type,point
parent_name,dirty_0dot2-1dot0
ch_type,1_1
kcount,1
numberNandB,1
brightnessNandB,1
carpet pos,0
pc,0
Time (ms),CH1 Auto-Correlation
1.0,0.07839598506689072
2.0,0.07264893501996994
3.0,0.06754744052886963
4.0,0.06324868649244308
5.0,0.05952337756752968
6.0,0.05644268915057182
7.0,0.0536356046795845
8.0,0.05073978379368782
9.0,0.048242487013339996
10.0,0.045545440167188644
11.0,0.042531006038188934
12.0,0.040213290601968765
13.0,0.03865202143788338
14.0,0.037195175886154175
15.0,0.03610504791140556
16.0,0.0353112667798996
18.0,0.034425485879182816
20.0,0.033056821674108505
22.0,0.0313400998711586
24.0,0.029901694506406784
26.0,0.028788240626454353
28.0,0.027924656867980957
30.0,0.026638032868504524
32.0,0.025955168530344963
36.0,0.02483036369085312
40.0,0.02355654537677765
44.0,0.023249108344316483
48.0,0.022301815450191498
52.0,0.020172519609332085
56.0,0.0172380730509758
60.0,0.014793310314416885
64.0,0.013834232464432716
72.0,0.013259529136121273
80.0,0.01291467435657978
88.0,0.012526250444352627
96.0,0.013955922797322273
104.0,0.015137272886931896
112.0,0.01323112566024065
120.0,0.011683344841003418
128.0,0.011212479323148727
144.0,0.009465978480875492
160.0,0.008552582003176212
176.0,0.008050015196204185
192.0,0.007241148501634598
208.0,0.005934656597673893
224.0,0.004243016242980957
240.0,0.005545345135033131
256.0,0.005991058424115181
288.0,0.003823776263743639
320.0,0.0037877848371863365
352.0,0.002304849913343787
384.0,0.0015579798491671681
416.0,0.002934821182861924
448.0,0.004659996367990971
480.0,0.004931630101054907
512.0,0.005080772563815117
576.0,0.0016597200883552432
640.0,0.0009372060303576291
704.0,0.001146512571722269
768.0,0.004625400993973017
832.0,0.0038530281744897366
896.0,0.0016278401017189026
960.0,0.0033817735966295004
1024.0,0.0014972799690440297
1152.0,-0.0010073877638205886
1280.0,0.0012013657251372933
1408.0,-0.0027890901546925306
1536.0,-0.0010787802748382092
1664.0,-0.0013190627796575427
1792.0,-0.0057131219655275345
1920.0,-0.006554224994033575
2048.0,-0.004088874440640211
2304.0,-0.0024525602348148823
2560.0,-0.002192543353885412
2816.0,0.0011432832106947899
3072.0,0.001302675111219287
3328.0,0.002358044032007456
3584.0,-0.002129326807335019
3840.0,-0.004457372706383467
4096.0,-0.005675752181559801
4608.0,-0.0059958333149552345
5120.0,-0.004615004174411297
5632.0,0.0007610837346874177
6144.0,0.0014520921977236867
6656.0,0.004559698980301619
7168.0,0.0035470793955028057
7680.0,-1.3966793630970642e-05
8192.0,0.0009394871885888278
9216.0,0.004237792454659939
10240.0,-0.00013558192586060613
11264.0,-0.0065724668093025684
12288.0,0.0007968436111696064
13312.0,0.003252175636589527
14336.0,-0.0030644244980067015
end
