version,3.0
numOfCh,1
type,point
parent_name,dirty_0dot2-1dot0
ch_type,1_1
kcount,1
numberNandB,1
brightnessNandB,1
carpet pos,0
pc,0
Time (ms),CH1 Auto-Correlation
1.0,0.08464758098125458
2.0,0.07941880077123642
3.0,0.07427166402339935
4.0,0.07041795551776886
5.0,0.06688176095485687
6.0,0.06368912011384964
7.0,0.06094365194439888
8.0,0.058546729385852814
9.0,0.05603219196200371
10.0,0.05350290611386299
11.0,0.05078951641917229
12.0,0.048500917851924896
13.0,0.04641921818256378
14.0,0.045309122651815414
15.0,0.04445721581578255
16.0,0.04341631382703781
18.0,0.04159025102853775
20.0,0.03967049717903137
22.0,0.03745042160153389
24.0,0.034831080585718155
26.0,0.03215262293815613
28.0,0.029362641274929047
30.0,0.027128783985972404
32.0,0.02564968913793564
36.0,0.024746941402554512
40.0,0.024839244782924652
44.0,0.024678658694028854
48.0,0.023122718557715416
52.0,0.021708492189645767
56.0,0.021303696557879448
60.0,0.02139945514500141
64.0,0.019935110583901405
72.0,0.015458655543625355
80.0,0.013987400569021702
88.0,0.014536269940435886
96.0,0.015882376581430435
104.0,0.017068495973944664
112.0,0.017508072778582573
120.0,0.015199949964880943
128.0,0.013147616758942604
144.0,0.012082062661647797
160.0,0.010722702369093895
176.0,0.007623983081430197
192.0,0.006004584953188896
208.0,0.006279136054217815
224.0,0.005652365740388632
240.0,0.006292334757745266
256.0,0.008833980187773705
288.0,0.005952963139861822
320.0,0.0036336753983050585
352.0,0.0013851196272298694
384.0,-0.0015559602761641145
416.0,-0.0018841286655515432
448.0,-0.003917915280908346
480.0,-0.003561339108273387
512.0,-0.002476757625117898
576.0,0.002303705085068941
640.0,0.002239865018054843
704.0,0.003324112156406045
768.0,0.004928442183881998
832.0,0.004324332810938358
896.0,0.0027464102022349834
960.0,-0.0018322169780731201
1024.0,0.0013600438833236694
1152.0,0.0014027080032974482
1280.0,0.005204301327466965
1408.0,0.0056272526271641254
1536.0,0.004976414609700441
1664.0,0.0035164349246770144
1792.0,-0.0022433935664594173
1920.0,0.0007768711075186729
2048.0,0.00026918607181869447
2304.0,0.0011909713502973318
2560.0,-0.0020294967107474804
2816.0,0.010356842540204525
3072.0,0.006174085196107626
3328.0,-0.006562746595591307
3584.0,-0.0011858310317620635
3840.0,-0.002779917558655143
4096.0,-0.0039560128934681416
4608.0,-0.0019218998495489359
5120.0,0.002172385109588504
5632.0,0.0003135157166980207
6144.0,-0.0037216043565422297
6656.0,-0.005261868238449097
7168.0,-0.005519181955605745
7680.0,-0.004450783599168062
8192.0,-0.004755149129778147
9216.0,-0.007703629322350025
10240.0,0.0017975653754547238
11264.0,0.000622935825958848
12288.0,-0.0024458691477775574
13312.0,0.004858243279159069
14336.0,-0.0037832960952073336
end
