version,3.0
numOfCh,1
type,point
parent_name,dirty_0dot2-1dot0
ch_type,1_1
kcount,1
numberNandB,1
brightnessNandB,1
carpet pos,0
pc,0
Time (ms),CH1 Auto-Correlation
1.0,0.0901755765080452
2.0,0.08418404310941696
3.0,0.07841803133487701
4.0,0.073183573782444
5.0,0.06903841346502304
6.0,0.06565184146165848
7.0,0.06315621733665466
8.0,0.06106720492243767
9.0,0.05912714824080467
10.0,0.05732541158795357
11.0,0.05522298067808151
12.0,0.05351623147726059
13.0,0.05127275362610817
14.0,0.04915487393736839
15.0,0.04679300636053085
16.0,0.04488297179341316
18.0,0.04164810851216316
20.0,0.03888725861907005
22.0,0.03732174262404442
24.0,0.03608613833785057
26.0,0.03451179340481758
28.0,0.0323185995221138
30.0,0.030062584206461906
32.0,0.028077850118279457
36.0,0.02564968168735504
40.0,0.023249594494700432
44.0,0.021294541656970978
48.0,0.02078390307724476
52.0,0.0203337911516428
56.0,0.02004295215010643
60.0,0.020077001303434372
64.0,0.02021927386522293
72.0,0.020601529628038406
80.0,0.01987077109515667
88.0,0.018691012635827065
96.0,0.018616044893860817
104.0,0.017816618084907532
112.0,0.015553148463368416
120.0,0.01265707053244114
128.0,0.011407440528273582
144.0,0.009395310655236244
160.0,0.005744331516325474
176.0,0.0021761530078947544
192.0,0.001339935464784503
208.0,0.00223408336751163
224.0,0.002131497487425804
240.0,0.0027012997306883335
256.0,-0.00028251964249648154
288.0,-0.003341361880302429
320.0,-0.0025037694722414017
352.0,0.0018167321104556322
384.0,-0.000523577444255352
416.0,0.0009980632457882166
448.0,0.005045156925916672
480.0,0.00529483612626791
512.0,0.002279721898958087
576.0,0.004074425902217627
640.0,0.002950503956526518
704.0,0.0023700196761637926
768.0,0.0020307174418121576
832.0,-0.0007417743327096105
896.0,-0.000493183615617454
960.0,-0.001509074354544282
1024.0,-0.003187274793162942
1152.0,-0.003304894780740142
1280.0,-0.0004394811694510281
1408.0,-0.0027333651669323444
1536.0,-0.0029662433080375195
1664.0,-0.0030580584425479174
1792.0,-0.0016658541280776262
1920.0,0.002007929142564535
2048.0,0.0018662491347640753
2304.0,-0.0034057919401675463
2560.0,0.0018859439296647906
2816.0,1.5665291357436217e-05
3072.0,-0.0029232094530016184
3328.0,-6.838726403657347e-05
3584.0,-0.002733254339545965
3840.0,0.0005737104220315814
4096.0,0.0016101193614304066
4608.0,0.0016428667586296797
5120.0,0.000959233904723078
5632.0,-0.0009839669801294804
6144.0,-0.0013908243272453547
6656.0,-0.0023761694319546223
7168.0,-0.0008275647414848208
7680.0,-0.002304882975295186
8192.0,-0.0012729561422020197
9216.0,0.0010944869136437774
10240.0,-0.001724276109598577
11264.0,-0.0076232063584029675
12288.0,-0.00010120082879438996
13312.0,0.003176162950694561
14336.0,0.005889710038900375
end
