version,3.0
numOfCh,1
type,point
parent_name,dirty_0dot2-1dot0
ch_type,1_1
kcount,1
numberNandB,1
brightnessNandB,1
carpet pos,0
pc,0
Time (ms),CH1 Auto-Correlation
1.0,0.13991831243038177
2.0,0.1306733936071396
3.0,0.12231536954641342
4.0,0.11537966132164001
5.0,0.10834676772356033
6.0,0.10243414342403412
7.0,0.09731927514076233
8.0,0.09259753674268723
9.0,0.08792033791542053
10.0,0.08287335932254791
11.0,0.07879801094532013
12.0,0.074254110455513
13.0,0.07035055756568909
14.0,0.06693059206008911
15.0,0.06404624134302139
16.0,0.06093567982316017
18.0,0.056061938405036926
20.0,0.05150789022445679
22.0,0.04787515848875046
24.0,0.044059790670871735
26.0,0.04072520136833191
28.0,0.0376301072537899
30.0,0.035966210067272186
32.0,0.034423038363456726
36.0,0.03264665603637695
40.0,0.030301706865429878
44.0,0.027218515053391457
48.0,0.024350404739379883
52.0,0.02152365632355213
56.0,0.01928631402552128
60.0,0.016570620238780975
64.0,0.013774299062788486
72.0,0.009823049418628216
80.0,0.010562453418970108
88.0,0.00867678876966238
96.0,0.006803192663937807
104.0,0.005355230998247862
112.0,0.003990004770457745
120.0,0.0023736252915114164
128.0,0.0018794466741383076
144.0,0.0053056818433105946
160.0,0.002902672393247485
176.0,0.0017273003468289971
192.0,0.0005764227826148272
208.0,0.002272106474265456
224.0,0.0013863478088751435
240.0,-0.00044630252523347735
256.0,-0.002866908675059676
288.0,-0.0041276030242443085
320.0,-0.00481404410675168
352.0,-0.007083900272846222
384.0,-0.006194429472088814
416.0,-0.008369634859263897
448.0,-0.006845909636467695
480.0,-0.0038454998284578323
512.0,0.007480262778699398
576.0,-0.0021121022291481495
640.0,-0.002232976956292987
704.0,0.008222131058573723
768.0,0.0003424919268582016
832.0,-0.005369610618799925
896.0,-0.005057115573436022
960.0,-0.006002981215715408
1024.0,-0.004630597308278084
1152.0,-0.005430905614048243
1280.0,0.003892666893079877
1408.0,0.004355596844106913
1536.0,0.002453197492286563
1664.0,-0.00430001225322485
1792.0,0.0012168287066742778
1920.0,-0.004605431575328112
2048.0,-0.005826315376907587
2304.0,-0.0022319189738482237
2560.0,-0.0005724785733036697
2816.0,0.0010223780991509557
3072.0,0.005770437885075808
3328.0,0.0009175693267025054
3584.0,-0.006356771104037762
3840.0,0.0020231674425303936
4096.0,0.007208432070910931
4608.0,-0.001126559916883707
5120.0,0.0009057768620550632
5632.0,-0.0016048983670771122
6144.0,-0.002574714832007885
6656.0,-0.0030331863090395927
7168.0,0.004252075217664242
7680.0,0.0012058058055117726
8192.0,0.0013979964423924685
9216.0,0.0017511576879769564
10240.0,-0.00445122504606843
11264.0,-0.0003546231018844992
12288.0,0.003046602476388216
13312.0,-0.005493862088769674
14336.0,0.0019408388761803508
end
