version,3.0
numOfCh,1
type,point
parent_name,dirty_0dot2-1dot0
ch_type,1_1
kcount,1
numberNandB,1
brightnessNandB,1
carpet pos,0
pc,0
Time (ms),CH1 Auto-Correlation
1.0,0.10799816995859146
2.0,0.09927748888731003
3.0,0.09298992902040482
4.0,0.08686303347349167
5.0,0.08124679327011108
6.0,0.0758671909570694
7.0,0.07132945209741592
8.0,0.0667552500963211
9.0,0.0626484677195549
10.0,0.05867184326052666
11.0,0.055348385125398636
12.0,0.053382162004709244
13.0,0.050513651221990585
14.0,0.048291392624378204
15.0,0.04648823291063309
16.0,0.04435666278004646
18.0,0.04077885299921036
20.0,0.037294358015060425
22.0,0.033136460930109024
24.0,0.03030436858534813
26.0,0.027215491980314255
28.0,0.02475990727543831
30.0,0.023773465305566788
32.0,0.02365022711455822
36.0,0.02330651506781578
40.0,0.02218511328101158
44.0,0.019807614386081696
48.0,0.01872272416949272
52.0,0.019327478483319283
56.0,0.018067624419927597
60.0,0.017270557582378387
64.0,0.01724054105579853
72.0,0.01636192761361599
80.0,0.017571382224559784
88.0,0.019921371713280678
96.0,0.01766221784055233
104.0,0.013450144790112972
112.0,0.010405273176729679
120.0,0.007325311657041311
128.0,0.0055846041068434715
144.0,0.005759837105870247
160.0,0.0075814491137862206
176.0,0.004586983937770128
192.0,0.0033625378273427486
208.0,0.0033428759779781103
224.0,0.00300223589874804
240.0,0.006215761415660381
256.0,0.005574373062700033
288.0,0.002425173530355096
320.0,0.005099844187498093
352.0,0.004563355352729559
384.0,0.0037304807920008898
416.0,0.005215100944042206
448.0,0.005346023477613926
480.0,0.005980290938168764
512.0,0.011184589937329292
576.0,0.00042099112761206925
640.0,-0.0022141081281006336
704.0,-0.0018988264491781592
768.0,-0.0010412238771095872
832.0,-0.00016891048289835453
896.0,-0.0004758484719786793
960.0,0.002272933954373002
1024.0,0.0018566376529633999
1152.0,-0.0007861927733756602
1280.0,-0.0009199409978464246
1408.0,-0.0006699020159430802
1536.0,-0.0034898165613412857
1664.0,-0.0019610044546425343
1792.0,-0.002348031150177121
1920.0,-0.002096553798764944
2048.0,-0.000861314358189702
2304.0,-0.0029915987979620695
2560.0,0.001397431711666286
2816.0,-0.0009749903110787272
3072.0,0.00218043546192348
3328.0,-0.005354220513254404
3584.0,4.895067468169145e-05
3840.0,-7.351187377935275e-05
4096.0,0.004241906106472015
4608.0,-0.006849842611700296
5120.0,-0.004556428641080856
5632.0,-0.0007091440493240952
6144.0,0.002803074661642313
6656.0,0.006098166108131409
7168.0,-0.0037802911829203367
7680.0,-0.0028364770114421844
8192.0,0.0002989219210576266
9216.0,0.00030659305048175156
10240.0,0.0006978829042054713
11264.0,-0.0030326100531965494
12288.0,-0.001466099638491869
13312.0,0.0025685206055641174
14336.0,-0.0010256101377308369
end
