version,3.0
numOfCh,1
type,point
parent_name,dirty_0dot2-1dot0
ch_type,1_1
kcount,1
numberNandB,1
brightnessNandB,1
carpet pos,0
pc,0
Time (ms),CH1 Auto-Correlation
1.0,0.15238156914710999
2.0,0.14005520939826965
3.0,0.13081657886505127
4.0,0.12356532365083694
5.0,0.11614357680082321
6.0,0.11165885627269745
7.0,0.10671550780534744
8.0,0.10222186148166656
9.0,0.09691113233566284
10.0,0.09277135878801346
11.0,0.08843448758125305
12.0,0.08457326889038086
13.0,0.08177459985017776
14.0,0.07899745553731918
15.0,0.07693655788898468
16.0,0.07583058625459671
18.0,0.07316071540117264
20.0,0.06916223466396332
22.0,0.06579583883285522
24.0,0.06214677914977074
26.0,0.0591295063495636
28.0,0.057755716145038605
30.0,0.05502021312713623
32.0,0.05177118629217148
36.0,0.04484333097934723
40.0,0.039740487933158875
44.0,0.037337541580200195
48.0,0.037699975073337555
52.0,0.0395633839070797
56.0,0.041004739701747894
60.0,0.04158902168273926
64.0,0.03893378749489784
72.0,0.03311288729310036
80.0,0.029443012550473213
88.0,0.025483334437012672
96.0,0.02108069509267807
104.0,0.015544821508228779
112.0,0.010943008586764336
120.0,0.00797298364341259
128.0,0.0050818221643567085
144.0,0.0010077734477818012
160.0,-0.001533358939923346
176.0,-0.006408839952200651
192.0,-0.008641727268695831
208.0,-0.006242485251277685
224.0,-0.0006338250241242349
240.0,0.002873511053621769
256.0,0.001934077125042677
288.0,0.002377693774178624
320.0,0.0007170995813794434
352.0,0.0018848233157768846
384.0,0.002771191531792283
416.0,-0.001040960312820971
448.0,0.0020424898248165846
480.0,0.0013812310062348843
512.0,-0.0021448584739118814
576.0,-0.005893482360988855
640.0,-0.002625222085043788
704.0,0.0017002749955281615
768.0,-0.0003253666218370199
832.0,-0.004198405425995588
896.0,-0.0024881938006728888
960.0,0.0014398740604519844
1024.0,0.0006275849882513285
1152.0,-0.004122015554457903
1280.0,-0.004262715578079224
1408.0,-0.0017747414531186223
1536.0,-0.004658543970435858
1664.0,-0.004486792720854282
1792.0,-0.009006456471979618
1920.0,0.011748619377613068
2048.0,0.008464530110359192
2304.0,-0.00038147138548083603
2560.0,-0.0010681330459192395
2816.0,0.0020992292556911707
3072.0,0.0003583088982850313
3328.0,0.0013146961573511362
3584.0,-0.005507092922925949
3840.0,-0.0007344516925513744
4096.0,0.0017183267045766115
4608.0,-0.0005490321782417595
5120.0,-0.0038733752444386482
5632.0,0.008731844834983349
6144.0,-0.0007443631766363978
6656.0,-0.005261564161628485
7168.0,4.9727009354683105e-06
7680.0,-0.006390900816768408
8192.0,-0.0013830988900735974
9216.0,0.0054189106449484825
10240.0,-0.0034726434387266636
11264.0,0.0035812323912978172
12288.0,-0.007944971323013306
13312.0,-0.003070275532081723
14336.0,0.0048856353387236595
end
