version,3.0
numOfCh,1
type,point
parent_name,dirty_0dot2-1dot0
ch_type,1_1
kcount,1
numberNandB,1
brightnessNandB,1
carpet pos,0
pc,0
Time (ms),CH1 Auto-Correlation
1.0,0.11907030642032623
2.0,0.11043005436658859
3.0,0.10188640654087067
4.0,0.0948863998055458
5.0,0.08928579837083817
6.0,0.08477858453989029
7.0,0.08052564412355423
8.0,0.07661247253417969
9.0,0.07336420565843582
10.0,0.0705956369638443
11.0,0.06827056407928467
12.0,0.0659000426530838
13.0,0.06363552063703537
14.0,0.061764948070049286
15.0,0.06028582155704498
16.0,0.05875258147716522
18.0,0.05612556263804436
20.0,0.0539366789162159
22.0,0.0515558123588562
24.0,0.049330033361911774
26.0,0.04683281108736992
28.0,0.04462457448244095
30.0,0.0434645377099514
32.0,0.04320994392037392
36.0,0.04113228991627693
40.0,0.0377211757004261
44.0,0.033335745334625244
48.0,0.03049621917307377
52.0,0.029270943254232407
56.0,0.029111376032233238
60.0,0.028354262933135033
64.0,0.025763550773262978
72.0,0.02174655720591545
80.0,0.0193190835416317
88.0,0.019861433655023575
96.0,0.019009511917829514
104.0,0.016608355566859245
112.0,0.01711850054562092
120.0,0.015034336596727371
128.0,0.01386970467865467
144.0,0.011391029693186283
160.0,0.013206759467720985
176.0,0.011505471542477608
192.0,0.00621397327631712
208.0,0.005552371963858604
224.0,0.006319609936326742
240.0,0.004765471909195185
256.0,0.004709784872829914
288.0,0.006254032254219055
320.0,0.0046718236990273
352.0,0.0014543604338541627
384.0,-0.0005809320718981326
416.0,0.0009294089395552874
448.0,0.0014377821935340762
480.0,0.0011070894543081522
512.0,0.0013097025221213698
576.0,0.0008451509056612849
640.0,0.0018419250845909119
704.0,0.0025109611451625824
768.0,0.0010756939882412553
832.0,0.0006871895748190582
896.0,0.002012846292927861
960.0,0.002622085390612483
1024.0,-0.0013442630879580975
1152.0,-0.005097758024930954
1280.0,-0.0080246701836586
1408.0,-0.007485855836421251
1536.0,-0.0014693605480715632
1664.0,0.0023907609283924103
1792.0,0.0003920971357729286
1920.0,-8.793944289209321e-05
2048.0,0.003516820026561618
2304.0,-0.0012259762734174728
2560.0,-0.006073081865906715
2816.0,-0.0006932360702194273
3072.0,-0.004026942420750856
3328.0,-0.004074675031006336
3584.0,-0.0003629163547884673
3840.0,0.0016815566923469305
4096.0,-0.0002542685251682997
4608.0,-0.0007484157686121762
5120.0,0.0060303364880383015
5632.0,0.012937088496983051
6144.0,-0.002068029949441552
6656.0,-0.0015109444502741098
7168.0,-0.0014082022244110703
7680.0,-0.005116323009133339
8192.0,-0.004595752339810133
9216.0,0.006665586493909359
10240.0,-0.009418229572474957
11264.0,0.004103220999240875
12288.0,-0.005134020000696182
13312.0,-0.002951543778181076
14336.0,0.007672401610761881
end
