version,3.0
numOfCh,1
type,point
parent_name,dirty_0dot2-1dot0
ch_type,1_1
kcount,1
numberNandB,1
brightnessNandB,1
carpet pos,0
pc,0
Time (ms),CH1 Auto-Correlation
1.0,0.1756582409143448
2.0,0.16218270361423492
3.0,0.15092366933822632
4.0,0.14227449893951416
5.0,0.13454747200012207
6.0,0.1275767832994461
7.0,0.12024339288473129
8.0,0.11341223120689392
9.0,0.10784504562616348
10.0,0.10430818796157837
11.0,0.10115815699100494
12.0,0.09908121824264526
13.0,0.09547100216150284
14.0,0.09230107069015503
15.0,0.08801870048046112
16.0,0.08372392505407333
18.0,0.07808741927146912
20.0,0.07216163724660873
22.0,0.06587744504213333
24.0,0.06329327076673508
26.0,0.06275419145822525
28.0,0.0616745688021183
30.0,0.06146994233131409
32.0,0.061327461153268814
36.0,0.055689651519060135
40.0,0.05063125863671303
44.0,0.04602286219596863
48.0,0.041600365191698074
52.0,0.0346013642847538
56.0,0.030150458216667175
60.0,0.02626960538327694
64.0,0.023519493639469147
72.0,0.022711237892508507
80.0,0.024961115792393684
88.0,0.025815442204475403
96.0,0.026092855259776115
104.0,0.024039028212428093
112.0,0.01835000142455101
120.0,0.013920731842517853
128.0,0.013629890978336334
144.0,0.009818824008107185
160.0,0.00290959095582366
176.0,0.004150792490690947
192.0,0.004657267592847347
208.0,0.005070407409220934
224.0,0.005455571226775646
240.0,0.005610831081867218
256.0,0.002857623156160116
288.0,-0.008180406875908375
320.0,-0.007447071373462677
352.0,-0.0035686094779521227
384.0,-0.0032353417482227087
416.0,-0.0018933898536488414
448.0,0.0024417873937636614
480.0,0.0008888799347914755
512.0,0.0007498585619032383
576.0,0.006375063676387072
640.0,0.003170986659824848
704.0,0.0038501040544360876
768.0,0.004849598743021488
832.0,0.003918614704161882
896.0,-0.003293486312031746
960.0,0.00420927070081234
1024.0,6.272516475291923e-05
1152.0,0.00371355633251369
1280.0,0.013136764988303185
1408.0,0.008993296884000301
1536.0,0.0013115914771333337
1664.0,-0.0038433659356087446
1792.0,-0.005151921417564154
1920.0,-0.004025322385132313
2048.0,-0.0014683615881949663
2304.0,-0.0017144166631624103
2560.0,0.0018971136305481195
2816.0,-0.001782370381988585
3072.0,-0.005483589135110378
3328.0,-0.004777013789862394
3584.0,-0.005585934035480022
3840.0,-0.0029441099613904953
4096.0,-0.004798862151801586
4608.0,-0.004122880753129721
5120.0,-0.006170040462166071
5632.0,-0.002720961347222328
6144.0,-0.005134083330631256
6656.0,0.002511619823053479
7168.0,0.0008615555707365274
7680.0,0.0010834864806383848
8192.0,0.001399025321006775
9216.0,-0.00035540483077056706
10240.0,0.0005583911552093923
11264.0,0.002636619843542576
12288.0,0.005361458286643028
13312.0,0.0022124587558209896
14336.0,-0.003947380464524031
end
