version,3.0
numOfCh,1
type,point
parent_name,dirty_0dot2-1dot0
ch_type,1_1
kcount,1
numberNandB,1
brightnessNandB,1
carpet pos,0
pc,0
Time (ms),CH1 Auto-Correlation
1.0,0.055830810219049454
2.0,0.052413295954465866
3.0,0.049154214560985565
4.0,0.046602047979831696
5.0,0.04396812990307808
6.0,0.04149642959237099
7.0,0.03905331715941429
8.0,0.03683421015739441
9.0,0.0353967510163784
10.0,0.03397334739565849
11.0,0.03280309587717056
12.0,0.031791362911462784
13.0,0.030759016051888466
14.0,0.029463129118084908
15.0,0.028311166912317276
16.0,0.027426259592175484
18.0,0.025851547718048096
20.0,0.024045147001743317
22.0,0.02242996357381344
24.0,0.02120300941169262
26.0,0.019695758819580078
28.0,0.018719995394349098
30.0,0.017961546778678894
32.0,0.017118530347943306
36.0,0.01631665602326393
40.0,0.016136813908815384
44.0,0.01544201746582985
48.0,0.013751000165939331
52.0,0.012397044338285923
56.0,0.012129346840083599
60.0,0.01264938898384571
64.0,0.012518076226115227
72.0,0.01096755638718605
80.0,0.009859629906713963
88.0,0.008298787288367748
96.0,0.006848962511867285
104.0,0.006982862949371338
112.0,0.006954641081392765
120.0,0.005369307938963175
128.0,0.0042570410296320915
144.0,0.0036010569892823696
160.0,0.0048347460106015205
176.0,0.0030697446782141924
192.0,-0.00021543254842981696
208.0,-1.395833351125475e-05
224.0,0.0003852729860227555
240.0,0.0004510994185693562
256.0,0.0008253974956460297
288.0,0.003225186141207814
320.0,0.005234742537140846
352.0,0.0035079221706837416
384.0,0.0038482067175209522
416.0,0.003839947981759906
448.0,0.0024213113356381655
480.0,0.0020034159533679485
512.0,0.0011503928108140826
576.0,0.0020825110841542482
640.0,0.002044008346274495
704.0,0.0030984878540039062
768.0,0.0002957710821647197
832.0,-0.000757932080887258
896.0,-0.00011977886606473476
960.0,0.0011356896720826626
1024.0,0.0022269657347351313
1152.0,-0.00010733352246461436
1280.0,0.0018687767442315817
1408.0,0.0021290534641593695
1536.0,-0.000292591837933287
1664.0,-0.0005235449643805623
1792.0,-0.003093077102676034
1920.0,-0.0005204265471547842
2048.0,0.002160090021789074
2304.0,-0.0023660091683268547
2560.0,-0.0016481985803693533
2816.0,0.00042615600978024304
3072.0,-0.0030937050469219685
3328.0,-0.0005810001748614013
3584.0,-0.002040291903540492
3840.0,-0.0033656591549515724
4096.0,-0.004771564155817032
4608.0,-0.0009459411958232522
5120.0,-0.00145168777089566
5632.0,-3.505175845930353e-05
6144.0,0.002421006327494979
6656.0,0.002188806189224124
7168.0,0.0012305864365771413
7680.0,0.0011382803786545992
8192.0,6.327937444439158e-05
9216.0,-0.0009650035062804818
10240.0,-0.003549199318513274
11264.0,-0.003401737427338958
12288.0,0.000788312463555485
13312.0,0.0020286659710109234
14336.0,0.002301274100318551
end
