version,3.0
numOfCh,1
type,point
parent_name,dirty_0dot2-1dot0
ch_type,1_1
kcount,1
numberNandB,1
brightnessNandB,1
carpet pos,0
pc,0
Time (ms),CH1 Auto-Correlation
1.0,0.0797036662697792
2.0,0.07398807257413864
3.0,0.0689319595694542
4.0,0.06480716913938522
5.0,0.061377596110105515
6.0,0.058683086186647415
7.0,0.055758167058229446
8.0,0.05292113497853279
9.0,0.05038929730653763
10.0,0.04796966165304184
11.0,0.04592147096991539
12.0,0.044174924492836
13.0,0.042658668011426926
14.0,0.04161117225885391
15.0,0.041047003120183945
16.0,0.04068458080291748
18.0,0.03902314230799675
20.0,0.0374378077685833
22.0,0.03616521880030632
24.0,0.0352853387594223
26.0,0.03479182347655296
28.0,0.03399541974067688
30.0,0.032590340822935104
32.0,0.030722595751285553
36.0,0.027900228276848793
40.0,0.025980301201343536
44.0,0.0257059708237648
48.0,0.025401467457413673
52.0,0.024206941947340965
56.0,0.02277836948633194
60.0,0.02118813991546631
64.0,0.020799851045012474
72.0,0.020215336233377457
80.0,0.018677690997719765
88.0,0.016087474301457405
96.0,0.01359514519572258
104.0,0.01176859438419342
112.0,0.01197030022740364
120.0,0.011034365743398666
128.0,0.008968578651547432
144.0,0.008265090174973011
160.0,0.008571562357246876
176.0,0.008042396977543831
192.0,0.006179955787956715
208.0,0.0052438522689044476
224.0,0.004056151024997234
240.0,0.00350421410985291
256.0,0.003042482305318117
288.0,-0.00023422222875524312
320.0,-0.0008230800158344209
352.0,-0.00045834481716156006
384.0,-0.0005439078668132424
416.0,-0.0012729587033390999
448.0,-0.0005563325248658657
480.0,-0.0027139182202517986
512.0,-0.002618052065372467
576.0,-0.0010799645679071546
640.0,-0.0009921389864757657
704.0,0.001024532481096685
768.0,-0.000271187920589
832.0,0.00014533982903230935
896.0,0.00032844560337252915
960.0,0.0009687783312983811
1024.0,0.0026444916147738695
1152.0,0.0038600361440330744
1280.0,-1.1195577826583758e-05
1408.0,-0.002282190602272749
1536.0,-0.0009071507956832647
1664.0,-0.00036292383447289467
1792.0,0.003066297387704253
1920.0,-0.004167735576629639
2048.0,-0.002318545011803508
2304.0,0.002230981597676873
2560.0,7.137579814298078e-05
2816.0,-0.002630761358886957
3072.0,-0.0017787457909435034
3328.0,0.0021676006726920605
3584.0,0.0015878878766670823
3840.0,-0.005799024365842342
4096.0,-0.001624820288270712
4608.0,0.005060404073446989
5120.0,0.0017280528554692864
5632.0,0.0021545591298490763
6144.0,-0.0014039668021723628
6656.0,-0.0004439312615431845
7168.0,-0.0015750005841255188
7680.0,-0.001763933920301497
8192.0,-0.0058763776905834675
9216.0,-0.0009958819719031453
10240.0,-0.0010399629827588797
11264.0,-0.004651171620935202
12288.0,0.0010267795296385884
13312.0,-0.005643474869430065
14336.0,0.004003125708550215
end
