version,3.0
numOfCh,1
type,point
parent_name,dirty_0dot2-1dot0
ch_type,1_1
kcount,1
numberNandB,1
brightnessNandB,1
carpet pos,0
pc,0
Time (ms),CH1 Auto-Correlation
1.0,0.22041548788547516
2.0,0.20343855023384094
3.0,0.18973226845264435
4.0,0.17736680805683136
5.0,0.16709603369235992
6.0,0.15687930583953857
7.0,0.14757178723812103
8.0,0.1391252726316452
9.0,0.13297970592975616
10.0,0.12780141830444336
11.0,0.12295415252447128
12.0,0.11808133870363235
13.0,0.11426660418510437
14.0,0.10936932265758514
15.0,0.10570079833269119
16.0,0.10268720239400864
18.0,0.09384496510028839
20.0,0.08700013905763626
22.0,0.08284401893615723
24.0,0.07879482954740524
26.0,0.07595100998878479
28.0,0.07337673753499985
30.0,0.07036788761615753
32.0,0.06618444621562958
36.0,0.05806274339556694
40.0,0.054581645876169205
44.0,0.051240094006061554
48.0,0.0484808087348938
52.0,0.046009548008441925
56.0,0.04256685823202133
60.0,0.03938368335366249
64.0,0.03631584346294403
72.0,0.038980577141046524
80.0,0.035777151584625244
88.0,0.027500443160533905
96.0,0.024308010935783386
104.0,0.027371970936655998
112.0,0.027540698647499084
120.0,0.025990083813667297
128.0,0.021880649030208588
144.0,0.01939018815755844
160.0,0.021034948527812958
176.0,0.015868134796619415
192.0,0.012694766744971275
208.0,0.001952284132130444
224.0,0.003783234627917409
240.0,0.00697388406842947
256.0,0.004642782267183065
288.0,0.0012050854275003076
320.0,0.0013676026137545705
352.0,0.004054831340909004
384.0,-0.006853726226836443
416.0,-0.005728653632104397
448.0,-0.009117736481130123
480.0,-0.011028405278921127
512.0,-0.004568134434521198
576.0,-0.005240091122686863
640.0,-0.0014109221519902349
704.0,0.010681414045393467
768.0,0.00714486138895154
832.0,0.0036731467116624117
896.0,-0.001808107946999371
960.0,0.0007110758451744914
1024.0,-0.003832792164757848
1152.0,-0.019046010449528694
1280.0,-0.015454472973942757
1408.0,-0.017676696181297302
1536.0,-0.010804670862853527
1664.0,-0.0009435784886591136
1792.0,-0.0011655817506834865
1920.0,-0.01077707577496767
2048.0,-0.0012993717100471258
2304.0,-0.0014688449446111917
2560.0,0.006238941103219986
2816.0,0.009822366759181023
3072.0,0.00270738429389894
3328.0,0.004964425228536129
3584.0,-0.009319654665887356
3840.0,-0.009351024404168129
4096.0,-0.0035874228924512863
4608.0,-0.009767153300344944
5120.0,0.012968562543392181
5632.0,0.00995698943734169
6144.0,-0.0015974505804479122
6656.0,-0.01585528440773487
7168.0,0.0016773381503298879
7680.0,0.0021020681597292423
8192.0,0.0061966897919774055
9216.0,-0.002395859220996499
10240.0,-0.0045167384669184685
11264.0,0.0007839895552024245
12288.0,-0.006313633173704147
13312.0,0.011003856547176838
14336.0,0.011289197020232677
end
