version,3.0
numOfCh,1
type,point
parent_name,dirty_0dot2-1dot0
ch_type,1_1
kcount,1
numberNandB,1
brightnessNandB,1
carpet pos,0
pc,0
Time (ms),CH1 Auto-Correlation
1.0,0.12359379976987839
2.0,0.11366195976734161
3.0,0.10531177371740341
4.0,0.09849482774734497
5.0,0.0937909334897995
6.0,0.08981332927942276
7.0,0.08673122525215149
8.0,0.08374062180519104
9.0,0.08042073994874954
10.0,0.07717587798833847
11.0,0.07421736419200897
12.0,0.07198236882686615
13.0,0.06925629079341888
14.0,0.06642685830593109
15.0,0.06417692452669144
16.0,0.06246504560112953
18.0,0.058437708765268326
20.0,0.0543341301381588
22.0,0.05197014659643173
24.0,0.049508631229400635
26.0,0.04593658074736595
28.0,0.04315722733736038
30.0,0.04037180542945862
32.0,0.03893490880727768
36.0,0.03673451393842697
40.0,0.03568757325410843
44.0,0.03475504741072655
48.0,0.03375443443655968
52.0,0.03162764385342598
56.0,0.030385645106434822
60.0,0.028588684275746346
64.0,0.027487553656101227
72.0,0.024510851129889488
80.0,0.025183547288179398
88.0,0.027648862451314926
96.0,0.0292680561542511
104.0,0.02818256802856922
112.0,0.026414988562464714
120.0,0.02364996075630188
128.0,0.02260086126625538
144.0,0.020719191059470177
160.0,0.015855025500059128
176.0,0.010662296786904335
192.0,0.006935139652341604
208.0,0.005507069639861584
224.0,0.007207836024463177
240.0,0.00636232178658247
256.0,0.007636928465217352
288.0,0.007415096741169691
320.0,0.004820067435503006
352.0,0.0041849324479699135
384.0,0.0012103423941880465
416.0,-0.0010322271846234798
448.0,-0.0011596783297136426
480.0,-0.0012229176936671138
512.0,-0.0034752085339277983
576.0,-0.0014003398828208447
640.0,-0.002318113809451461
704.0,-0.001795770600438118
768.0,-0.00080351741053164
832.0,0.004880719818174839
896.0,0.005313869100064039
960.0,-0.0009862101869657636
1024.0,-0.0030784751288592815
1152.0,-0.005048633553087711
1280.0,-0.008941534906625748
1408.0,-0.008258022367954254
1536.0,-0.005421638023108244
1664.0,0.00037514950963668525
1792.0,0.002495184075087309
1920.0,0.001384213799610734
2048.0,0.0010449670953676105
2304.0,0.00410494115203619
2560.0,0.005541965831071138
2816.0,-0.0011543871369212866
3072.0,-0.004181573633104563
3328.0,-0.0018782183760777116
3584.0,-0.0029693301767110825
3840.0,0.001025714329443872
4096.0,0.005877455696463585
4608.0,0.0003868993080686778
5120.0,-0.003980763256549835
5632.0,-0.002511597005650401
6144.0,0.002445799298584461
6656.0,0.0013014774303883314
7168.0,-0.001642853021621704
7680.0,-0.0041823857463896275
8192.0,0.007230828050523996
9216.0,-0.005243667867034674
10240.0,-0.00025104140513576567
11264.0,-0.004412536974996328
12288.0,0.0015984681667760015
13312.0,-0.0073057203553617
14336.0,0.003860961180180311
end
