version,3.0
numOfCh,1
type,point
parent_name,dirty_0dot2-1dot0
ch_type,1_1
kcount,1
numberNandB,1
brightnessNandB,1
carpet pos,0
pc,0
Time (ms),CH1 Auto-Correlation
1.0,0.10851806402206421
2.0,0.10012505948543549
3.0,0.09235049039125443
4.0,0.08652692288160324
5.0,0.08134540915489197
6.0,0.07679909467697144
7.0,0.07345442473888397
8.0,0.07064809650182724
9.0,0.0684310644865036
10.0,0.0658230409026146
11.0,0.06374644488096237
12.0,0.061378754675388336
13.0,0.05979452654719353
14.0,0.057501599192619324
15.0,0.05545148625969887
16.0,0.05310197174549103
18.0,0.049564000219106674
20.0,0.04596593976020813
22.0,0.04331282898783684
24.0,0.039698123931884766
26.0,0.036306384950876236
28.0,0.03358032926917076
30.0,0.03147920221090317
32.0,0.029418954625725746
36.0,0.023809753358364105
40.0,0.021607182919979095
44.0,0.021165261045098305
48.0,0.02112215757369995
52.0,0.020377328619360924
56.0,0.019341615960001945
60.0,0.018853330984711647
64.0,0.01724904030561447
72.0,0.01680288463830948
80.0,0.015923485159873962
88.0,0.014592759311199188
96.0,0.013233841396868229
104.0,0.01283265184611082
112.0,0.012431811541318893
120.0,0.009047300554811954
128.0,0.007711223792284727
144.0,0.005527048837393522
160.0,0.003670282894745469
176.0,0.0025209281593561172
192.0,0.004223526455461979
208.0,-4.686938336817548e-05
224.0,-0.0018909535137936473
240.0,0.0029842813964933157
256.0,0.001504447776824236
288.0,-0.0027176705189049244
320.0,-2.055639197351411e-05
352.0,-0.003047045785933733
384.0,-0.004606976173818111
416.0,-0.004677293822169304
448.0,-0.0031863416079431772
480.0,-0.002285049995407462
512.0,-0.0015600111801177263
576.0,0.0007876098388805985
640.0,0.007193789817392826
704.0,0.0004872675344813615
768.0,0.000281556393019855
832.0,-0.003030036808922887
896.0,0.0024595248978585005
960.0,0.0035494558978825808
1024.0,-0.0011608247878029943
1152.0,0.004507273901253939
1280.0,-0.0003069207305088639
1408.0,0.0014845234109088778
1536.0,0.0011411530431360006
1664.0,0.0005706008523702621
1792.0,0.0016110939905047417
1920.0,0.00028237252263352275
2048.0,-0.0013125521363690495
2304.0,-0.0012478029821068048
2560.0,-0.0031779769342392683
2816.0,0.00024501309962943196
3072.0,-0.0017047047149389982
3328.0,-0.003260399680584669
3584.0,-0.0018962481990456581
3840.0,-0.004575232043862343
4096.0,-0.003055071458220482
4608.0,-0.004892057739198208
5120.0,-0.003327613929286599
5632.0,-0.001039295457303524
6144.0,0.0007256890530698001
6656.0,0.0003257187781855464
7168.0,0.0001853804278653115
7680.0,0.0032814552541822195
8192.0,0.001184656866826117
9216.0,0.005166322458535433
10240.0,0.0013262052088975906
11264.0,0.00126027746591717
12288.0,-0.005451429635286331
13312.0,0.0005446342402137816
14336.0,-0.0065118297934532166
end
