version,3.0
numOfCh,1
type,point
parent_name,dirty_0dot2-1dot0
ch_type,1_1
kcount,1
numberNandB,1
brightnessNandB,1
carpet pos,0
pc,0
Time (ms),CH1 Auto-Correlation
1.0,0.10918401181697845
2.0,0.10143497586250305
3.0,0.0939331129193306
4.0,0.08759982138872147
5.0,0.08229610323905945
6.0,0.07826149463653564
7.0,0.07511351257562637
8.0,0.07190754264593124
9.0,0.06876982003450394
10.0,0.06463193148374557
11.0,0.06172990798950195
12.0,0.059173665940761566
13.0,0.056400198489427567
14.0,0.05387795343995094
15.0,0.051965199410915375
16.0,0.05089094862341881
18.0,0.049226272851228714
20.0,0.047676291316747665
22.0,0.0456068255007267
24.0,0.04376029223203659
26.0,0.04210791364312172
28.0,0.040954962372779846
30.0,0.03869625926017761
32.0,0.036801837384700775
36.0,0.03523307293653488
40.0,0.0308337714523077
44.0,0.02756832353770733
48.0,0.024953274056315422
52.0,0.022852391004562378
56.0,0.02163006365299225
60.0,0.021479178220033646
64.0,0.021199906244874
72.0,0.017670035362243652
80.0,0.017488742247223854
88.0,0.01623648777604103
96.0,0.014076542109251022
104.0,0.011527573689818382
112.0,0.01003305148333311
120.0,0.010432458482682705
128.0,0.01025982666760683
144.0,0.009388392791152
160.0,0.008698970079421997
176.0,0.010692276991903782
192.0,0.00900172907859087
208.0,0.007661035284399986
224.0,0.004798044450581074
240.0,0.0032680481672286987
256.0,0.001684563118033111
288.0,0.005380135029554367
320.0,0.006485199090093374
352.0,0.006646419409662485
384.0,0.009910705499351025
416.0,0.016002215445041656
448.0,0.015609600581228733
480.0,0.012241487391293049
512.0,0.006505539640784264
576.0,0.005442308261990547
640.0,0.0009192385477945209
704.0,0.0005861456738784909
768.0,0.0025125497486442327
832.0,0.003990327473729849
896.0,0.008878747932612896
960.0,0.0064065600745379925
1024.0,0.00645464239642024
1152.0,0.006350001785904169
1280.0,0.00652657775208354
1408.0,0.00728820962831378
1536.0,-0.0016427868977189064
1664.0,0.001476895879022777
1792.0,0.004799645859748125
1920.0,0.011841118335723877
2048.0,0.005280515179038048
2304.0,0.010171696543693542
2560.0,0.004944335203617811
2816.0,0.00583918672055006
3072.0,0.0020391354337334633
3328.0,0.004048441536724567
3584.0,0.00422807689756155
3840.0,0.0026963553391397
4096.0,0.002786027267575264
4608.0,-0.00305393454618752
5120.0,-0.0021863249130547047
5632.0,-0.003186211222782731
6144.0,-0.0031566862016916275
6656.0,-0.007151404861360788
7168.0,-0.008334104903042316
7680.0,-0.0035145054571330547
8192.0,-0.00863582082092762
9216.0,-0.0063659013248980045
10240.0,-0.007049195002764463
11264.0,-0.008292308077216148
12288.0,-0.0012941794702783227
13312.0,-0.0035706579219549894
14336.0,-0.008384084329009056
end
