version,3.0
numOfCh,1
type,point
parent_name,dirty_0dot2-1dot0
ch_type,1_1
kcount,1
numberNandB,1
brightnessNandB,1
carpet pos,0
pc,0
Time (ms),CH1 Auto-Correlation
1.0,0.09814327955245972
2.0,0.09238886088132858
3.0,0.08698399364948273
4.0,0.08244623988866806
5.0,0.07810758054256439
6.0,0.07423323392868042
7.0,0.0705452412366867
8.0,0.06749865412712097
9.0,0.06492581218481064
10.0,0.06224702298641205
11.0,0.05939996987581253
12.0,0.05649397522211075
13.0,0.0537632517516613
14.0,0.05119900032877922
15.0,0.04928572103381157
16.0,0.047302912920713425
18.0,0.0431407131254673
20.0,0.03973333165049553
22.0,0.037021245807409286
24.0,0.03517647460103035
26.0,0.03355969488620758
28.0,0.03189636394381523
30.0,0.029945163056254387
32.0,0.028910085558891296
36.0,0.026507066562771797
40.0,0.023803850635886192
44.0,0.02184002660214901
48.0,0.02170703001320362
52.0,0.0218191035091877
56.0,0.022300515323877335
60.0,0.022050444036722183
64.0,0.021743331104516983
72.0,0.020323414355516434
80.0,0.018581438809633255
88.0,0.01766621693968773
96.0,0.014145775698125362
104.0,0.012810420244932175
112.0,0.01371240708976984
120.0,0.011910912580788136
128.0,0.007698246743530035
144.0,0.0060517387464642525
160.0,0.006915649864822626
176.0,0.00971859972923994
192.0,0.009657660499215126
208.0,0.0066252825781702995
224.0,0.003619374008849263
240.0,0.006717993877828121
256.0,0.007097022607922554
288.0,0.00678308354690671
320.0,0.003979237284511328
352.0,0.0025428272783756256
384.0,0.005721509922295809
416.0,0.007435663137584925
448.0,0.008005662821233273
480.0,0.009954205714166164
512.0,0.006897519342601299
576.0,0.004600429441779852
640.0,0.0020095056388527155
704.0,0.0028827781789004803
768.0,0.001994683174416423
832.0,-0.0005060299881733954
896.0,-0.0028225532732903957
960.0,0.0004697629192378372
1024.0,-0.0008561061695218086
1152.0,-0.0020573241636157036
1280.0,-0.006165033206343651
1408.0,-0.00390014355070889
1536.0,-0.004595140926539898
1664.0,-0.005771580617874861
1792.0,-0.007701293099671602
1920.0,-0.004625840112566948
2048.0,0.002907868241891265
2304.0,0.004605626687407494
2560.0,0.003959229681640863
2816.0,0.004611446522176266
3072.0,0.007422031834721565
3328.0,0.0022829025983810425
3584.0,-0.008048318326473236
3840.0,-0.0030641474295407534
4096.0,-0.007526547648012638
4608.0,-0.005578739568591118
5120.0,0.004096549469977617
5632.0,0.000817001739051193
6144.0,-0.0002952349605038762
6656.0,-0.005178989842534065
7168.0,-0.006604481488466263
7680.0,-0.003082259790971875
8192.0,0.0018860293785110116
9216.0,-0.0011959978146478534
10240.0,-0.0028605060651898384
11264.0,0.0010011820122599602
12288.0,0.0017071495531126857
13312.0,0.002412222558632493
14336.0,0.0042561935260891914
end
