version,3.0
numOfCh,1
type,point
parent_name,dirty_0dot2-1dot0
ch_type,1_1
kcount,1
numberNandB,1
brightnessNandB,1
carpet pos,0
pc,0
Time (ms),CH1 Auto-Correlation
1.0,0.08999434858560562
2.0,0.08520258963108063
3.0,0.08122403919696808
4.0,0.07801580429077148
5.0,0.07487669587135315
6.0,0.07242213934659958
7.0,0.07022111862897873
8.0,0.06845256686210632
9.0,0.06624564528465271
10.0,0.06433741003274918
11.0,0.06259910762310028
12.0,0.06091989204287529
13.0,0.0589565709233284
14.0,0.057013485580682755
15.0,0.05490788444876671
16.0,0.05243668705224991
18.0,0.048703886568546295
20.0,0.04569525271654129
22.0,0.044402025640010834
24.0,0.04320855066180229
26.0,0.04192356765270233
28.0,0.04069632664322853
30.0,0.03931022807955742
32.0,0.03852027654647827
36.0,0.03753549978137016
40.0,0.03686053678393364
44.0,0.035276055335998535
48.0,0.033460214734077454
52.0,0.03208277374505997
56.0,0.031028930097818375
60.0,0.029767269268631935
64.0,0.028342355042696
72.0,0.025766601786017418
80.0,0.021339144557714462
88.0,0.01824416033923626
96.0,0.018054379150271416
104.0,0.017278943210840225
112.0,0.014435429126024246
120.0,0.01244298554956913
128.0,0.011770367622375488
144.0,0.010971327312290668
160.0,0.010684865526854992
176.0,0.012789903208613396
192.0,0.009883261285722256
208.0,0.0076791937462985516
224.0,0.0042341323569417
240.0,0.003816560609266162
256.0,0.0014365178067237139
288.0,-2.27070468099555e-05
320.0,6.352995842462406e-05
352.0,-0.0009438011911697686
384.0,-0.0009494138066656888
416.0,-0.0007674302905797958
448.0,-0.0007868982502259314
480.0,0.000776296597905457
512.0,0.001325365505181253
576.0,0.0010799263836815953
640.0,0.0036517190746963024
704.0,0.006862250156700611
768.0,0.00738426111638546
832.0,0.001305437064729631
896.0,0.0014227040810510516
960.0,-5.7507659221300855e-06
1024.0,0.0007480537751689553
1152.0,0.0018743847031146288
1280.0,0.005748374853283167
1408.0,0.009949931874871254
1536.0,0.005592414643615484
1664.0,-0.000976966810412705
1792.0,-0.005355794448405504
1920.0,-0.003824834479019046
2048.0,0.0036331017035990953
2304.0,-0.0002246138028567657
2560.0,-0.0008617497514933348
2816.0,0.0020059847738593817
3072.0,-0.001063415315002203
3328.0,-0.007924940437078476
3584.0,-0.007224502507597208
3840.0,0.0003027974162250757
4096.0,-0.000249387085204944
4608.0,-0.0034896887373179197
5120.0,-0.0020107822492718697
5632.0,-0.0013957875780761242
6144.0,-0.0020907712168991566
6656.0,0.001981098670512438
7168.0,0.0026488592848181725
7680.0,0.00046882519382052124
8192.0,0.006417343858629465
9216.0,0.001110076205804944
10240.0,-0.0031972506549209356
11264.0,-0.0027122823521494865
12288.0,-0.002054505981504917
13312.0,0.0012418715050444007
14336.0,-0.015519652515649796
end
