version,3.0
numOfCh,1
type,point
parent_name,dirty_0dot2-1dot0
ch_type,1_1
kcount,1
numberNandB,1
brightnessNandB,1
carpet pos,0
pc,0
Time (ms),CH1 Auto-Correlation
1.0,0.07832372188568115
2.0,0.07340163737535477
3.0,0.06946508586406708
4.0,0.06577900052070618
5.0,0.06251722574234009
6.0,0.059818461537361145
7.0,0.05748599395155907
8.0,0.0553591214120388
9.0,0.053849030286073685
10.0,0.05252065509557724
11.0,0.050867825746536255
12.0,0.0494384765625
13.0,0.04796147346496582
14.0,0.04633549973368645
15.0,0.04493986815214157
16.0,0.04370904341340065
18.0,0.04202147200703621
20.0,0.04002838209271431
22.0,0.03822878748178482
24.0,0.036430295556783676
26.0,0.03463400527834892
28.0,0.03366725891828537
30.0,0.033124636858701706
32.0,0.03281779587268829
36.0,0.0322275385260582
40.0,0.030933132395148277
44.0,0.030679507181048393
48.0,0.028986332938075066
52.0,0.028075775131583214
56.0,0.027496349066495895
60.0,0.026966417208313942
64.0,0.025963397696614265
72.0,0.023100240156054497
80.0,0.020989635959267616
88.0,0.017540493980050087
96.0,0.016274601221084595
104.0,0.014972887001931667
112.0,0.015619692392647266
120.0,0.015023410320281982
128.0,0.012356351129710674
144.0,0.009943398647010326
160.0,0.00972986500710249
176.0,0.008053051307797432
192.0,0.007525907829403877
208.0,0.0060366555117070675
224.0,0.004192054737359285
240.0,0.00409468961879611
256.0,0.004278393462300301
288.0,0.00725147407501936
320.0,0.009800579398870468
352.0,0.011559132486581802
384.0,0.010227682068943977
416.0,0.008403083309531212
448.0,0.0069006746634840965
480.0,0.005070127546787262
512.0,0.004827065858989954
576.0,0.001967467600479722
640.0,-0.00018374735373072326
704.0,0.000540881825145334
768.0,-0.0004924122476950288
832.0,0.00013243129069451243
896.0,0.0008867298602126539
960.0,0.0002038257080130279
1024.0,-0.0003296858340036124
1152.0,-0.005778532475233078
1280.0,-0.006166453473269939
1408.0,0.0038991160690784454
1536.0,-0.0008483105921186507
1664.0,-0.0013101076474413276
1792.0,-0.004911957308650017
1920.0,-0.006386627908796072
2048.0,-0.00940571166574955
2304.0,-0.007186895702034235
2560.0,-0.009420563466846943
2816.0,-0.008258565329015255
3072.0,-0.0018447230104357004
3328.0,0.0011043236590921879
3584.0,0.0025197609793394804
3840.0,0.0018800850957632065
4096.0,0.005729509983211756
4608.0,0.006512331776320934
5120.0,0.002080756239593029
5632.0,-0.0005558583652600646
6144.0,8.53376041050069e-05
6656.0,-0.001051260274834931
7168.0,-0.001739990315400064
7680.0,-3.82055040972773e-05
8192.0,-0.0003680300142150372
9216.0,0.0003888632054440677
10240.0,-0.0015360211255028844
11264.0,-0.0013308096677064896
12288.0,0.00043340379488654435
13312.0,0.0024231551215052605
14336.0,-0.0023389633279293776
end
