version,3.0
numOfCh,1
type,point
parent_name,dirty_0dot2-1dot0
ch_type,1_1
kcount,1
numberNandB,1
brightnessNandB,1
carpet pos,0
pc,0
Time (ms),CH1 Auto-Correlation
1.0,0.0838766023516655
2.0,0.07975497841835022
3.0,0.07619480788707733
4.0,0.07310430705547333
5.0,0.07018095999956131
6.0,0.06709720939397812
7.0,0.06446745246648788
8.0,0.062008194625377655
9.0,0.059592436999082565
10.0,0.05729600787162781
11.0,0.05508175492286682
12.0,0.05286014452576637
13.0,0.05109228193759918
14.0,0.04962877929210663
15.0,0.04796583950519562
16.0,0.045945197343826294
18.0,0.04237958788871765
20.0,0.039216116070747375
22.0,0.036310870200395584
24.0,0.0343138612806797
26.0,0.03229159489274025
28.0,0.030772490426898003
30.0,0.029223959892988205
32.0,0.028005924075841904
36.0,0.02626512385904789
40.0,0.025532983243465424
44.0,0.02461458370089531
48.0,0.023010602220892906
52.0,0.022117173299193382
56.0,0.02162756398320198
60.0,0.02128838188946247
64.0,0.020631687715649605
72.0,0.01751374453306198
80.0,0.014440968632698059
88.0,0.012106631882488728
96.0,0.01245608739554882
104.0,0.013986479490995407
112.0,0.014030718244612217
120.0,0.01325006689876318
128.0,0.012807771563529968
144.0,0.012365879490971565
160.0,0.009351840242743492
176.0,0.007128666155040264
192.0,0.0073102801106870174
208.0,0.008943431079387665
224.0,0.00999932549893856
240.0,0.009848066605627537
256.0,0.008199745789170265
288.0,0.0027764637488871813
320.0,0.0007847914821468294
352.0,0.0005378328496590257
384.0,0.0002690942492336035
416.0,9.453060192754492e-05
448.0,-0.002841236302629113
480.0,-0.004854797851294279
512.0,-0.005211292300373316
576.0,-0.0005004587001167238
640.0,-0.0023457114584743977
704.0,-0.0005495247314684093
768.0,-0.004149414598941803
832.0,-0.0007206933223642409
896.0,0.0024542193859815598
960.0,0.0033964980393648148
1024.0,0.0028043431229889393
1152.0,0.0031140251085162163
1280.0,0.002732511842623353
1408.0,-0.001238470897078514
1536.0,-0.002997217234224081
1664.0,-0.0032276995480060577
1792.0,-0.0006483513861894608
1920.0,-0.0018661515787243843
2048.0,-0.001388390315696597
2304.0,-0.00037339760456234217
2560.0,-0.007303986232727766
2816.0,-0.004212998319417238
3072.0,0.0022168487776070833
3328.0,-0.0005920892581343651
3584.0,-0.0032179683912545443
3840.0,0.0042552403174340725
4096.0,0.007339160889387131
4608.0,0.001560188247822225
5120.0,0.00705900089815259
5632.0,-0.003036554902791977
6144.0,0.003307655220851302
6656.0,-0.0033375979401171207
7168.0,-0.007666751276701689
7680.0,-0.0027856549713760614
8192.0,0.0007160871173255146
9216.0,0.0012190778506919742
10240.0,-0.0015483604511246085
11264.0,-0.005841218400746584
12288.0,-0.001055144239217043
13312.0,-0.002344873733818531
14336.0,-0.003621816635131836
end
