version,3.0
numOfCh,1
type,point
parent_name,dirty_0dot2-1dot0
ch_type,1_1
kcount,1
numberNandB,1
brightnessNandB,1
carpet pos,0
pc,0
Time (ms),CH1 Auto-Correlation
1.0,0.07989445328712463
2.0,0.07363727688789368
3.0,0.06830362975597382
4.0,0.06334301084280014
5.0,0.05935536324977875
6.0,0.05564652755856514
7.0,0.05264858901500702
8.0,0.049564432352781296
9.0,0.0473942831158638
10.0,0.045333992689847946
11.0,0.04410315677523613
12.0,0.04317856207489967
13.0,0.042723171412944794
14.0,0.04173532873392105
15.0,0.040882620960474014
16.0,0.04024043679237366
18.0,0.03694124519824982
20.0,0.033805519342422485
22.0,0.03155149519443512
24.0,0.028983881697058678
26.0,0.027719710022211075
28.0,0.02676958404481411
30.0,0.026078958064317703
32.0,0.02506725862622261
36.0,0.02105158381164074
40.0,0.019022375345230103
44.0,0.019042016938328743
48.0,0.019372720271348953
52.0,0.01783846504986286
56.0,0.01573740504682064
60.0,0.013344244100153446
64.0,0.011731681413948536
72.0,0.009815388359129429
80.0,0.007868410088121891
88.0,0.006677168421447277
96.0,0.0068015302531421185
104.0,0.0073809633031487465
112.0,0.0072576068341732025
120.0,0.005883540026843548
128.0,0.004876864608377218
144.0,0.004283513408154249
160.0,0.007985388860106468
176.0,0.009470093995332718
192.0,0.005225835833698511
208.0,0.003259605262428522
224.0,0.0038476821500808
240.0,0.0018538152799010277
256.0,0.00010183294216403738
288.0,0.0002534599625505507
320.0,0.001171390525996685
352.0,0.003704389091581106
384.0,0.00323008862324059
416.0,0.003783846739679575
448.0,0.006311067845672369
480.0,0.0054105608724057674
512.0,0.002488622209057212
576.0,0.0027662485372275114
640.0,0.00024161137116607279
704.0,-0.0013308876659721136
768.0,6.32863593637012e-05
832.0,0.0018250850262120366
896.0,0.0004804034542758018
960.0,0.001228765002451837
1024.0,0.0009670901927165687
1152.0,-0.0015455738175660372
1280.0,0.00084439676720649
1408.0,-0.00043402399751357734
1536.0,-0.0029640733264386654
1664.0,-0.0023163442965596914
1792.0,-0.001113571343012154
1920.0,-0.002160734264180064
2048.0,-0.0014375437749549747
2304.0,-0.002345156390219927
2560.0,-0.0008053131750784814
2816.0,-0.00219258526340127
3072.0,-0.0042906287126243114
3328.0,-0.000841155182570219
3584.0,-0.003052026964724064
3840.0,-0.0024395803920924664
4096.0,-8.573268860345706e-05
4608.0,-0.0012129502138122916
5120.0,-0.0028893265407532454
5632.0,0.002348942682147026
6144.0,0.0012501267483457923
6656.0,0.0005203368491493165
7168.0,0.00014073355123400688
7680.0,0.0012847223551943898
8192.0,-0.0009414083324372768
9216.0,-0.0016696853563189507
10240.0,-0.0008256014552898705
11264.0,0.0021646099630743265
12288.0,0.00235957489348948
13312.0,-0.0005990550271235406
14336.0,-0.002178492024540901
end
