version,3.0
numOfCh,1
type,point
parent_name,dirty_0dot2-1dot0
ch_type,1_1
kcount,1
numberNandB,1
brightnessNandB,1
carpet pos,0
pc,0
Time (ms),CH1 Auto-Correlation
1.0,0.13898755609989166
2.0,0.12924592196941376
3.0,0.12246813625097275
4.0,0.1166265532374382
5.0,0.10997884720563889
6.0,0.10412032902240753
7.0,0.09820277243852615
8.0,0.09274652600288391
9.0,0.08687646687030792
10.0,0.0812619999051094
11.0,0.07638905942440033
12.0,0.07302626967430115
13.0,0.06996854394674301
14.0,0.06624162197113037
15.0,0.06270737200975418
16.0,0.05953347310423851
18.0,0.05581187829375267
20.0,0.0524868406355381
22.0,0.04905763268470764
24.0,0.04459289461374283
26.0,0.04169332981109619
28.0,0.039719004184007645
30.0,0.037122707813978195
32.0,0.03461316600441933
36.0,0.03166311979293823
40.0,0.031192036345601082
44.0,0.0301850363612175
48.0,0.02987564355134964
52.0,0.02789379097521305
56.0,0.02421213872730732
60.0,0.020331840962171555
64.0,0.01735871285200119
72.0,0.015177156776189804
80.0,0.013983293436467648
88.0,0.012841741554439068
96.0,0.016019808128476143
104.0,0.021039942279458046
112.0,0.022175347432494164
120.0,0.02067946083843708
128.0,0.017714306712150574
144.0,0.008361265063285828
160.0,0.006808341946452856
176.0,0.008931602351367474
192.0,0.005975652020424604
208.0,0.008105366490781307
224.0,0.013108478859066963
240.0,0.01054652314633131
256.0,0.010266861878335476
288.0,0.004364415071904659
320.0,0.0019365453626960516
352.0,0.0029580232221633196
384.0,-0.001531218527816236
416.0,-0.0039059645496308804
448.0,-0.0004916528705507517
480.0,-0.0065924134105443954
512.0,-0.009860682301223278
576.0,-0.002716635586693883
640.0,-0.00549143785610795
704.0,-0.0029655280523002148
768.0,-0.007036108989268541
832.0,-0.003345915349200368
896.0,-0.007832972332835197
960.0,-0.007205612491816282
1024.0,-0.0063438196666538715
1152.0,-0.0034534779842942953
1280.0,0.005153516307473183
1408.0,0.002426446182653308
1536.0,0.003526741871610284
1664.0,0.002362479455769062
1792.0,0.005036049988120794
1920.0,0.005024801939725876
2048.0,0.005024813115596771
2304.0,3.729642048710957e-05
2560.0,-0.0030677877366542816
2816.0,-0.0014198921853676438
3072.0,0.006888229865580797
3328.0,0.004591201897710562
3584.0,-0.002091329311951995
3840.0,-0.006204650271683931
4096.0,-0.00512749794870615
4608.0,0.0007830894901417196
5120.0,0.0015983065823093057
5632.0,-0.007897084578871727
6144.0,-0.0019998427014797926
6656.0,0.0027499853167682886
7168.0,0.0009743419359438121
7680.0,-0.005620695650577545
8192.0,0.002199881710112095
9216.0,-0.0005292828427627683
10240.0,-0.0012778869131579995
11264.0,-0.0003157702449243516
12288.0,-0.0010089343413710594
13312.0,0.003133655060082674
14336.0,0.0007195647340267897
end
