version,3.0
numOfCh,1
type,point
parent_name,dirty_0dot2-1dot0
ch_type,1_1
kcount,1
numberNandB,1
brightnessNandB,1
carpet pos,0
pc,0
Time (ms),CH1 Auto-Correlation
1.0,0.14234131574630737
2.0,0.12957702577114105
3.0,0.1188976988196373
4.0,0.11013448238372803
5.0,0.10281132906675339
6.0,0.09671603888273239
7.0,0.09100838750600815
8.0,0.08588684350252151
9.0,0.08139942586421967
10.0,0.0766918882727623
11.0,0.07190238684415817
12.0,0.06794232130050659
13.0,0.06565578281879425
14.0,0.06352157890796661
15.0,0.06187419220805168
16.0,0.06102760136127472
18.0,0.057334404438734055
20.0,0.05454189330339432
22.0,0.05221838504076004
24.0,0.04996978119015694
26.0,0.047321077436208725
28.0,0.044606033712625504
30.0,0.04325724393129349
32.0,0.042596086859703064
36.0,0.04306598752737045
40.0,0.041263557970523834
44.0,0.03960877284407616
48.0,0.03775854781270027
52.0,0.03630046918988228
56.0,0.035544503480196
60.0,0.03368809446692467
64.0,0.03287594020366669
72.0,0.031277529895305634
80.0,0.027607180178165436
88.0,0.025934409350156784
96.0,0.027434993535280228
104.0,0.029283076524734497
112.0,0.027812939137220383
120.0,0.02380819246172905
128.0,0.020270785316824913
144.0,0.020631104707717896
160.0,0.01974203623831272
176.0,0.022769736126065254
192.0,0.022283148020505905
208.0,0.022197281941771507
224.0,0.02067539654672146
240.0,0.01677289605140686
256.0,0.01605682447552681
288.0,0.010166515596210957
320.0,0.009891829453408718
352.0,0.009051980450749397
384.0,0.010256011039018631
416.0,0.009205009788274765
448.0,0.005948550533503294
480.0,0.0009679540526121855
512.0,0.0004835354629904032
576.0,0.0018818946555256844
640.0,-0.001218118704855442
704.0,-0.004617662169039249
768.0,-0.00704179797321558
832.0,-0.0044943708926439285
896.0,-0.0001018376206047833
960.0,0.002490656217560172
1024.0,0.0026078519877046347
1152.0,-1.1061368240916636e-05
1280.0,0.004151211120188236
1408.0,0.010283002629876137
1536.0,0.008218443021178246
1664.0,0.012645152397453785
1792.0,0.01146484725177288
1920.0,0.006841117050498724
2048.0,0.008114282973110676
2304.0,-0.0006007595802657306
2560.0,-7.159398955991492e-05
2816.0,0.0047324588522315025
3072.0,0.013925165869295597
3328.0,0.014196323230862617
3584.0,-0.00023887658608146012
3840.0,-0.010638618841767311
4096.0,-0.006381152663379908
4608.0,0.0014742255443707108
5120.0,0.0004095383919775486
5632.0,-0.007253179792314768
6144.0,-0.004033226985484362
6656.0,-0.005282863043248653
7168.0,-0.0009928960353136063
7680.0,-0.007391250226646662
8192.0,-0.017298979684710503
9216.0,-0.006938779726624489
10240.0,-0.004720325581729412
11264.0,-0.013176371343433857
12288.0,0.004123619757592678
13312.0,-0.0032623629085719585
14336.0,0.0008278943132609129
end
