version,3.0
numOfCh,1
type,point
parent_name,dirty_0dot2-1dot0
ch_type,1_1
kcount,1
numberNandB,1
brightnessNandB,1
carpet pos,0
pc,0
Time (ms),CH1 Auto-Correlation
1.0,0.09276604652404785
2.0,0.08712613582611084
3.0,0.08201644569635391
4.0,0.07823152840137482
5.0,0.07483840733766556
6.0,0.07177171856164932
7.0,0.06871744245290756
8.0,0.06626350432634354
9.0,0.06423752754926682
10.0,0.06224166229367256
11.0,0.06050912290811539
12.0,0.05884164199233055
13.0,0.05719165876507759
14.0,0.05620725825428963
15.0,0.05486443266272545
16.0,0.05323469638824463
18.0,0.0507822148501873
20.0,0.049108799546957016
22.0,0.04747064784169197
24.0,0.04557051882147789
26.0,0.04384896531701088
28.0,0.042119208723306656
30.0,0.04097481071949005
32.0,0.03949988633394241
36.0,0.03622458875179291
40.0,0.03265927731990814
44.0,0.029472244903445244
48.0,0.026506831869482994
52.0,0.024296801537275314
56.0,0.022961480543017387
60.0,0.02081187069416046
64.0,0.01953713782131672
72.0,0.01849980652332306
80.0,0.016740119084715843
88.0,0.014252252876758575
96.0,0.013064123690128326
104.0,0.011463803239166737
112.0,0.01011408120393753
120.0,0.00921652838587761
128.0,0.007788083050400019
144.0,0.007654631044715643
160.0,0.008036933839321136
176.0,0.007920486852526665
192.0,0.004162611905485392
208.0,0.0020105086732655764
224.0,0.0012514934642240405
240.0,0.0006656906916759908
256.0,0.0004469977575354278
288.0,-0.00508388876914978
320.0,-0.006292466539889574
352.0,-0.00661852303892374
384.0,-0.006465313024818897
416.0,-0.003207180416211486
448.0,-0.001747733447700739
480.0,-0.006757531780749559
512.0,-0.008677206933498383
576.0,-0.007500206120312214
640.0,-0.009347387589514256
704.0,-0.009734157472848892
768.0,-0.0031631283927708864
832.0,0.0023973158095031977
896.0,0.004728883970528841
960.0,0.0039616976864635944
1024.0,0.0016502966172993183
1152.0,0.0036314022727310658
1280.0,0.004922269377857447
1408.0,0.0006858524866402149
1536.0,-0.00606212904676795
1664.0,-0.006387181580066681
1792.0,-0.004512195009738207
1920.0,-0.00017373137234244496
2048.0,0.002959731500595808
2304.0,0.0029536914080381393
2560.0,0.0025510801933705807
2816.0,-0.005198598373681307
3072.0,-0.0023041069507598877
3328.0,0.0007557770586572587
3584.0,-0.0015764035051688552
3840.0,0.0017400206997990608
4096.0,0.0018267786363139749
4608.0,-0.0010487934341654181
5120.0,-0.0016168772708624601
5632.0,-0.0003185862151440233
6144.0,3.4814489481505007e-05
6656.0,-0.0004084811080247164
7168.0,-0.004665059968829155
7680.0,0.0005466994480229914
8192.0,0.004557437263429165
9216.0,-0.0003507356159389019
10240.0,0.0020437727216631174
11264.0,-0.0031095638405531645
12288.0,0.0012138847960159183
13312.0,0.0014142764266580343
14336.0,-0.005522508639842272
end
