version,3.0
numOfCh,1
type,point
parent_name,dirty_0dot2-1dot0
ch_type,1_1
kcount,1
numberNandB,1
brightnessNandB,1
carpet pos,0
pc,0
Time (ms),CH1 Auto-Correlation
1.0,0.11898510903120041
2.0,0.11070447415113449
3.0,0.1038493663072586
4.0,0.09789102524518967
5.0,0.0929986760020256
6.0,0.08811944723129272
7.0,0.08383966237306595
8.0,0.08001773059368134
9.0,0.07652852684259415
10.0,0.07319022715091705
11.0,0.0699869692325592
12.0,0.06700178235769272
13.0,0.06446767598390579
14.0,0.06259015947580338
15.0,0.060463421046733856
16.0,0.05831095948815346
18.0,0.0547548308968544
20.0,0.0505412332713604
22.0,0.04670458287000656
24.0,0.042444389313459396
26.0,0.03903308883309364
28.0,0.03583022207021713
30.0,0.03294550999999046
32.0,0.031162912026047707
36.0,0.02878643572330475
40.0,0.02717028558254242
44.0,0.024355433881282806
48.0,0.021451054140925407
52.0,0.01926892064511776
56.0,0.01736718788743019
60.0,0.01590481586754322
64.0,0.014873662032186985
72.0,0.014396846294403076
80.0,0.013109914027154446
88.0,0.015243570320308208
96.0,0.019918985664844513
104.0,0.021452870219945908
112.0,0.01741344854235649
120.0,0.011081441305577755
128.0,0.007099753245711327
144.0,0.003625542391091585
160.0,0.0034622352104634047
176.0,0.0018483434105291963
192.0,0.0013897245517000556
208.0,0.00654746824875474
224.0,0.007874589413404465
240.0,0.008766422979533672
256.0,0.009222899563610554
288.0,0.009013257920742035
320.0,0.00645108288154006
352.0,0.0009153714636340737
384.0,0.004941896069794893
416.0,-0.000712864741217345
448.0,-0.0030622335616499186
480.0,-0.001660454785451293
512.0,0.0009870748035609722
576.0,0.0034251816105097532
640.0,0.000626967113930732
704.0,0.01002317201346159
768.0,0.006303045433014631
832.0,0.006815001368522644
896.0,0.005725429393351078
960.0,0.009280982427299023
1024.0,0.007693249732255936
1152.0,0.004217257257550955
1280.0,0.0020491783507168293
1408.0,-0.0018871704814955592
1536.0,0.0021291885059326887
1664.0,0.002537641441449523
1792.0,0.010337387211620808
1920.0,0.007022903300821781
2048.0,0.00810548197478056
2304.0,0.00024241642677225173
2560.0,-0.0017846920527517796
2816.0,0.00594912376254797
3072.0,0.000844900612719357
3328.0,-0.004486441612243652
3584.0,-0.001296935137361288
3840.0,0.0039072297513484955
4096.0,-0.002327249152585864
4608.0,-0.0002948760811705142
5120.0,-0.0021379331592470407
5632.0,0.0016701363492757082
6144.0,0.0016995471669360995
6656.0,-0.0005339281633496284
7168.0,-0.0026728983502835035
7680.0,0.0016394015401601791
8192.0,-0.0053901635110378265
9216.0,-0.008326695300638676
10240.0,-0.008750621229410172
11264.0,-0.00824002455919981
12288.0,-0.002234607469290495
13312.0,0.004058386664837599
14336.0,-0.005848802626132965
end
