version,3.0
numOfCh,1
type,point
parent_name,dirty_0dot2-1dot0
ch_type,1_1
kcount,1
numberNandB,1
brightnessNandB,1
carpet pos,0
pc,0
Time (ms),CH1 Auto-Correlation
1.0,0.14408692717552185
2.0,0.13289308547973633
3.0,0.12385423481464386
4.0,0.11693812161684036
5.0,0.11036697030067444
6.0,0.10374318808317184
7.0,0.09774761646986008
8.0,0.09269881993532181
9.0,0.08759991079568863
10.0,0.08179008215665817
11.0,0.07716827839612961
12.0,0.07374291867017746
13.0,0.07012847065925598
14.0,0.06698855012655258
15.0,0.06453824788331985
16.0,0.06258983910083771
18.0,0.05808252468705177
20.0,0.05465654283761978
22.0,0.05154256895184517
24.0,0.049761004745960236
26.0,0.04679536446928978
28.0,0.043919581919908524
30.0,0.03988827019929886
32.0,0.03586985543370247
36.0,0.027824338525533676
40.0,0.023245153948664665
44.0,0.02036375179886818
48.0,0.016995813697576523
52.0,0.015015508979558945
56.0,0.015198253095149994
60.0,0.015407457947731018
64.0,0.015345168299973011
72.0,0.013180584646761417
80.0,0.010177135467529297
88.0,0.007936536334455013
96.0,0.006759485695511103
104.0,0.003730601165443659
112.0,0.002003947040066123
120.0,0.0019358472200110555
128.0,0.0005315988673828542
144.0,0.002035709796473384
160.0,-2.9060842280159704e-05
176.0,-0.0008929268806241453
192.0,-0.0016620154492557049
208.0,0.0023022503592073917
224.0,0.007774924859404564
240.0,0.015036683529615402
256.0,0.013782232999801636
288.0,0.01383202988654375
320.0,0.01623295433819294
352.0,0.0034374804235994816
384.0,0.0013741032453253865
416.0,-0.002236495725810528
448.0,-0.002376400399953127
480.0,-0.004007110837846994
512.0,-0.0027011088095605373
576.0,0.005075766239315271
640.0,-0.00020466212299652398
704.0,-0.0034695868380367756
768.0,-0.0067055788822472095
832.0,5.2376151870703325e-05
896.0,-0.0018313209293410182
960.0,-0.0013336697593331337
1024.0,-0.002223147312179208
1152.0,0.00383874773979187
1280.0,0.0013142756652086973
1408.0,0.005284355487674475
1536.0,0.0020301516633480787
1664.0,-0.004814781714230776
1792.0,-0.005786203313618898
1920.0,-0.006720134988427162
2048.0,-0.008049919269979
2304.0,-0.004802779294550419
2560.0,0.001762926927767694
2816.0,0.0010759993456304073
3072.0,-0.00210180995054543
3328.0,-0.003781120991334319
3584.0,-0.001456699101254344
3840.0,0.004166372120380402
4096.0,0.006158661097288132
4608.0,0.0006218919879756868
5120.0,0.008842365816235542
5632.0,0.004923757165670395
6144.0,-0.004726470913738012
6656.0,-0.004580381792038679
7168.0,-0.005831949878484011
7680.0,-0.007794564124196768
8192.0,0.0024648956023156643
9216.0,0.0034568437840789557
10240.0,-0.00017937598749995232
11264.0,-0.0027089775539934635
12288.0,-0.005900366697460413
13312.0,0.0014416961930692196
14336.0,-0.00042182637844234705
end
