version,3.0
numOfCh,1
type,point
parent_name,dirty_0dot2-1dot0
ch_type,1_1
kcount,1
numberNandB,1
brightnessNandB,1
carpet pos,0
pc,0
Time (ms),CH1 Auto-Correlation
1.0,0.16223274171352386
2.0,0.14963845908641815
3.0,0.13930954039096832
4.0,0.1307130604982376
5.0,0.1232457235455513
6.0,0.11611612141132355
7.0,0.1099666953086853
8.0,0.10527382791042328
9.0,0.10218457877635956
10.0,0.09910199046134949
11.0,0.09524813294410706
12.0,0.09212178736925125
13.0,0.08841409534215927
14.0,0.08473183959722519
15.0,0.08196866512298584
16.0,0.07858877629041672
18.0,0.07226984947919846
20.0,0.06634614616632462
22.0,0.06207229942083359
24.0,0.05879797413945198
26.0,0.05507199093699455
28.0,0.05123816803097725
30.0,0.04754455015063286
32.0,0.04558459296822548
36.0,0.041723523288965225
40.0,0.039459727704524994
44.0,0.035908233374357224
48.0,0.031923435628414154
52.0,0.027486829087138176
56.0,0.023246735334396362
60.0,0.022880524396896362
64.0,0.022305361926555634
72.0,0.0236048586666584
80.0,0.024079138413071632
88.0,0.019371161237359047
96.0,0.015346026048064232
104.0,0.01115976832807064
112.0,0.011295057833194733
120.0,0.01125769317150116
128.0,0.009145469404757023
144.0,0.006437300238758326
160.0,0.006119197234511375
176.0,0.004128396511077881
192.0,0.00020434898033272475
208.0,-0.00247616833075881
224.0,-0.004532199818640947
240.0,-0.006092801224440336
256.0,-0.006366016808897257
288.0,-0.006118692457675934
320.0,-0.003953322768211365
352.0,-0.009145515970885754
384.0,-0.009657123126089573
416.0,-0.009405099786818027
448.0,-0.013125212863087654
480.0,-0.008558928035199642
512.0,-0.00916567537933588
576.0,-0.011371336877346039
640.0,-0.005722434725612402
704.0,-0.003970603458583355
768.0,-0.006181620992720127
832.0,0.00747244106605649
896.0,0.009016018360853195
960.0,0.005341323092579842
1024.0,-0.006209931336343288
1152.0,0.005377927329391241
1280.0,0.0013948335545137525
1408.0,-0.008422337472438812
1536.0,-0.003789540147408843
1664.0,-0.006122609134763479
1792.0,-0.0034140388015657663
1920.0,5.15768479090184e-05
2048.0,0.0008341205539181828
2304.0,-0.0019444642821326852
2560.0,0.0031813979148864746
2816.0,0.00018982151232194155
3072.0,0.005267619155347347
3328.0,-0.003682956099510193
3584.0,-0.0042129079811275005
3840.0,0.004942626226693392
4096.0,-0.0032163066789507866
4608.0,-0.004643094260245562
5120.0,0.0036952244117856026
5632.0,-0.0030503617599606514
6144.0,0.004017286002635956
6656.0,-0.006012682802975178
7168.0,0.0019698201213032007
7680.0,-0.0009753096383064985
8192.0,0.0013874730793759227
9216.0,-0.0002918762038461864
10240.0,0.001863189390860498
11264.0,-0.0012409022310748696
12288.0,0.0014492565533146262
13312.0,-0.004275641404092312
14336.0,0.0011210937518626451
end
