version,3.0
numOfCh,1
type,point
parent_name,dirty_0dot2-1dot0
ch_type,1_1
kcount,1
numberNandB,1
brightnessNandB,1
carpet pos,0
pc,0
Time (ms),CH1 Auto-Correlation
1.0,0.12518960237503052
2.0,0.118198923766613
3.0,0.11204949766397476
4.0,0.10633451491594315
5.0,0.10052157193422318
6.0,0.09499115496873856
7.0,0.08985718339681625
8.0,0.08566771447658539
9.0,0.08170029520988464
10.0,0.07799867540597916
11.0,0.07533291727304459
12.0,0.07302001118659973
13.0,0.070118747651577
14.0,0.06798232346773148
15.0,0.06596987694501877
16.0,0.06370068341493607
18.0,0.059159424155950546
20.0,0.055814411491155624
22.0,0.0532376766204834
24.0,0.051596783101558685
26.0,0.04959867522120476
28.0,0.048798948526382446
30.0,0.0479581318795681
32.0,0.047007687389850616
36.0,0.04525809362530708
40.0,0.042713064700365067
44.0,0.03900837525725365
48.0,0.03613458573818207
52.0,0.03506949916481972
56.0,0.03399721905589104
60.0,0.0310257188975811
64.0,0.027276117354631424
72.0,0.022294163703918457
80.0,0.019077589735388756
88.0,0.018551550805568695
96.0,0.019216496497392654
104.0,0.0186761524528265
112.0,0.014698500744998455
120.0,0.011545275337994099
128.0,0.010162106715142727
144.0,0.009888608939945698
160.0,0.012158172205090523
176.0,0.009890480898320675
192.0,0.00946127250790596
208.0,0.009499906562268734
224.0,0.00938655249774456
240.0,0.008479610085487366
256.0,0.007191630080342293
288.0,0.0047230650670826435
320.0,0.0035959139931946993
352.0,0.0029572774656116962
384.0,5.3970325097907335e-05
416.0,-0.0009993195999413729
448.0,-0.0012667437549680471
480.0,0.0015089536318555474
512.0,0.007182870525866747
576.0,0.005330199841409922
640.0,0.008700234815478325
704.0,0.006857644766569138
768.0,0.003829604247584939
832.0,0.005954326596111059
896.0,0.007043817546218634
960.0,0.008037093095481396
1024.0,0.003924086224287748
1152.0,-0.0033752000890672207
1280.0,-0.004083108622580767
1408.0,-0.0013622092083096504
1536.0,0.0007074105087667704
1664.0,-0.00016756220429670066
1792.0,-0.0011668226215988398
1920.0,-0.003627800615504384
2048.0,0.00019418659212533385
2304.0,0.006452541332691908
2560.0,-0.0033367620781064034
2816.0,-0.005068722181022167
3072.0,-0.0017255159327760339
3328.0,-0.0005647982470691204
3584.0,-0.00364651158452034
3840.0,0.006018981337547302
4096.0,0.007736272178590298
4608.0,0.0010936863254755735
5120.0,-0.00322670373134315
5632.0,-0.004313220269978046
6144.0,-0.0009770261822268367
6656.0,-0.009276863187551498
7168.0,-0.012022899463772774
7680.0,-0.007253486663103104
8192.0,-0.0010020247427746654
9216.0,0.0011100653791800141
10240.0,0.0020858794450759888
11264.0,-0.0035750940442085266
12288.0,-0.0022222273983061314
13312.0,0.007695803884416819
14336.0,0.011045773513615131
end
