version,3.0
numOfCh,1
type,point
parent_name,200-cuts
ch_type,1_1
kcount,1
numberNandB,1
brightnessNandB,1
carpet pos,0
pc,0
Time (ms),CH1 Auto-Correlation
1.0,0.031557079404592514
2.0,0.03057376854121685
3.0,0.02962019294500351
4.0,0.028708327561616898
5.0,0.027806153520941734
6.0,0.026953982189297676
7.0,0.026145843788981438
8.0,0.02533700503408909
9.0,0.024561205878853798
10.0,0.0238352008163929
11.0,0.023161541670560837
12.0,0.022518642246723175
13.0,0.021883266046643257
14.0,0.021277114748954773
15.0,0.020671967417001724
16.0,0.02009405940771103
18.0,0.0189704317599535
20.0,0.01796899363398552
22.0,0.01700732670724392
24.0,0.016094427555799484
26.0,0.015245172195136547
28.0,0.014508345164358616
30.0,0.013846167363226414
32.0,0.013279148377478123
36.0,0.012159702368080616
40.0,0.0110789705067873
44.0,0.010071788914501667
48.0,0.009177271276712418
52.0,0.008407901972532272
56.0,0.007660257164388895
60.0,0.0070681022480130196
64.0,0.006493722088634968
72.0,0.005594582296907902
80.0,0.004968892317265272
88.0,0.004226555582135916
96.0,0.0032654372043907642
104.0,0.002719202544540167
112.0,0.0023786951787769794
120.0,0.0019826015923172235
128.0,0.0014412389136850834
144.0,0.0006056100828573108
160.0,0.00014111329801380634
176.0,0.0005498363170772791
192.0,0.001109922188334167
208.0,0.001859662588685751
224.0,0.002603445900604129
240.0,0.0034788940101861954
256.0,0.0034440343733876944
288.0,0.004815622232854366
320.0,0.005478832870721817
352.0,0.005937214009463787
384.0,0.0056432634592056274
416.0,0.004169361665844917
448.0,0.0014897328801453114
480.0,0.00016577100905124098
512.0,0.00011578745034057647
576.0,0.0005647478392347693
640.0,0.00032882028608582914
704.0,0.0009772473713383079
768.0,-0.00024248257977887988
832.0,-0.0013690631603822112
896.0,-0.0020041964016854763
960.0,-0.00030691854772157967
1024.0,-1.1159791029058397e-05
1152.0,-0.001161034218966961
1280.0,-0.001204518135637045
1408.0,0.0002268671669298783
1536.0,-0.0006903820903971791
1664.0,-0.00029208886553533375
1792.0,0.002837166888639331
1920.0,-0.0016478976467624307
2048.0,-0.00019899688777513802
2304.0,0.00010412350093247369
2560.0,-2.2781880034017377e-05
2816.0,0.0004004390211775899
3072.0,0.0009137995075434446
3328.0,0.0008429024601355195
3584.0,0.0005856912466697395
3840.0,-0.0008728441898711026
4096.0,-0.0006947309011593461
4608.0,-0.0009265216649509966
5120.0,-0.0004884505760855973
5632.0,-0.000776507135014981
6144.0,0.0014869088772684336
6656.0,0.0023878414649516344
7168.0,0.0010933480225503445
7680.0,0.0014724719803780317
8192.0,-0.0004440274788066745
9216.0,-0.0013491573045030236
10240.0,-0.0006471311789937317
11264.0,-0.0006858640117570758
12288.0,-0.005060906987637281
13312.0,0.0038167471066117287
14336.0,-0.0026137474924325943
end
