version,3.0
numOfCh,1
type,point
parent_name,200-cuts
ch_type,1_1
kcount,1
numberNandB,1
brightnessNandB,1
carpet pos,0
pc,0
Time (ms),CH1 Auto-Correlation
1.0,0.06423431634902954
2.0,0.0623493418097496
3.0,0.060545142740011215
4.0,0.058799855411052704
5.0,0.0571243055164814
6.0,0.055498749017715454
7.0,0.053923603147268295
8.0,0.0523926205933094
9.0,0.050943274050951004
10.0,0.049589600414037704
11.0,0.04828892648220062
12.0,0.046995166689157486
13.0,0.045765262097120285
14.0,0.04453621804714203
15.0,0.043318938463926315
16.0,0.0421314500272274
18.0,0.04001753404736519
20.0,0.03803229331970215
22.0,0.03628039360046387
24.0,0.034689053893089294
26.0,0.03319573029875755
28.0,0.03183114901185036
30.0,0.030498558655381203
32.0,0.029282961040735245
36.0,0.0269579216837883
40.0,0.024851225316524506
44.0,0.02302662283182144
48.0,0.021162355318665504
52.0,0.019085397943854332
56.0,0.017087778076529503
60.0,0.015424500219523907
64.0,0.014027727767825127
72.0,0.012152375653386116
80.0,0.01028555165976286
88.0,0.008225112222135067
96.0,0.007065529935061932
104.0,0.006118454039096832
112.0,0.005363830830901861
120.0,0.004931626841425896
128.0,0.004712544847279787
144.0,0.003537268377840519
160.0,0.0019660431426018476
176.0,0.0011609562207013369
192.0,0.0017800377681851387
208.0,0.0037525594234466553
224.0,0.004712771158665419
240.0,0.00508246710523963
256.0,0.004916754085570574
288.0,0.004891824442893267
320.0,0.0040098256431519985
352.0,-0.0005754265584982932
384.0,-0.003727209521457553
416.0,-0.0025682118721306324
448.0,-0.001219778903760016
480.0,0.00013389720697887242
512.0,0.0014068828895688057
576.0,0.0019353620009496808
640.0,0.000805659219622612
704.0,-0.00041500828228890896
768.0,-0.0007200594991445541
832.0,0.002398573560640216
896.0,0.004509839229285717
960.0,0.005450556520372629
1024.0,0.0012289818841964006
1152.0,0.00256966520100832
1280.0,0.0007356785936281085
1408.0,0.0027842761483043432
1536.0,0.0028705664444714785
1664.0,0.002273162128403783
1792.0,-0.0010669806506484747
1920.0,-0.00025260812253691256
2048.0,-0.002041894942522049
2304.0,-0.002126349601894617
2560.0,-0.004245762247592211
2816.0,-0.003529137000441551
3072.0,0.002679838566109538
3328.0,0.0009406540775671601
3584.0,-0.004589589312672615
3840.0,-0.002395691815763712
4096.0,-0.004085158463567495
4608.0,-0.0038295439444482327
5120.0,-0.0020087682642042637
5632.0,-0.0006464245961979032
6144.0,0.0007244404405355453
6656.0,0.0022526299580931664
7168.0,0.0027546726632863283
7680.0,-0.0016887298552319407
8192.0,0.0027344657573848963
9216.0,0.0029978621751070023
10240.0,0.003143765963613987
11264.0,-0.0008735792362131178
12288.0,-0.0024954217951744795
13312.0,-0.004168627317994833
14336.0,-0.008790096268057823
end
