version,3.0
numOfCh,1
type,point
parent_name,200-cuts
ch_type,1_1
kcount,1
numberNandB,1
brightnessNandB,1
carpet pos,0
pc,0
Time (ms),CH1 Auto-Correlation
1.0,0.028899138793349266
2.0,0.027974717319011688
3.0,0.027092518284916878
4.0,0.026231572031974792
5.0,0.025395330041646957
6.0,0.024581411853432655
7.0,0.023811494931578636
8.0,0.02306552231311798
9.0,0.022346144542098045
10.0,0.02166183851659298
11.0,0.02102467603981495
12.0,0.020415402948856354
13.0,0.019839169457554817
14.0,0.01926426589488983
15.0,0.01869792491197586
16.0,0.01815715618431568
18.0,0.017151400446891785
20.0,0.016199039295315742
22.0,0.015287108719348907
24.0,0.014449640177190304
26.0,0.013707123696804047
28.0,0.012977050617337227
30.0,0.012290645390748978
32.0,0.011640981771051884
36.0,0.010393762961030006
40.0,0.009166010655462742
44.0,0.008126524277031422
48.0,0.007245613262057304
52.0,0.006407055538147688
56.0,0.005524075124412775
60.0,0.004789363592863083
64.0,0.004158142022788525
72.0,0.0030385248828679323
80.0,0.0022109434939920902
88.0,0.0016395787242799997
96.0,0.0013288452755659819
104.0,0.0011764686787500978
112.0,0.000985400634817779
120.0,0.0007455001468770206
128.0,0.0007459145272150636
144.0,0.0005905728903599083
160.0,0.0010270869825035334
176.0,0.0018144414061680436
192.0,0.002165288431569934
208.0,0.002467192942276597
224.0,0.0022370212245732546
240.0,0.0013038539327681065
256.0,7.203262794064358e-05
288.0,-0.001002775738015771
320.0,-0.0002047312300419435
352.0,0.00021626598027069122
384.0,0.00045584019972011447
416.0,-0.0008176607661880553
448.0,-0.0008677644073031843
480.0,-0.00010660686530172825
512.0,-0.0004385282809380442
576.0,-0.0016501162899658084
640.0,0.00010797613504109904
704.0,-3.1429903174284846e-05
768.0,-0.0002288240793859586
832.0,-5.6452710850862786e-05
896.0,-0.002769060665741563
960.0,-0.001616152934730053
1024.0,-0.000679733813740313
1152.0,-0.0005149790085852146
1280.0,-0.001084847841411829
1408.0,-0.0018692886224016547
1536.0,0.0006632860749959946
1664.0,-0.0005870391614735126
1792.0,0.0002229326346423477
1920.0,-5.996123218210414e-05
2048.0,-0.0011971663916483521
2304.0,0.0013522939989343286
2560.0,0.0013817936414852738
2816.0,-0.0006326321163214743
3072.0,-0.0006497314898297191
3328.0,-0.00219041109085083
3584.0,-0.00011903350241482258
3840.0,-0.0006371201016008854
4096.0,0.0003129327960778028
4608.0,0.0020661691669374704
5120.0,-0.00035086917341686785
5632.0,-0.0013548025162890553
6144.0,-0.0007492625736631453
6656.0,-2.87120583379874e-05
7168.0,0.0013914918527007103
7680.0,-0.0005192183889448643
8192.0,-0.0014149562921375036
9216.0,0.0012349371099844575
10240.0,-0.0019064730731770396
11264.0,0.0011246054200455546
12288.0,-0.0018630647100508213
13312.0,0.0017810228746384382
14336.0,9.288966975873336e-05
end
