version,3.0
numOfCh,1
type,point
parent_name,200-cuts
ch_type,1_1
kcount,1
numberNandB,1
brightnessNandB,1
carpet pos,0
pc,0
Time (ms),CH1 Auto-Correlation
1.0,0.02826586738228798
2.0,0.027366846799850464
3.0,0.026490511372685432
4.0,0.025653567165136337
5.0,0.024870270863175392
6.0,0.02412371337413788
7.0,0.023414360359311104
8.0,0.022730669006705284
9.0,0.02203928865492344
10.0,0.02135053090751171
11.0,0.020699363201856613
12.0,0.02010325714945793
13.0,0.019530395045876503
14.0,0.01896115578711033
15.0,0.01839877851307392
16.0,0.017840886488556862
18.0,0.016803430393338203
20.0,0.015850454568862915
22.0,0.014965389855206013
24.0,0.014175694435834885
26.0,0.013423356227576733
28.0,0.012773827649652958
30.0,0.012219914235174656
32.0,0.011690945364534855
36.0,0.010742707177996635
40.0,0.009837869554758072
44.0,0.009005007334053516
48.0,0.008280036970973015
52.0,0.007686805911362171
56.0,0.007259150501340628
60.0,0.006757023744285107
64.0,0.006221423391252756
72.0,0.005176542326807976
80.0,0.004474086221307516
88.0,0.0038475811015814543
96.0,0.003452300326898694
104.0,0.003146503819152713
112.0,0.0026900360826402903
120.0,0.0022209228482097387
128.0,0.0017371323192492127
144.0,0.0004530100559350103
160.0,0.0001700683933449909
176.0,-0.00035577930975705385
192.0,-0.0007258992991410196
208.0,-0.0011229446390643716
224.0,-0.0013349030632525682
240.0,-0.001486918656155467
256.0,-0.0018034270033240318
288.0,-0.001518272329121828
320.0,-0.0008829325088299811
352.0,-0.0013027030508965254
384.0,-0.00033204673673026264
416.0,-0.0004987258580513299
448.0,-0.0011745246592909098
480.0,-0.001433214987628162
512.0,-0.0011117160320281982
576.0,0.000295949459541589
640.0,0.0003630579449236393
704.0,-0.0016675519291311502
768.0,-0.0013946023536846042
832.0,-0.0005261479527689517
896.0,-0.0011793962912634015
960.0,-0.001145858084782958
1024.0,-0.0024273311719298363
1152.0,0.0009945876663550735
1280.0,0.0018562014447525144
1408.0,0.0024371750187128782
1536.0,0.0006867206539027393
1664.0,-0.0005595276015810668
1792.0,-0.0010148488217964768
1920.0,-0.0010064414236694574
2048.0,-0.0005373018211685121
2304.0,-0.0012762725818902254
2560.0,0.00026895906194113195
2816.0,0.002143420744687319
3072.0,-0.00044135801726952195
3328.0,-0.0010504437377676368
3584.0,-0.0019560977816581726
3840.0,-0.0008516163798049092
4096.0,0.0016258639516308904
4608.0,-0.00028033944545313716
5120.0,-0.0002961915743071586
5632.0,0.000793053419329226
6144.0,-0.0009182931389659643
6656.0,0.0003653877356555313
7168.0,0.0007679240661673248
7680.0,-0.001694390783086419
8192.0,-0.00010531488078413531
9216.0,-0.000631725590210408
10240.0,-0.0010061574866995215
11264.0,0.0014957254752516747
12288.0,0.0017649529036134481
13312.0,-0.0007729760254733264
14336.0,-0.001775548793375492
end
