version,3.0
numOfCh,1
type,point
parent_name,200-cuts
ch_type,1_1
kcount,1
numberNandB,1
brightnessNandB,1
carpet pos,0
pc,0
Time (ms),CH1 Auto-Correlation
1.0,0.02874566800892353
2.0,0.027850590646266937
3.0,0.026997404173016548
4.0,0.02616579458117485
5.0,0.02535894699394703
6.0,0.024586832150816917
7.0,0.023846250027418137
8.0,0.023135196417570114
9.0,0.022463159635663033
10.0,0.021813107654452324
11.0,0.02118649333715439
12.0,0.020617755129933357
13.0,0.020087607204914093
14.0,0.019581329077482224
15.0,0.01909184269607067
16.0,0.01860846020281315
18.0,0.01765359938144684
20.0,0.016712795943021774
22.0,0.015784451737999916
24.0,0.014921020716428757
26.0,0.014149591326713562
28.0,0.013415374793112278
30.0,0.01267221849411726
32.0,0.011980905197560787
36.0,0.010682174935936928
40.0,0.009621413424611092
44.0,0.008706086315214634
48.0,0.007945963181555271
52.0,0.007278174161911011
56.0,0.006599776446819305
60.0,0.0059781200252473354
64.0,0.005562125705182552
72.0,0.005067789927124977
80.0,0.004449938889592886
88.0,0.003608923638239503
96.0,0.002938420744612813
104.0,0.002523561008274555
112.0,0.0021358586382120848
120.0,0.0018052749801427126
128.0,0.0017967396415770054
144.0,0.0019056277815252542
160.0,0.0019158099312335253
176.0,0.002407975494861603
192.0,0.002448756480589509
208.0,0.0016603568801656365
224.0,0.0016805543564260006
240.0,0.001849756808951497
256.0,0.002102624624967575
288.0,0.0020268394146114588
320.0,0.0011524779256433249
352.0,0.0018234997987747192
384.0,0.0021235314197838306
416.0,0.00307689281180501
448.0,0.003395258216187358
480.0,0.00266265613026917
512.0,0.0010474229929968715
576.0,-0.0010534229222685099
640.0,-0.0017667997162789106
704.0,-0.00027510084328241646
768.0,0.00044206820894032717
832.0,-0.00042093233787454665
896.0,-0.0010129660367965698
960.0,-0.001355624059215188
1024.0,-0.001702302834019065
1152.0,0.0005970752099528909
1280.0,0.0001911388389999047
1408.0,-0.0007662831922061741
1536.0,-0.0012273743050172925
1664.0,-0.0001389815442962572
1792.0,-0.0006076795398257673
1920.0,-0.0002847028081305325
2048.0,0.000696670264005661
2304.0,0.0008891704492270947
2560.0,0.001921823830343783
2816.0,0.0006258157663978636
3072.0,-0.0002493819047231227
3328.0,-0.0014544620644301176
3584.0,-0.003024121979251504
3840.0,-0.0024489329662173986
4096.0,-0.0012604359071701765
4608.0,0.0005208267248235643
5120.0,0.0004049935669172555
5632.0,-0.0010052553843706846
6144.0,-0.0023041267413645983
6656.0,0.0009202967630699277
7168.0,0.0005858872318640351
7680.0,-0.0008417494827881455
8192.0,-0.0010484909871593118
9216.0,-0.00020227997447364032
10240.0,-0.0004422947240527719
11264.0,0.001310435589402914
12288.0,0.001665359828621149
13312.0,0.0006562299095094204
14336.0,0.00035404006484895945
end
