version,3.0
numOfCh,1
type,point
parent_name,200-cuts
ch_type,1_1
kcount,1
numberNandB,1
brightnessNandB,1
carpet pos,0
pc,0
Time (ms),CH1 Auto-Correlation
1.0,0.02192816138267517
2.0,0.0213161688297987
3.0,0.020728930830955505
4.0,0.02017238549888134
5.0,0.01962839625775814
6.0,0.01911463402211666
7.0,0.018619468435645103
8.0,0.018129438161849976
9.0,0.01765475794672966
10.0,0.017196372151374817
11.0,0.016746370121836662
12.0,0.016313204541802406
13.0,0.015907932072877884
14.0,0.01552540622651577
15.0,0.01513966266065836
16.0,0.014772173017263412
18.0,0.01408249232918024
20.0,0.013450085185468197
22.0,0.012872278690338135
24.0,0.012296169996261597
26.0,0.011757534928619862
28.0,0.011259539984166622
30.0,0.010805044323205948
32.0,0.010369636118412018
36.0,0.009559952653944492
40.0,0.008918941020965576
44.0,0.008349397219717503
48.0,0.007855631411075592
52.0,0.00746570760384202
56.0,0.007119373884052038
60.0,0.006714952178299427
64.0,0.006289992947131395
72.0,0.0053590028546750546
80.0,0.004529167432337999
88.0,0.003961001522839069
96.0,0.0037035364657640457
104.0,0.0034152951557189226
112.0,0.003029388375580311
120.0,0.0026699344161897898
128.0,0.0023644675966352224
144.0,0.0019412727560847998
160.0,0.0018654665909707546
176.0,0.0014250027015805244
192.0,0.0008058491512201726
208.0,0.00030763240647502244
224.0,-0.00029642850859090686
240.0,-0.00042916013626381755
256.0,-0.0005396932829171419
288.0,-0.0009507328504696488
320.0,-0.0005100347334519029
352.0,6.218218186404556e-05
384.0,0.0006597176543436944
416.0,0.00011359513882780448
448.0,-0.0003910721279680729
480.0,-0.0010405716020613909
512.0,-0.0014972020871937275
576.0,-0.0004559434892144054
640.0,0.00033422597334720194
704.0,-0.0006316090002655983
768.0,0.0005377582856453955
832.0,0.0025016358122229576
896.0,0.00166995357722044
960.0,0.00015765718126203865
1024.0,-0.00011959030234720558
1152.0,0.0009296709904447198
1280.0,-0.000738851900678128
1408.0,-0.001787859946489334
1536.0,-0.0005644296761602163
1664.0,-0.0022275755181908607
1792.0,-0.0013567636488005519
1920.0,0.0006277683423832059
2048.0,0.0013256228994578123
2304.0,-0.0006593508878722787
2560.0,-0.0013096570037305355
2816.0,0.00036569274379871786
3072.0,-0.0006207156111486256
3328.0,-0.001232762006111443
3584.0,-0.001168983755633235
3840.0,0.0012952785473316908
4096.0,0.0013840089086443186
4608.0,0.001507012639194727
5120.0,0.001043067779392004
5632.0,-0.0019428455270826817
6144.0,-0.0010032785357907414
6656.0,0.00033375335624441504
7168.0,-0.0004006221715826541
7680.0,9.420327842235565e-05
8192.0,-0.001446670270524919
9216.0,0.0004280753491912037
10240.0,-6.297840445768088e-05
11264.0,0.0003687346470542252
12288.0,-0.00038167551974765956
13312.0,-0.00032718549482524395
14336.0,-0.001259949873201549
end
