version,3.0
numOfCh,1
type,point
parent_name,200-cuts
ch_type,1_1
kcount,1
numberNandB,1
brightnessNandB,1
carpet pos,0
pc,0
Time (ms),CH1 Auto-Correlation
1.0,0.07172564417123795
2.0,0.06949487328529358
3.0,0.06735505908727646
4.0,0.0653437077999115
5.0,0.06341612339019775
6.0,0.06157398968935013
7.0,0.05975838005542755
8.0,0.05802988260984421
9.0,0.056389931589365005
10.0,0.05470412224531174
11.0,0.053040362894535065
12.0,0.0514056533575058
13.0,0.04989081621170044
14.0,0.048420149832963943
15.0,0.0470413863658905
16.0,0.045737795531749725
18.0,0.04322916641831398
20.0,0.04096580669283867
22.0,0.03887629508972168
24.0,0.03686072304844856
26.0,0.03504778444766998
28.0,0.033327993005514145
30.0,0.03174309432506561
32.0,0.03033413738012314
36.0,0.02799258939921856
40.0,0.026134809479117393
44.0,0.024469148367643356
48.0,0.022821873426437378
52.0,0.0211905799806118
56.0,0.019689137116074562
60.0,0.018278077244758606
64.0,0.01678972877562046
72.0,0.013749920763075352
80.0,0.011387002654373646
88.0,0.009014113806188107
96.0,0.007017549127340317
104.0,0.006003641989082098
112.0,0.004565277136862278
120.0,0.0030317215714603662
128.0,0.002070240443572402
144.0,0.002220687922090292
160.0,0.0022769710049033165
176.0,0.002088988432660699
192.0,0.0017473637126386166
208.0,0.002797964960336685
224.0,0.005110284313559532
240.0,0.006433771923184395
256.0,0.0071911197155714035
288.0,0.0065507665276527405
320.0,0.005066186189651489
352.0,0.005937586538493633
384.0,0.0014069085009396076
416.0,-0.0014815587783232331
448.0,0.00013786448107566684
480.0,-0.0008723257342353463
512.0,-0.0005125814932398498
576.0,-0.0018224843079224229
640.0,-0.00048127039917744696
704.0,-0.0006796189118176699
768.0,0.0010634821373969316
832.0,-0.0012225037207826972
896.0,-0.0035006303805857897
960.0,-0.0003248914727009833
1024.0,0.0019505068194121122
1152.0,-0.004961828235536814
1280.0,-0.00373911508359015
1408.0,-0.003771137446165085
1536.0,-0.005011552479118109
1664.0,-0.0044514695182442665
1792.0,-0.004130163695663214
1920.0,-0.0010722045553848147
2048.0,0.000544109323527664
2304.0,-0.0004840022884309292
2560.0,-0.0024935060646384954
2816.0,-0.004964720923453569
3072.0,-0.00160454330034554
3328.0,0.0019362532766535878
3584.0,-0.0020934520289301872
3840.0,-0.0020921994000673294
4096.0,0.0024095787666738033
4608.0,0.003292633453384042
5120.0,0.0044669825583696365
5632.0,0.004297971725463867
6144.0,-0.003134737955406308
6656.0,-0.004468849394470453
7168.0,-0.005022196099162102
7680.0,-0.00018882589938584715
8192.0,-0.001708288094960153
9216.0,0.0009200497879646719
10240.0,0.0011637696297839284
11264.0,-0.00047254085075110197
12288.0,-0.002412420231848955
13312.0,0.0011012348113581538
14336.0,0.0012420392595231533
end
