version,3.0
numOfCh,1
type,point
parent_name,200-cuts
ch_type,1_1
kcount,1
numberNandB,1
brightnessNandB,1
carpet pos,0
pc,0
Time (ms),CH1 Auto-Correlation
1.0,0.03162912651896477
2.0,0.030630430206656456
3.0,0.02967687137424946
4.0,0.028785567730665207
5.0,0.02793566696345806
6.0,0.02710421197116375
7.0,0.026290375739336014
8.0,0.025498030707240105
9.0,0.02474524825811386
10.0,0.024062033742666245
11.0,0.023396247997879982
12.0,0.022764140740036964
13.0,0.02215653285384178
14.0,0.021592553704977036
15.0,0.021062003448605537
16.0,0.02054639160633087
18.0,0.019589034840464592
20.0,0.018720189109444618
22.0,0.017861369997262955
24.0,0.017095554620027542
26.0,0.01646455191075802
28.0,0.015865251421928406
30.0,0.015343314036726952
32.0,0.014809544198215008
36.0,0.013756784610450268
40.0,0.01262957789003849
44.0,0.011511924676597118
48.0,0.010623740032315254
52.0,0.009906569495797157
56.0,0.009288792498409748
60.0,0.008594093844294548
64.0,0.007904277183115482
72.0,0.006765951402485371
80.0,0.0059754871763288975
88.0,0.005505638662725687
96.0,0.005365816410630941
104.0,0.005017152521759272
112.0,0.004824141506105661
120.0,0.004784539807587862
128.0,0.004526723176240921
144.0,0.004052477423101664
160.0,0.0038173559587448835
176.0,0.0029202215373516083
192.0,0.002004011766985059
208.0,0.0007866044761613011
224.0,0.0002641199389472604
240.0,-0.00012202158541185781
256.0,-0.0006891760276630521
288.0,-0.0004795610439032316
320.0,0.0008724782383069396
352.0,0.0012837630929425359
384.0,0.0003779210092034191
416.0,0.00013229194155428559
448.0,-0.0006893930840305984
480.0,-0.000487498939037323
512.0,-0.000680441502481699
576.0,-0.0014497981173917651
640.0,-0.00272565521299839
704.0,-0.0037154583260416985
768.0,-0.003431534394621849
832.0,-0.0030242553912103176
896.0,-0.001448927796445787
960.0,-0.0018241689540445805
1024.0,-0.002706414321437478
1152.0,-0.002835442079231143
1280.0,-0.0016176496865227818
1408.0,0.0003216277982573956
1536.0,0.0020245250780135393
1664.0,0.0025682589039206505
1792.0,0.0019995197653770447
1920.0,0.0033276276662945747
2048.0,0.0028493155259639025
2304.0,0.0011016286443918943
2560.0,-0.0015099237207323313
2816.0,-0.0022780641447752714
3072.0,-0.0016172240721061826
3328.0,0.0002594284014776349
3584.0,-0.0007756500272080302
3840.0,0.0012928532669320703
4096.0,0.003084259107708931
4608.0,-0.000910367292817682
5120.0,-0.002259132219478488
5632.0,0.0006230460712686181
6144.0,0.0014866385608911514
6656.0,-0.0015148252714425325
7168.0,-0.00021167092199902982
7680.0,-0.00031628142460249364
8192.0,0.0006980589823797345
9216.0,-0.001867879880592227
10240.0,0.0003012409433722496
11264.0,-4.5767355913994834e-05
12288.0,-0.001023178338073194
13312.0,0.0017661162419244647
14336.0,-0.0007791171665303409
end
