version,3.0
numOfCh,1
type,point
parent_name,200-cuts
ch_type,1_1
kcount,1
numberNandB,1
brightnessNandB,1
carpet pos,0
pc,0
Time (ms),CH1 Auto-Correlation
1.0,0.05747619643807411
2.0,0.05562306195497513
3.0,0.053860604763031006
4.0,0.05216309055685997
5.0,0.050507400184869766
6.0,0.04892417788505554
7.0,0.047457505017519
8.0,0.046080391854047775
9.0,0.04478644207119942
10.0,0.04351373389363289
11.0,0.04228924959897995
12.0,0.04107390716671944
13.0,0.03990080952644348
14.0,0.03875356912612915
15.0,0.03761138394474983
16.0,0.036525093019008636
18.0,0.03438444063067436
20.0,0.03234310820698738
22.0,0.03047901578247547
24.0,0.02875572443008423
26.0,0.027108054608106613
28.0,0.02552872709929943
30.0,0.024075569584965706
32.0,0.02272103726863861
36.0,0.020236073061823845
40.0,0.017999520525336266
44.0,0.016025807708501816
48.0,0.014481592923402786
52.0,0.013191916979849339
56.0,0.011963510885834694
60.0,0.01090516708791256
64.0,0.010142769664525986
72.0,0.008713176473975182
80.0,0.006989877205342054
88.0,0.005123583134263754
96.0,0.003222147235646844
104.0,0.001556584145873785
112.0,0.0005286069354042411
120.0,0.00017443232354708016
128.0,8.019873348530382e-05
144.0,-0.0002590145741123706
160.0,-0.0008669632952660322
176.0,-0.0019560661166906357
192.0,-0.002639459678903222
208.0,-0.001947003765963018
224.0,-0.0017922192346304655
240.0,-0.0035072974860668182
256.0,-0.005221737083047628
288.0,-0.005908518563956022
320.0,-0.0046161781065166
352.0,-0.004139475524425507
384.0,-0.003691118210554123
416.0,-0.0026734541170299053
448.0,-0.0009627159452065825
480.0,0.0009289926965720952
512.0,0.0035856678150594234
576.0,0.0029830471612513065
640.0,0.0017978711985051632
704.0,0.0035980551037937403
768.0,0.0029380382038652897
832.0,0.0008545436430722475
896.0,0.0013951522996649146
960.0,0.0005063021671958268
1024.0,-0.001579712494276464
1152.0,-0.0008338596089743078
1280.0,0.0033422159031033516
1408.0,0.004455873277038336
1536.0,0.0019938417244702578
1664.0,-0.003965005744248629
1792.0,0.0003777784004341811
1920.0,0.0009670114959590137
2048.0,-0.001184404594823718
2304.0,0.0006163582438603044
2560.0,-0.0007399352616630495
2816.0,9.360219701193273e-05
3072.0,-0.0030207857489585876
3328.0,0.002702407306060195
3584.0,-0.0025020623579621315
3840.0,0.0006382187129929662
4096.0,-0.0011378842173144221
4608.0,-0.0010452851420268416
5120.0,-0.0037382470909506083
5632.0,-0.0005532209761440754
6144.0,-0.0007845408981665969
6656.0,-0.0032591240014880896
7168.0,0.0016263467259705067
7680.0,-0.001310169231146574
8192.0,-0.0009841787395998836
9216.0,0.0002441462711431086
10240.0,0.0011166592594236135
11264.0,0.002650292357429862
12288.0,0.0011734848376363516
13312.0,-0.0002491625491529703
14336.0,-0.0034950438421219587
end
