version,3.0
numOfCh,1
type,point
parent_name,200-cuts
ch_type,1_1
kcount,1
numberNandB,1
brightnessNandB,1
carpet pos,0
pc,0
Time (ms),CH1 Auto-Correlation
1.0,0.03319750726222992
2.0,0.032197050750255585
3.0,0.031227748841047287
4.0,0.03030303120613098
5.0,0.029412226751446724
6.0,0.028536679223179817
7.0,0.02770957350730896
8.0,0.02691584825515747
9.0,0.026141365990042686
10.0,0.02539551630616188
11.0,0.024680297821760178
12.0,0.024008695036172867
13.0,0.023357931524515152
14.0,0.022717667743563652
15.0,0.022067267447710037
16.0,0.021447619423270226
18.0,0.02028415910899639
20.0,0.01918254792690277
22.0,0.018094820901751518
24.0,0.01713477447628975
26.0,0.01626107282936573
28.0,0.015421531163156033
30.0,0.014660743065178394
32.0,0.013938874006271362
36.0,0.012611789628863335
40.0,0.011435942724347115
44.0,0.010213354602456093
48.0,0.009111667051911354
52.0,0.008131960406899452
56.0,0.007179706357419491
60.0,0.006308054551482201
64.0,0.005502661690115929
72.0,0.004064581356942654
80.0,0.0027359516825526953
88.0,0.0015019146958366036
96.0,0.0006213820306584239
104.0,0.00015965086640790105
112.0,8.557777618989348e-05
120.0,6.646754627581686e-05
128.0,-5.011553002987057e-05
144.0,-0.0002903302665799856
160.0,-0.000897770281881094
176.0,-0.0012030606158077717
192.0,-0.0013723858864977956
208.0,-0.001514278817921877
224.0,-0.002069612732157111
240.0,-0.0016576079651713371
256.0,-0.0008208152721635997
288.0,0.00013460146146826446
320.0,0.00037373905070126057
352.0,0.00025096602621488273
384.0,0.0004446059465408325
416.0,-0.001092916470952332
448.0,-0.0013731818180531263
480.0,-0.0012789024040102959
512.0,-0.0008142160950228572
576.0,0.001234368421137333
640.0,0.0012676584301516414
704.0,-0.0013470571720972657
768.0,-0.0030962482560425997
832.0,-0.0015743494732305408
896.0,-0.0006674290634691715
960.0,0.0016143886605277658
1024.0,0.0015118709998205304
1152.0,-0.0009621594217605889
1280.0,-5.575889372266829e-05
1408.0,-7.740352157270536e-05
1536.0,-1.9388317014090717e-05
1664.0,0.003468933282420039
1792.0,-0.00020696247520390898
1920.0,-0.0014336192980408669
2048.0,-0.0007204474532045424
2304.0,-0.0009337177616544068
2560.0,0.0007713044760748744
2816.0,-0.00089552893768996
3072.0,0.00010902740177698433
3328.0,0.000244220340391621
3584.0,0.001330339815467596
3840.0,0.00033014497603289783
4096.0,0.0008761992212384939
4608.0,-0.0006545617361553013
5120.0,0.00012582389172166586
5632.0,-0.0006068280781619251
6144.0,-0.0008470002212561667
6656.0,0.0005674799322150648
7168.0,-0.0001709283678792417
7680.0,-0.0011335673043504357
8192.0,0.0005227655055932701
9216.0,-0.0008243272895924747
10240.0,-0.0007884015212766826
11264.0,0.0012593555729836226
12288.0,-5.272427006275393e-05
13312.0,-0.00118390959687531
14336.0,-0.0006235282053239644
end
