version,3.0
numOfCh,1
type,point
parent_name,200-cuts
ch_type,1_1
kcount,1
numberNandB,1
brightnessNandB,1
carpet pos,0
pc,0
Time (ms),CH1 Auto-Correlation
1.0,0.03182315081357956
2.0,0.03080003149807453
3.0,0.02981014922261238
4.0,0.02884410321712494
5.0,0.02793596126139164
6.0,0.02707654982805252
7.0,0.026240020990371704
8.0,0.02543347142636776
9.0,0.024660563096404076
10.0,0.023901747539639473
11.0,0.023142950609326363
12.0,0.022424763068556786
13.0,0.021742621436715126
14.0,0.021061306819319725
15.0,0.020391279831528664
16.0,0.019755447283387184
18.0,0.01850043423473835
20.0,0.0173692274838686
22.0,0.016348974779248238
24.0,0.015428783372044563
26.0,0.014570564962923527
28.0,0.013712827116250992
30.0,0.012869779020547867
32.0,0.012048019096255302
36.0,0.010608326643705368
40.0,0.009397776797413826
44.0,0.008334826678037643
48.0,0.0074638547375798225
52.0,0.0066705322824418545
56.0,0.006039652973413467
60.0,0.005478259641677141
64.0,0.005046139005571604
72.0,0.004297968465834856
80.0,0.0037497805897146463
88.0,0.003000089433044195
96.0,0.0021401443518698215
104.0,0.0015508992364630103
112.0,0.0012533193221315742
120.0,0.0008331674034707248
128.0,0.0005180572043173015
144.0,0.00034027366200461984
160.0,0.00016969522403087467
176.0,-0.00014786911197006702
192.0,-0.001192675088532269
208.0,-0.0014283445198088884
224.0,-0.0009333871421404183
240.0,-0.0009913183748722076
256.0,-0.0015827215975150466
288.0,-0.0021182175260037184
320.0,-0.0021813767962157726
352.0,-0.0028117052279412746
384.0,-0.0019132207380607724
416.0,-0.0011097141541540623
448.0,-0.0016316582914441824
480.0,-0.0026396827306598425
512.0,-0.0009993258863687515
576.0,-0.0007745924522168934
640.0,0.0015080035664141178
704.0,0.0005778325721621513
768.0,0.00015660443750675768
832.0,0.0008739126496948302
896.0,0.0011478210799396038
960.0,0.0011666795471683145
1024.0,-0.0001976357598323375
1152.0,0.00021806618315167725
1280.0,-0.00013504736125469208
1408.0,0.00019578388310037553
1536.0,-0.00047355564311146736
1664.0,0.0006795917288400233
1792.0,0.0012058403808623552
1920.0,-0.0007947171106934547
2048.0,0.0008700143662281334
2304.0,-0.000664263847284019
2560.0,0.0009099458111450076
2816.0,-0.00018365430878475308
3072.0,0.0008551032515242696
3328.0,2.002940709644463e-05
3584.0,0.0009387170430272818
3840.0,0.000303665961837396
4096.0,-0.0014537157258018851
4608.0,-0.00010063267109217122
5120.0,-0.0006912935059517622
5632.0,-0.0007245737942866981
6144.0,0.0011242618784308434
6656.0,-0.0013248359318822622
7168.0,-0.00026455524493940175
7680.0,-0.0012313078623265028
8192.0,-8.406637789448723e-05
9216.0,0.0005972792860120535
10240.0,-0.0004926640540361404
11264.0,-0.00011021344107575715
12288.0,0.0004931357107125223
13312.0,-0.0004445577214937657
14336.0,0.00038091771421022713
end
