version,3.0
numOfCh,1
type,point
parent_name,200-cuts
ch_type,1_1
kcount,1
numberNandB,1
brightnessNandB,1
carpet pos,0
pc,0
Time (ms),CH1 Auto-Correlation
1.0,0.021797562018036842
2.0,0.02114538662135601
3.0,0.020519167184829712
4.0,0.019934112206101418
5.0,0.019372813403606415
6.0,0.01882047764956951
7.0,0.01827211305499077
8.0,0.01776178739964962
9.0,0.017265653237700462
10.0,0.016768064349889755
11.0,0.016293145716190338
12.0,0.01583746075630188
13.0,0.015404784120619297
14.0,0.014987117610871792
15.0,0.014588514342904091
16.0,0.01421193964779377
18.0,0.013484391383826733
20.0,0.012794293463230133
22.0,0.01214161142706871
24.0,0.011557766236364841
26.0,0.011013465002179146
28.0,0.010471895337104797
30.0,0.009978750720620155
32.0,0.009507814422249794
36.0,0.008641953580081463
40.0,0.007892599329352379
44.0,0.007201312575489283
48.0,0.0064786942675709724
52.0,0.00580002972856164
56.0,0.0051838732324540615
60.0,0.004669457674026489
64.0,0.004273605532944202
72.0,0.003726067254319787
80.0,0.00314675853587687
88.0,0.002395864110440016
96.0,0.0015653183218091726
104.0,0.0009430987993255258
112.0,0.0006955239223316312
120.0,0.000822270754724741
128.0,0.0008148421766236424
144.0,0.0006229369319044054
160.0,0.00042704507359303534
176.0,5.9377425714046694e-06
192.0,-0.00021957566787023097
208.0,-0.00022417672153096646
224.0,-0.0006241129012778401
240.0,-0.0007376018911600113
256.0,-0.0006742528639733791
288.0,-0.0009380315896123648
320.0,-0.0005412843893282115
352.0,2.6323192287236452e-05
384.0,0.0005848725559189916
416.0,0.0009892572415992618
448.0,0.0018649328267201781
480.0,0.0019904463551938534
512.0,0.0016545020043849945
576.0,0.00033873028587549925
640.0,0.0014282817719504237
704.0,0.0007357533322647214
768.0,0.0003749963943846524
832.0,0.0011230724630877376
896.0,-0.0002688537060748786
960.0,-0.0007537901401519775
1024.0,0.0004752033855766058
1152.0,0.00016987188428174704
1280.0,0.0003174656885676086
1408.0,0.00021534306870307773
1536.0,-0.00012001581490039825
1664.0,0.0009448474156670272
1792.0,0.0016513133887201548
1920.0,-0.0006894869147799909
2048.0,-0.0004955801414325833
2304.0,-0.00034942879574373364
2560.0,-0.0005930110346525908
2816.0,-0.0008949756156653166
3072.0,-0.0018389103934168816
3328.0,-0.0012651988072320819
3584.0,0.0001498856145190075
3840.0,-0.0009850992355495691
4096.0,0.000608050380833447
4608.0,-0.00042358803329989314
5120.0,-0.00022362242452800274
5632.0,0.0004892575088888407
6144.0,0.0005675161955878139
6656.0,-0.0002109229244524613
7168.0,0.0001314721448579803
7680.0,-0.0006156988092698157
8192.0,-0.00012858465197496116
9216.0,-0.0006937694270163774
10240.0,-0.0005587490741163492
11264.0,-0.0006557567394338548
12288.0,0.00017347940593026578
13312.0,0.0003881744632963091
14336.0,0.0017387146363034844
end
