version,3.0
numOfCh,1
type,point
parent_name,200-cuts
ch_type,1_1
kcount,1
numberNandB,1
brightnessNandB,1
carpet pos,0
pc,0
Time (ms),CH1 Auto-Correlation
1.0,0.08094677329063416
2.0,0.07853461056947708
3.0,0.07623269408941269
4.0,0.07399499416351318
5.0,0.0718512311577797
6.0,0.06979663670063019
7.0,0.06783338636159897
8.0,0.06597893685102463
9.0,0.06410861015319824
10.0,0.062296368181705475
11.0,0.060618992894887924
12.0,0.05903561785817146
13.0,0.05747384950518608
14.0,0.05590861290693283
15.0,0.054428037256002426
16.0,0.05293506383895874
18.0,0.05001971498131752
20.0,0.04721732437610626
22.0,0.0446883924305439
24.0,0.04233209043741226
26.0,0.04016062244772911
28.0,0.03806842863559723
30.0,0.03609447926282883
32.0,0.03422601893544197
36.0,0.03067176230251789
40.0,0.02765600010752678
44.0,0.024824148043990135
48.0,0.022511254996061325
52.0,0.020474329590797424
56.0,0.01860176771879196
60.0,0.01680031418800354
64.0,0.014956748113036156
72.0,0.011656159535050392
80.0,0.009341724216938019
88.0,0.007083136588335037
96.0,0.00525354128330946
104.0,0.004724561236798763
112.0,0.004435638897120953
120.0,0.004428165964782238
128.0,0.003860957222059369
144.0,0.0032403464429080486
160.0,0.0023897779174149036
176.0,0.0017335688462480903
192.0,0.003079752903431654
208.0,0.004122697748243809
224.0,0.0027685302775353193
240.0,0.00011639281001407653
256.0,-0.0006370557239279151
288.0,-0.0019597739446908236
320.0,-0.0004340835439506918
352.0,0.00015860359417274594
384.0,-0.002577190287411213
416.0,-0.002697295742109418
448.0,-0.004179068841040134
480.0,-0.003560468088835478
512.0,-0.003693921025842428
576.0,0.0003044886398129165
640.0,0.0008733205613680184
704.0,0.0014416947960853577
768.0,0.002122055273503065
832.0,0.0014476291835308075
896.0,6.4736900640127715e-06
960.0,0.00014949831529520452
1024.0,0.003337921341881156
1152.0,0.0006326898001134396
1280.0,0.0003458856663201004
1408.0,-0.00018252985319122672
1536.0,9.307044820161536e-05
1664.0,0.0005293522262945771
1792.0,0.005435318220406771
1920.0,0.002491605933755636
2048.0,-0.002975322538986802
2304.0,0.001257550437003374
2560.0,-0.004874314647167921
2816.0,0.0030089698266237974
3072.0,0.003785396460443735
3328.0,-0.001102337148040533
3584.0,-0.002380369696766138
3840.0,-0.003308957675471902
4096.0,-0.00020142745051998645
4608.0,-0.0015528248623013496
5120.0,-0.0008938327664509416
5632.0,0.0016087793046608567
6144.0,-0.006567604374140501
6656.0,0.0005517587997019291
7168.0,-0.0026800609193742275
7680.0,0.0004234663210809231
8192.0,-0.0005864484119229019
9216.0,0.00042304646922275424
10240.0,0.000894474855158478
11264.0,0.0006300662644207478
12288.0,0.0005730476113967597
13312.0,0.0003413217782508582
14336.0,0.0006313275080174208
end
