version,3.0
numOfCh,1
type,point
parent_name,200-cuts
ch_type,1_1
kcount,1
numberNandB,1
brightnessNandB,1
carpet pos,0
pc,0
Time (ms),CH1 Auto-Correlation
1.0,0.023389071226119995
2.0,0.02271859161555767
3.0,0.022075921297073364
4.0,0.021448645740747452
5.0,0.020838385447859764
6.0,0.02026110514998436
7.0,0.01971113309264183
8.0,0.01919177547097206
9.0,0.018686169758439064
10.0,0.018206289038062096
11.0,0.01774110458791256
12.0,0.017292626202106476
13.0,0.016859563067555428
14.0,0.016442030668258667
15.0,0.016022855415940285
16.0,0.015616178512573242
18.0,0.014836279675364494
20.0,0.014129996299743652
22.0,0.013463107869029045
24.0,0.012828109785914421
26.0,0.012234271503984928
28.0,0.011701268143951893
30.0,0.011210808530449867
32.0,0.010727201588451862
36.0,0.009904136881232262
40.0,0.009170382283627987
44.0,0.008458455093204975
48.0,0.007771845906972885
52.0,0.007217161823064089
56.0,0.006710205227136612
60.0,0.0062460401095449924
64.0,0.005818404722958803
72.0,0.004957085940986872
80.0,0.004469793289899826
88.0,0.004220400005578995
96.0,0.00386812468059361
104.0,0.003537900745868683
112.0,0.00332552008330822
120.0,0.0032997140660881996
128.0,0.003201014595106244
144.0,0.0027762562967836857
160.0,0.0020701554603874683
176.0,0.0019218852976337075
192.0,0.0020515897776931524
208.0,0.002237459644675255
224.0,0.0025191563181579113
240.0,0.00333610363304615
256.0,0.0033289194107055664
288.0,0.0028756277170032263
320.0,0.002645940287038684
352.0,0.0025054195430129766
384.0,0.002191541250795126
416.0,0.001605326309800148
448.0,0.0004334456170909107
480.0,-0.0005554152885451913
512.0,-0.0005704090581275523
576.0,0.0006650231662206352
640.0,0.0015940327430143952
704.0,0.0014146172907203436
768.0,-0.0003204344247933477
832.0,-0.00039825853309594095
896.0,0.0008243058691732585
960.0,0.0014910802710801363
1024.0,0.0008991500362753868
1152.0,0.00046124894288368523
1280.0,0.0013559056678786874
1408.0,-0.0011083211284130812
1536.0,-0.0013735760003328323
1664.0,-0.0023261636961251497
1792.0,-0.0020934101194143295
1920.0,-0.0009226805996149778
2048.0,-0.0019108650740236044
2304.0,-0.0003937211586162448
2560.0,-0.0006479363655671477
2816.0,-0.0013161581009626389
3072.0,-0.00037825098843313754
3328.0,0.00013501483772415668
3584.0,0.0006898957071825862
3840.0,0.0007818042649887502
4096.0,1.4224458936951123e-05
4608.0,0.0014807791449129581
5120.0,0.0006196059403009713
5632.0,0.0008496664231643081
6144.0,0.0011549163609743118
6656.0,-0.0011958928080275655
7168.0,0.0007584489649161696
7680.0,-0.0019455145811662078
8192.0,-0.0021611505653709173
9216.0,-0.0013852257980033755
10240.0,0.0009250170551240444
11264.0,0.0007476487662643194
12288.0,-0.0018867305479943752
13312.0,-0.0008590695215389132
14336.0,-0.0017237766878679395
end
