version,3.0
numOfCh,1
type,point
parent_name,200-cuts
ch_type,1_1
kcount,1
numberNandB,1
brightnessNandB,1
carpet pos,0
pc,0
Time (ms),CH1 Auto-Correlation
1.0,0.03272448480129242
2.0,0.03179144859313965
3.0,0.030895769596099854
4.0,0.030046595260500908
5.0,0.029244476929306984
6.0,0.028475120663642883
7.0,0.02773912064731121
8.0,0.02700737677514553
9.0,0.026305094361305237
10.0,0.02563447877764702
11.0,0.02497529424726963
12.0,0.02432665415108204
13.0,0.023695766925811768
14.0,0.023093698546290398
15.0,0.02251565270125866
16.0,0.021951744332909584
18.0,0.020877258852124214
20.0,0.01988745480775833
22.0,0.01896708458662033
24.0,0.018088895827531815
26.0,0.017241477966308594
28.0,0.016423016786575317
30.0,0.01566149853169918
32.0,0.014919205568730831
36.0,0.013606353662908077
40.0,0.012368312105536461
44.0,0.011129114776849747
48.0,0.009959222748875618
52.0,0.008874936029314995
56.0,0.007891626097261906
60.0,0.006965495180338621
64.0,0.006146714091300964
72.0,0.005125574767589569
80.0,0.004478277172893286
88.0,0.004072725307196379
96.0,0.003857444738969207
104.0,0.003908932209014893
112.0,0.0038405652157962322
120.0,0.003867006627842784
128.0,0.003891527187079191
144.0,0.003293848130851984
160.0,0.0030673097353428602
176.0,0.0033930931240320206
192.0,0.0030659439507871866
208.0,0.0019756625406444073
224.0,0.00021997421572450548
240.0,-0.0012532853288576007
256.0,-0.0020170477218925953
288.0,-0.0008715885924175382
320.0,0.0005466500297188759
352.0,0.0006586803938262165
384.0,-0.00020506029250100255
416.0,-0.0020129154436290264
448.0,-0.0021794727072119713
480.0,-0.0004418226017151028
512.0,-4.5090328057995066e-05
576.0,-0.0014331704005599022
640.0,-0.0008551385835744441
704.0,0.0009175931918434799
768.0,-0.0007423273636959493
832.0,0.000764433469157666
896.0,0.00037139630876481533
960.0,0.0008777595357969403
1024.0,0.0012795195216313004
1152.0,-0.00023328389215748757
1280.0,-0.0016240655677393079
1408.0,-0.002121439203619957
1536.0,0.00028664752608165145
1664.0,0.0016679144464433193
1792.0,0.0009660188225097954
1920.0,-0.0009006555774249136
2048.0,-0.000695030321367085
2304.0,-0.0005754370940849185
2560.0,-0.001245283056050539
2816.0,-0.0013628157321363688
3072.0,-0.002815085696056485
3328.0,-0.00047032529255375266
3584.0,-0.0016442897031083703
3840.0,-0.0007451652199961245
4096.0,-0.0006692700553685427
4608.0,0.00020756712183356285
5120.0,0.0008975422824732959
5632.0,0.0006660596700385213
6144.0,0.0005244031199254096
6656.0,0.0006272618775255978
7168.0,0.001187384594231844
7680.0,0.002118317410349846
8192.0,-0.0014345027739182115
9216.0,-0.0008965746965259314
10240.0,-0.0010763267055153847
11264.0,-0.00043546303641051054
12288.0,0.0015322910621762276
13312.0,0.0013710354687646031
14336.0,-0.0004791097599081695
end
