version,3.0
numOfCh,1
type,point
parent_name,200-cuts
ch_type,1_1
kcount,1
numberNandB,1
brightnessNandB,1
carpet pos,0
pc,0
Time (ms),CH1 Auto-Correlation
1.0,0.04820326715707779
2.0,0.04661284387111664
3.0,0.04503076523542404
4.0,0.04355770722031593
5.0,0.04214078187942505
6.0,0.040807534009218216
7.0,0.039490241557359695
8.0,0.038267385214567184
9.0,0.03704570233821869
10.0,0.0358901247382164
11.0,0.03477286547422409
12.0,0.03369111940264702
13.0,0.03265492245554924
14.0,0.03166225552558899
15.0,0.030706046149134636
16.0,0.02979309670627117
18.0,0.028157919645309448
20.0,0.02662583440542221
22.0,0.02508857287466526
24.0,0.02372778207063675
26.0,0.02253841795027256
28.0,0.021446887403726578
30.0,0.020408041775226593
32.0,0.019452765583992004
36.0,0.01760583184659481
40.0,0.01590755209326744
44.0,0.014174571260809898
48.0,0.012494239956140518
52.0,0.011097447015345097
56.0,0.009888941422104836
60.0,0.008746501989662647
64.0,0.007457295432686806
72.0,0.005091946106404066
80.0,0.003350898390635848
88.0,0.001958934823051095
96.0,0.000698310905136168
104.0,-0.0002588281931821257
112.0,-0.0005339546478353441
120.0,-0.00046829014900140464
128.0,-0.0006100819446146488
144.0,-0.000750308798160404
160.0,-0.000670218956656754
176.0,-0.0005652785766869783
192.0,-0.0004237546818330884
208.0,-0.000385872321203351
224.0,-0.00011838338105008006
240.0,0.0006144199287518859
256.0,0.0013091500150039792
288.0,0.0019001193577423692
320.0,0.0023437747731804848
352.0,-7.418630048050545e-06
384.0,-0.0020519248209893703
416.0,-0.002878562780097127
448.0,-0.0010860373731702566
480.0,0.00015434469969477504
512.0,0.00044581200927495956
576.0,0.0018063948955386877
640.0,-0.0005573199596256018
704.0,-0.0008557468536309898
768.0,0.0019462860655039549
832.0,0.00253746984526515
896.0,-0.0009828296024352312
960.0,-0.0009263159008696675
1024.0,0.0018338107038289309
1152.0,0.0004494936438277364
1280.0,-0.0029885214753448963
1408.0,-0.002772577805444598
1536.0,0.00013911865244153887
1664.0,0.0022063974756747484
1792.0,0.0002150671643903479
1920.0,0.0012668288545683026
2048.0,-9.816975216381252e-05
2304.0,-0.0005243578343652189
2560.0,-0.00010734303941717371
2816.0,9.354526264360175e-05
3072.0,-0.0012534285197034478
3328.0,0.0013170635793358088
3584.0,-0.0004461427452042699
3840.0,-0.001389737008139491
4096.0,0.0008066732552833855
4608.0,-0.0008846516720950603
5120.0,0.0003118293534498662
5632.0,-0.0011198916472494602
6144.0,-0.00042349923751316965
6656.0,0.0006376204546540976
7168.0,-6.787488382542506e-05
7680.0,-0.0014449870213866234
8192.0,-0.0016428334638476372
9216.0,-4.193168206256814e-05
10240.0,0.0007128819124773145
11264.0,0.00033964947215281427
12288.0,-0.0010517168557271361
13312.0,0.000880432256963104
14336.0,0.00142427918035537
end
