version,3.0
numOfCh,1
type,point
parent_name,200-cuts
ch_type,1_1
kcount,1
numberNandB,1
brightnessNandB,1
carpet pos,0
pc,0
Time (ms),CH1 Auto-Correlation
1.0,0.031646985560655594
2.0,0.030705569311976433
3.0,0.02982131950557232
4.0,0.028990477323532104
5.0,0.028206629678606987
6.0,0.027445046231150627
7.0,0.026692524552345276
8.0,0.02596467174589634
9.0,0.025247640907764435
10.0,0.02454405277967453
11.0,0.02387148328125477
12.0,0.02324419841170311
13.0,0.02261526882648468
14.0,0.021980447694659233
15.0,0.021376868709921837
16.0,0.020803244784474373
18.0,0.01975717395544052
20.0,0.018804047256708145
22.0,0.01791244186460972
24.0,0.017112813889980316
26.0,0.016327770426869392
28.0,0.015588484704494476
30.0,0.01487850770354271
32.0,0.014215975999832153
36.0,0.012953332625329494
40.0,0.011796796694397926
44.0,0.010801946744322777
48.0,0.009989785961806774
52.0,0.00909651629626751
56.0,0.00816579069942236
60.0,0.0073257507756352425
64.0,0.006616461090743542
72.0,0.005776416510343552
80.0,0.005271382164210081
88.0,0.0048851128667593
96.0,0.004167064093053341
104.0,0.003715611295774579
112.0,0.003671909449622035
120.0,0.003742327680811286
128.0,0.0035895993933081627
144.0,0.002678271848708391
160.0,0.002417051699012518
176.0,0.0023385349195450544
192.0,0.00265923491679132
208.0,0.0026519657112658024
224.0,0.001973529113456607
240.0,0.0012361931148916483
256.0,0.0006225996767170727
288.0,-0.0007809024536982179
320.0,-0.00020404727547429502
352.0,0.0014552761567756534
384.0,0.002396134426817298
416.0,0.0021195898298174143
448.0,0.0013548204442486167
480.0,0.00045003657578490674
512.0,-0.0006194818415679038
576.0,-0.0021521197631955147
640.0,-0.003227640176191926
704.0,-0.002695225179195404
768.0,-0.0009853760711848736
832.0,-0.0009522167965769768
896.0,-0.0011728936806321144
960.0,-0.0005792047595605254
1024.0,0.00034287877497263253
1152.0,0.0006999351317062974
1280.0,0.0001362880866508931
1408.0,0.0004287822812329978
1536.0,0.0010546956909820437
1664.0,0.0013781937304884195
1792.0,0.001722367131151259
1920.0,0.002531189238652587
2048.0,0.0011720849433913827
2304.0,-0.00040816987166181207
2560.0,-7.321840530494228e-05
2816.0,-0.00030581888859160244
3072.0,0.0004348325019236654
3328.0,-0.0007705176249146461
3584.0,0.0004572477482724935
3840.0,-0.0007074063178151846
4096.0,0.0011619962751865387
4608.0,-0.0030591993127018213
5120.0,-0.0008399907383136451
5632.0,0.0010340615408495069
6144.0,-0.002194429747760296
6656.0,-0.002423493890091777
7168.0,0.0028322353027760983
7680.0,-0.0014223124599084258
8192.0,-0.00013590707385446876
9216.0,-0.001295324764214456
10240.0,0.0016599310329183936
11264.0,0.00015585188521072268
12288.0,-0.0003371038765180856
13312.0,-0.0006214985041879117
14336.0,0.0006818139809183776
end
