version,3.0
numOfCh,1
type,point
parent_name,200-cuts
ch_type,1_1
kcount,1
numberNandB,1
brightnessNandB,1
carpet pos,0
pc,0
Time (ms),CH1 Auto-Correlation
1.0,0.06333627551794052
2.0,0.06128137186169624
3.0,0.05929941684007645
4.0,0.05744102969765663
5.0,0.05559359863400459
6.0,0.053811199963092804
7.0,0.052168913185596466
8.0,0.05056637525558472
9.0,0.04901560768485069
10.0,0.047549109905958176
11.0,0.04615209251642227
12.0,0.04475223273038864
13.0,0.043459922075271606
14.0,0.04217637702822685
15.0,0.040965814143419266
16.0,0.0398297980427742
18.0,0.03773752972483635
20.0,0.03576221689581871
22.0,0.03389832004904747
24.0,0.032187871634960175
26.0,0.03071199730038643
28.0,0.029375631362199783
30.0,0.02802908420562744
32.0,0.02679695188999176
36.0,0.02442469634115696
40.0,0.022324901074171066
44.0,0.02052103914320469
48.0,0.018887590616941452
52.0,0.017569180577993393
56.0,0.016507580876350403
60.0,0.01558948215097189
64.0,0.014717459678649902
72.0,0.013311086222529411
80.0,0.011603922583162785
88.0,0.009901592507958412
96.0,0.007905344478785992
104.0,0.006177765317261219
112.0,0.005078886169940233
120.0,0.004294941201806068
128.0,0.0033697686158120632
144.0,0.0019987423438578844
160.0,0.001082141068764031
176.0,0.0009563758503645658
192.0,0.0011680960888043046
208.0,0.00019883866480086
224.0,-0.0006679609068669379
240.0,-0.000519119726959616
256.0,0.0013647451996803284
288.0,0.000662044680211693
320.0,0.00024593883426859975
352.0,0.00011225666094105691
384.0,-0.0005094680818729103
416.0,-0.000646773143671453
448.0,0.00037527477252297103
480.0,0.0013770044315606356
512.0,0.002100986195728183
576.0,-0.00045849604066461325
640.0,-0.0014533663634210825
704.0,-0.0003964133211411536
768.0,-0.00018800336692947894
832.0,-0.0006942285690456629
896.0,-0.0023291490506380796
960.0,-0.0013172689359635115
1024.0,0.0012619575718417764
1152.0,0.0019557373598217964
1280.0,0.0010522755328565836
1408.0,0.0028771995566785336
1536.0,-0.005629181396216154
1664.0,-0.00598136056214571
1792.0,7.985463162185624e-05
1920.0,0.0005718637839891016
2048.0,0.001269462751224637
2304.0,0.000722097756806761
2560.0,0.0017616628902032971
2816.0,0.00016540332580916584
3072.0,0.00026693465770222247
3328.0,-5.815797339892015e-05
3584.0,-3.943721821997315e-05
3840.0,0.0008227540529333055
4096.0,-0.002029443858191371
4608.0,-0.0006189320120029151
5120.0,-0.0007872241549193859
5632.0,0.00041868744301609695
6144.0,0.0011649727821350098
6656.0,0.0007027210667729378
7168.0,-0.0021969738882035017
7680.0,0.0008848244906403124
8192.0,-0.00012375653022900224
9216.0,-0.0011347068939357996
10240.0,-0.0019526603864505887
11264.0,-0.00015879566490184516
12288.0,-0.004127983003854752
13312.0,-0.0009900861186906695
14336.0,0.00048365534166805446
end
