version,3.0
numOfCh,1
type,point
parent_name,200-cuts
ch_type,1_1
kcount,1
numberNandB,1
brightnessNandB,1
carpet pos,0
pc,0
Time (ms),CH1 Auto-Correlation
1.0,0.019634181633591652
2.0,0.019034218043088913
3.0,0.01844019815325737
4.0,0.017870303243398666
5.0,0.017330992966890335
6.0,0.016814297065138817
7.0,0.016323253512382507
8.0,0.01583937555551529
9.0,0.015364430844783783
10.0,0.014914671890437603
11.0,0.01449062954634428
12.0,0.014084706082940102
13.0,0.01366392895579338
14.0,0.013247149996459484
15.0,0.012830782681703568
16.0,0.012451080605387688
18.0,0.011767189018428326
20.0,0.011117665097117424
22.0,0.010489202104508877
24.0,0.009915506467223167
26.0,0.009399458765983582
28.0,0.00894356332719326
30.0,0.008507941849529743
32.0,0.008079461753368378
36.0,0.007289569824934006
40.0,0.006581800524145365
44.0,0.005883551202714443
48.0,0.0052206809632480145
52.0,0.004563101567327976
56.0,0.004014426376670599
60.0,0.0034872239921242
64.0,0.002984014106914401
72.0,0.0021415078081190586
80.0,0.0014069468015804887
88.0,0.000827740179374814
96.0,0.0005489054601639509
104.0,0.0005739671760238707
112.0,0.0007465772796422243
120.0,0.0006946854991838336
128.0,0.00043891536188311875
144.0,-0.0004344914632383734
160.0,-0.0010497987968847156
176.0,-0.001304280012845993
192.0,-0.0016114071477204561
208.0,-0.001625959062948823
224.0,-0.0009883191669359803
240.0,-0.0005856071365997195
256.0,-0.0004484939272515476
288.0,-0.0006127293454483151
320.0,-0.001219949801452458
352.0,-0.0014605328906327486
384.0,-0.0001376954314764589
416.0,0.001073271967470646
448.0,0.0010000243782997131
480.0,0.0008942168205976486
512.0,0.00031108982511796057
576.0,0.00016321722068823874
640.0,0.0005562277510762215
704.0,-0.0007805980276316404
768.0,-0.0021813944913446903
832.0,-0.0013988256687298417
896.0,8.282176713692024e-05
960.0,-0.00016586759011261165
1024.0,-0.0007229847833514214
1152.0,-0.0008050291799008846
1280.0,-0.00032116618240252137
1408.0,0.0005150780198164284
1536.0,0.0004518762289080769
1664.0,-0.0004273790109436959
1792.0,-0.000356054661097005
1920.0,-0.00013366685016080737
2048.0,0.0002994735259562731
2304.0,-0.0003024348116014153
2560.0,-0.0002247391385026276
2816.0,-8.028331421883195e-07
3072.0,0.0002567711635492742
3328.0,-0.00017437621136195958
3584.0,0.000619013502728194
3840.0,-3.784516957239248e-05
4096.0,-0.00013426669465843588
4608.0,4.9329159082844853e-05
5120.0,0.0004542811948340386
5632.0,-1.8238730262964964e-05
6144.0,-0.0002179748407797888
6656.0,0.00019619696831796318
7168.0,-9.835485252551734e-05
7680.0,-0.0005874438211321831
8192.0,-0.00013247905008029193
9216.0,0.00029575565713457763
10240.0,0.00013806193601340055
11264.0,-0.0007556493510492146
12288.0,3.517519144224934e-05
13312.0,0.0004082593077328056
14336.0,-0.0003158144245389849
end
