version,3.0
numOfCh,1
type,point
parent_name,200-cuts
ch_type,1_1
kcount,1
numberNandB,1
brightnessNandB,1
carpet pos,0
pc,0
Time (ms),CH1 Auto-Correlation
1.0,0.06150205060839653
2.0,0.05959629639983177
3.0,0.057762548327445984
4.0,0.055997803807258606
5.0,0.05434594303369522
6.0,0.05272265523672104
7.0,0.05118020251393318
8.0,0.04967016354203224
9.0,0.04825032129883766
10.0,0.04687342420220375
11.0,0.04554722085595131
12.0,0.04422258213162422
13.0,0.042892757803201675
14.0,0.04160107299685478
15.0,0.04037892073392868
16.0,0.039194975048303604
18.0,0.0370253250002861
20.0,0.03491160273551941
22.0,0.032921306788921356
24.0,0.031042953953146935
26.0,0.02928422950208187
28.0,0.027624202892184258
30.0,0.025913627818226814
32.0,0.024294095113873482
36.0,0.021375175565481186
40.0,0.01861913874745369
44.0,0.016460873186588287
48.0,0.014791101217269897
52.0,0.013395906426012516
56.0,0.012185809202492237
60.0,0.010945101268589497
64.0,0.009672851301729679
72.0,0.007414951454848051
80.0,0.005814739968627691
88.0,0.00464713154360652
96.0,0.0040380218997597694
104.0,0.004000100307166576
112.0,0.004111184738576412
120.0,0.004157076124101877
128.0,0.004368006717413664
144.0,0.004461212549358606
160.0,0.004346243571490049
176.0,0.003961512818932533
192.0,0.0049389018677175045
208.0,0.005137409549206495
224.0,0.0036988367792218924
240.0,0.0035634138621389866
256.0,0.0036765688564628363
288.0,0.0012748208828270435
320.0,-0.0003245299740228802
352.0,-0.0010862668277695775
384.0,-0.00023004320973996073
416.0,-0.00027078186394646764
448.0,0.0006870495271869004
480.0,-0.0005040449905209243
512.0,-0.00216166814789176
576.0,-0.004233453422784805
640.0,0.0009524660999886692
704.0,0.0018959541339427233
768.0,0.0016560223884880543
832.0,0.0005244315252639353
896.0,0.002954577561467886
960.0,0.0034315797965973616
1024.0,0.0025047268718481064
1152.0,-0.0026377050671726465
1280.0,-0.004585071001201868
1408.0,-0.003090342739596963
1536.0,-0.0016458571190014482
1664.0,-0.0012819989351555705
1792.0,0.0021893195807933807
1920.0,0.002338191494345665
2048.0,-0.001175163546577096
2304.0,-0.0021634113509207964
2560.0,0.0005738330655731261
2816.0,0.0010397274745628238
3072.0,0.0012761279940605164
3328.0,0.0022793610114604235
3584.0,0.001378209562972188
3840.0,0.001611432759091258
4096.0,-0.0005650937673635781
4608.0,-0.0019384553888812661
5120.0,-0.004026251845061779
5632.0,0.0026179358828812838
6144.0,0.000553182209841907
6656.0,0.002017978113144636
7168.0,-0.001801973208785057
7680.0,-0.002124474849551916
8192.0,-0.004425177816301584
9216.0,0.00024266535183414817
10240.0,-0.00046335795195773244
11264.0,-0.0033897296525537968
12288.0,-5.4018069931771606e-05
13312.0,-0.0006523436168208718
14336.0,-0.0008775589521974325
end
