version,3.0
numOfCh,1
type,point
parent_name,200-cuts
ch_type,1_1
kcount,1
numberNandB,1
brightnessNandB,1
carpet pos,0
pc,0
Time (ms),CH1 Auto-Correlation
1.0,0.03527666628360748
2.0,0.03432958945631981
3.0,0.03342778980731964
4.0,0.03253411501646042
5.0,0.031672656536102295
6.0,0.030854176729917526
7.0,0.03005916252732277
8.0,0.02929924614727497
9.0,0.028581324964761734
10.0,0.02787923440337181
11.0,0.027205387130379677
12.0,0.026561036705970764
13.0,0.02594972960650921
14.0,0.025384727865457535
15.0,0.024826785549521446
16.0,0.024282341822981834
18.0,0.023242300376296043
20.0,0.022322066128253937
22.0,0.021495049819350243
24.0,0.020670155063271523
26.0,0.019839853048324585
28.0,0.019046293571591377
30.0,0.018334444612264633
32.0,0.01769394241273403
36.0,0.016516000032424927
40.0,0.015478731133043766
44.0,0.014580034650862217
48.0,0.013762819580733776
52.0,0.013130426406860352
56.0,0.012507868930697441
60.0,0.011908684857189655
64.0,0.01126563549041748
72.0,0.010150770656764507
80.0,0.009228806011378765
88.0,0.008148969151079655
96.0,0.007126876153051853
104.0,0.006484208628535271
112.0,0.0055622924119234085
120.0,0.004876522347331047
128.0,0.004385130479931831
144.0,0.0035838240291923285
160.0,0.002757892245426774
176.0,0.0022898016031831503
192.0,0.002369058085605502
208.0,0.0022769945207983255
224.0,0.0015528608346357942
240.0,0.000954009941779077
256.0,0.0007353413966484368
288.0,0.0020383934024721384
320.0,0.0010809105588123202
352.0,-0.0003454637189861387
384.0,-0.00047606052248738706
416.0,-0.0011004781117662787
448.0,-0.0006851102225482464
480.0,-2.825573210429866e-05
512.0,2.1127600120962597e-05
576.0,0.00019443816563580185
640.0,-0.0006018595304340124
704.0,-0.001706899725832045
768.0,-0.0033522106241434813
832.0,-0.0035227856133133173
896.0,-0.001796803204342723
960.0,0.0012688004644587636
1024.0,0.0014167017070576549
1152.0,-0.0019949516281485558
1280.0,-0.0023179715499281883
1408.0,0.000142387390951626
1536.0,0.0012616163585335016
1664.0,-0.000918081437703222
1792.0,-0.0024537343997508287
1920.0,-0.0015539756277576089
2048.0,0.0005897419177927077
2304.0,-0.0011536631500348449
2560.0,-0.0010029318509623408
2816.0,-0.0009274923359043896
3072.0,0.0008568401681259274
3328.0,-0.00014640351582784206
3584.0,0.0013680575648322701
3840.0,8.372936281375587e-05
4096.0,0.00045305376988835633
4608.0,-0.00022207718575373292
5120.0,0.0015631135320290923
5632.0,0.0011264118365943432
6144.0,-0.00043213414028286934
6656.0,-0.000717894290573895
7168.0,-0.0008937933598645031
7680.0,-0.0021034772507846355
8192.0,-0.00142227194737643
9216.0,0.0010736511321738362
10240.0,-0.00013923528604209423
11264.0,0.0020319512113928795
12288.0,-0.0021350220777094364
13312.0,-0.00239361310377717
14336.0,0.004500478506088257
end
