version,3.0
numOfCh,1
type,point
parent_name,200-cuts
ch_type,1_1
kcount,1
numberNandB,1
brightnessNandB,1
carpet pos,0
pc,0
Time (ms),CH1 Auto-Correlation
1.0,0.060406532138586044
2.0,0.05848760902881622
3.0,0.05664323642849922
4.0,0.05486239492893219
5.0,0.053156718611717224
6.0,0.051490869373083115
7.0,0.04982807859778404
8.0,0.04823461174964905
9.0,0.04669807851314545
10.0,0.0451749823987484
11.0,0.04372264817357063
12.0,0.04229948669672012
13.0,0.040885914117097855
14.0,0.039535243064165115
15.0,0.03823447972536087
16.0,0.037027254700660706
18.0,0.03473271057009697
20.0,0.032596856355667114
22.0,0.03061133809387684
24.0,0.028817271813750267
26.0,0.027142256498336792
28.0,0.025661412626504898
30.0,0.024402398616075516
32.0,0.023210899904370308
36.0,0.020991424098610878
40.0,0.019000612199306488
44.0,0.017112018540501595
48.0,0.015369998291134834
52.0,0.013898179866373539
56.0,0.012634980492293835
60.0,0.01149036455899477
64.0,0.010353821329772472
72.0,0.008346611633896828
80.0,0.006437439471483231
88.0,0.004457104951143265
96.0,0.0031891921535134315
104.0,0.002970111556351185
112.0,0.002490711398422718
120.0,0.0020590871572494507
128.0,0.001776125398464501
144.0,0.0013826724607497454
160.0,0.001177622121758759
176.0,0.0017032769974321127
192.0,0.0012464441824704409
208.0,0.0001546035782666877
224.0,-0.0011044148122891784
240.0,-0.001971442950889468
256.0,-0.0029417849145829678
288.0,-0.00216471659950912
320.0,-0.002501883078366518
352.0,-0.002360427984967828
384.0,-0.0014031720347702503
416.0,-0.001192426891066134
448.0,0.0002667353255674243
480.0,-0.00023864379909355193
512.0,-0.002744553377851844
576.0,-0.005401637405157089
640.0,-0.00515249278396368
704.0,-0.003975167870521545
768.0,-0.0022749281488358974
832.0,-0.001442278386093676
896.0,0.00025366610498167574
960.0,0.002233711536973715
1024.0,-0.001802972168661654
1152.0,0.00026206689653918147
1280.0,-6.463094905484468e-05
1408.0,-0.001280473661608994
1536.0,0.0007927657570689917
1664.0,0.0019143091049045324
1792.0,-0.004044824279844761
1920.0,0.000680652679875493
2048.0,0.0011521255364641547
2304.0,0.0017580189742147923
2560.0,-0.0015556765720248222
2816.0,-0.0013792933896183968
3072.0,0.0005847235443070531
3328.0,0.0016999718500301242
3584.0,-0.0008535837987437844
3840.0,0.0014373285230249166
4096.0,-0.0008605306502431631
4608.0,0.0005769266281276941
5120.0,-0.0009737475775182247
5632.0,0.0017087989253923297
6144.0,-0.0019930063281208277
6656.0,0.0006935729179531336
7168.0,-0.0006565343937836587
7680.0,0.000514138606376946
8192.0,0.0003676526539493352
9216.0,-0.001471617491915822
10240.0,0.0017509490717202425
11264.0,-0.0016976696206256747
12288.0,0.0007938995840959251
13312.0,-0.0006697728531435132
14336.0,-0.0008253603591583669
end
