version,3.0
numOfCh,1
type,point
parent_name,200-cuts
ch_type,1_1
kcount,1
numberNandB,1
brightnessNandB,1
carpet pos,0
pc,0
Time (ms),CH1 Auto-Correlation
1.0,0.01942369155585766
2.0,0.01886019855737686
3.0,0.018316108733415604
4.0,0.01780208945274353
5.0,0.017317967489361763
6.0,0.016857614740729332
7.0,0.016406992450356483
8.0,0.015971457585692406
9.0,0.015554917976260185
10.0,0.01514485850930214
11.0,0.014750269241631031
12.0,0.014376390725374222
13.0,0.014007218182086945
14.0,0.013642312958836555
15.0,0.013281634077429771
16.0,0.012928272597491741
18.0,0.012273275293409824
20.0,0.011646328493952751
22.0,0.011026915162801743
24.0,0.01042209006845951
26.0,0.009821356274187565
28.0,0.009241736494004726
30.0,0.00870322622358799
32.0,0.00822008028626442
36.0,0.007421133108437061
40.0,0.006737222895026207
44.0,0.0060500651597976685
48.0,0.00538984639570117
52.0,0.004777297377586365
56.0,0.00426515843719244
60.0,0.003861417295411229
64.0,0.003524880390614271
72.0,0.0029997231904417276
80.0,0.0024892850778996944
88.0,0.0019882263150066137
96.0,0.0018122444162145257
104.0,0.0018047395860776305
112.0,0.0017533046193420887
120.0,0.001700958120636642
128.0,0.001549872336909175
144.0,0.001081231632269919
160.0,0.000641023856587708
176.0,0.00012794444046448916
192.0,-0.00039115926483646035
208.0,-0.0006721863173879683
224.0,-0.0005634665722027421
240.0,-0.0002268197713419795
256.0,-6.499373557744548e-05
288.0,0.0005146503681316972
320.0,0.0005490275216288865
352.0,0.0004367729998193681
384.0,-0.00018663045193534344
416.0,-0.00017116183880716562
448.0,-0.0002279171021655202
480.0,-0.0004870121774729341
512.0,-0.00088501040590927
576.0,-0.0025477453600615263
640.0,-0.0021488992497324944
704.0,-0.00032491833553649485
768.0,0.00020467801368795335
832.0,-0.0002535500389058143
896.0,-0.0008580543799325824
960.0,-0.0010517515474930406
1024.0,-0.0007619753596372902
1152.0,-0.00031340232817456126
1280.0,0.0011190645163878798
1408.0,0.0009405799792148173
1536.0,0.0012163801584392786
1664.0,-0.0003601342032197863
1792.0,-0.0004482563235796988
1920.0,-0.00031313838553614914
2048.0,-0.0005595465190708637
2304.0,0.0008917013183236122
2560.0,0.0007410264224745333
2816.0,0.0003498723963275552
3072.0,-0.000472697225632146
3328.0,-0.00031274015782400966
3584.0,6.078987644286826e-05
3840.0,7.188832387328148e-05
4096.0,-0.0002187705395044759
4608.0,-0.0005802601808682084
5120.0,0.00041846183012239635
5632.0,-0.0007836052100174129
6144.0,-1.5655008610337973e-05
6656.0,-0.001053318497724831
7168.0,0.0013824824709445238
7680.0,-0.0007805503555573523
8192.0,-0.0009294670890085399
9216.0,-0.00023183181474450976
10240.0,0.00023922302352730185
11264.0,0.00029852575971744955
12288.0,0.00014108694449532777
13312.0,-0.0003179362684022635
14336.0,-0.00025060170446522534
end
