version,3.0
numOfCh,1
type,point
parent_name,200-cuts
ch_type,1_1
kcount,1
numberNandB,1
brightnessNandB,1
carpet pos,0
pc,0
Time (ms),CH1 Auto-Correlation
1.0,0.03265316039323807
2.0,0.03167300671339035
3.0,0.030716482549905777
4.0,0.029781866818666458
5.0,0.02891259267926216
6.0,0.028072070330381393
7.0,0.027269821614027023
8.0,0.02649819664657116
9.0,0.025732241570949554
10.0,0.024983296170830727
11.0,0.024267001077532768
12.0,0.023577289655804634
13.0,0.02290204167366028
14.0,0.022221732884645462
15.0,0.021553819999098778
16.0,0.020916828885674477
18.0,0.019704412668943405
20.0,0.01858351193368435
22.0,0.01749962754547596
24.0,0.01648741029202938
26.0,0.01552862673997879
28.0,0.014632795937359333
30.0,0.013848800212144852
32.0,0.013125644065439701
36.0,0.011756259948015213
40.0,0.010519050993025303
44.0,0.009522401727735996
48.0,0.008635032922029495
52.0,0.00782755110412836
56.0,0.007114522624760866
60.0,0.006459787022322416
64.0,0.005972810089588165
72.0,0.005064207129180431
80.0,0.004273483995348215
88.0,0.0036983576137572527
96.0,0.003209757851436734
104.0,0.002656591823324561
112.0,0.002087774220854044
120.0,0.0013243787689134479
128.0,0.0005070202169008553
144.0,-0.00031015981221571565
160.0,-4.8700752813601866e-05
176.0,0.00044760381570085883
192.0,0.0002885613648686558
208.0,-0.00018740483210422099
224.0,0.00012795752263627946
240.0,0.0004983551916666329
256.0,0.0006914334371685982
288.0,0.000852377328556031
320.0,0.0003705961280502379
352.0,-0.00048017172957770526
384.0,0.0007826165528967977
416.0,0.0008514341316185892
448.0,-0.000610783405136317
480.0,-0.0017825517570599914
512.0,-0.001847452949732542
576.0,-0.0013651291374117136
640.0,-0.0009211032884195447
704.0,0.0024990069214254618
768.0,0.001872108201496303
832.0,-0.00016241343109868467
896.0,-0.0005361015209928155
960.0,-0.0004912192816846073
1024.0,0.00015640328638255596
1152.0,0.0030417554080486298
1280.0,0.0016048887046054006
1408.0,0.0008732001297175884
1536.0,-0.0018949188524857163
1664.0,-0.0020715969149023294
1792.0,-0.0013869369868189096
1920.0,-0.0021037606056779623
2048.0,3.306063081254251e-05
2304.0,-0.0003092145489063114
2560.0,-0.00030997354770079255
2816.0,-0.0014038484077900648
3072.0,-0.0008440259261988103
3328.0,0.0003249888541176915
3584.0,-9.520065214019269e-05
3840.0,0.001298696966841817
4096.0,-0.0004153003392275423
4608.0,-0.0003615643363445997
5120.0,0.00029554087086580694
5632.0,-0.001222638413310051
6144.0,-0.0006802574498578906
6656.0,-0.0011025757994502783
7168.0,-8.406097913393751e-05
7680.0,-0.0011289881076663733
8192.0,-0.00019614491611719131
9216.0,0.0008705562795512378
10240.0,0.0008644530898891389
11264.0,7.221886335173622e-05
12288.0,0.0006354548968374729
13312.0,-0.001499459147453308
14336.0,-0.0015929206274449825
end
