version,3.0
numOfCh,1
type,point
parent_name,200-cuts
ch_type,1_1
kcount,1
numberNandB,1
brightnessNandB,1
carpet pos,0
pc,0
Time (ms),CH1 Auto-Correlation
1.0,0.03394949436187744
2.0,0.033021230250597
3.0,0.03211241960525513
4.0,0.03126722201704979
5.0,0.03044196404516697
6.0,0.029624711722135544
7.0,0.02883300930261612
8.0,0.028046665713191032
9.0,0.027276916429400444
10.0,0.026548078283667564
11.0,0.025840358808636665
12.0,0.025177884846925735
13.0,0.0245098564773798
14.0,0.023867765441536903
15.0,0.023220419883728027
16.0,0.02259746938943863
18.0,0.02138516679406166
20.0,0.02025102637708187
22.0,0.019181491807103157
24.0,0.018185822293162346
26.0,0.017289362847805023
28.0,0.01645885966718197
30.0,0.01572955772280693
32.0,0.015038992278277874
36.0,0.013795539736747742
40.0,0.012712561525404453
44.0,0.011772246100008488
48.0,0.01092163473367691
52.0,0.010183458216488361
56.0,0.009612688794732094
60.0,0.009094922803342342
64.0,0.008736742660403252
72.0,0.008031654171645641
80.0,0.007272464223206043
88.0,0.00620984798297286
96.0,0.004816350527107716
104.0,0.003730607917532325
112.0,0.0032810161355882883
120.0,0.003016839735209942
128.0,0.00259327027015388
144.0,0.0017608716152608395
160.0,0.0005217678844928741
176.0,-0.0007096384069882333
192.0,-0.0009577628807164729
208.0,-0.000526473275385797
224.0,-0.0010612752521410584
240.0,-0.0014785074163228273
256.0,-0.002033982891589403
288.0,-0.002334990305826068
320.0,-0.0016268157633021474
352.0,-0.0010706707835197449
384.0,-4.906104732071981e-05
416.0,0.00035593032953329384
448.0,0.0006965542561374605
480.0,0.0002482958370819688
512.0,0.0009684566757641733
576.0,-0.00019306513422634453
640.0,-0.00014208427455741912
704.0,-0.00013888331886846572
768.0,-6.167130777612329e-05
832.0,0.0001613351923879236
896.0,-0.000317745259962976
960.0,-0.0015554075362160802
1024.0,0.0003366207529325038
1152.0,0.00029667586204595864
1280.0,-0.0013380429008975625
1408.0,-0.0011637837160378695
1536.0,-0.0026137130334973335
1664.0,0.0009743671980686486
1792.0,0.0011694879503920674
1920.0,0.0010897049214690924
2048.0,0.0004133495385758579
2304.0,-0.00031643599504604936
2560.0,0.0015750580932945013
2816.0,-0.0008114675292745233
3072.0,-0.0033921264111995697
3328.0,-0.00194874731823802
3584.0,0.0007332233362831175
3840.0,0.0004915798781439662
4096.0,0.000809940102044493
4608.0,0.000499409157782793
5120.0,-0.000578337290789932
5632.0,0.00016721835709176958
6144.0,0.00014065658615436405
6656.0,-0.00016120779037009925
7168.0,-0.001056643552146852
7680.0,0.00017504299466963857
8192.0,0.0008950960473157465
9216.0,-0.0006804622244089842
10240.0,-0.0019058596808463335
11264.0,-1.9801100279437378e-05
12288.0,0.0005825319676660001
13312.0,0.001057624351233244
14336.0,0.0005984681192785501
end
