version,3.0
numOfCh,1
type,point
parent_name,200-cuts
ch_type,1_1
kcount,1
numberNandB,1
brightnessNandB,1
carpet pos,0
pc,0
Time (ms),CH1 Auto-Correlation
1.0,0.03354616090655327
2.0,0.032560937106609344
3.0,0.03162168338894844
4.0,0.030689511448144913
5.0,0.029804253950715065
6.0,0.028910163789987564
7.0,0.028075458481907845
8.0,0.027271879836916924
9.0,0.026540428400039673
10.0,0.025815358385443687
11.0,0.02510315366089344
12.0,0.02442246675491333
13.0,0.023729922249913216
14.0,0.023056190460920334
15.0,0.022398853674530983
16.0,0.021768629550933838
18.0,0.020620165392756462
20.0,0.019576454535126686
22.0,0.018603160977363586
24.0,0.017709285020828247
26.0,0.01689543016254902
28.0,0.016137052327394485
30.0,0.015422658063471317
32.0,0.014777062460780144
36.0,0.013674586080014706
40.0,0.012682181783020496
44.0,0.011688906699419022
48.0,0.010836662724614143
52.0,0.00998279545456171
56.0,0.009175051003694534
60.0,0.008491060696542263
64.0,0.007851245813071728
72.0,0.006655746605247259
80.0,0.0057401591911911964
88.0,0.005074265878647566
96.0,0.004610890988260508
104.0,0.004124660510569811
112.0,0.003427282441407442
120.0,0.002688621636480093
128.0,0.0019219222012907267
144.0,0.0007432486745528877
160.0,2.6384475859231316e-05
176.0,-0.0003626039542723447
192.0,-0.00011227475624764338
208.0,0.0003365645825397223
224.0,-9.580149344401434e-05
240.0,-0.0006853410741314292
256.0,-0.0005558669217862189
288.0,0.0007431370904669166
320.0,0.0017007875721901655
352.0,0.0010976048652082682
384.0,0.0010927418479695916
416.0,0.001680081826634705
448.0,0.001821601646952331
480.0,0.001970210112631321
512.0,0.0018800251418724656
576.0,0.00036253692815080285
640.0,-0.00022158226056490093
704.0,0.0013915059389546514
768.0,0.003350862069055438
832.0,0.0035407785326242447
896.0,0.0007306261686608195
960.0,0.0003150787088088691
1024.0,0.0004000018525402993
1152.0,-0.0002796979097183794
1280.0,0.0010743160964921117
1408.0,0.002678320277482271
1536.0,0.0017948080785572529
1664.0,0.003138578264042735
1792.0,-0.00047423041542060673
1920.0,-0.0017910304013639688
2048.0,0.0006995939766056836
2304.0,0.0011275975266471505
2560.0,0.0014390923315659165
2816.0,0.00044635403901338577
3072.0,-8.338973566424102e-05
3328.0,0.0010888725519180298
3584.0,0.0007082457887008786
3840.0,6.066112473490648e-05
4096.0,-8.021896064747125e-05
4608.0,0.000607636000495404
5120.0,0.0005504068685695529
5632.0,-0.0009546821238473058
6144.0,-0.0012506989296525717
6656.0,-0.000290839234367013
7168.0,4.8911544581642374e-05
7680.0,-0.000452498032245785
8192.0,-0.0010831058025360107
9216.0,-0.0009200387867167592
10240.0,-0.00245077651925385
11264.0,-0.003030441701412201
12288.0,-0.0005553280934691429
13312.0,-0.0016386797651648521
14336.0,-0.002082628197968006
end
