version,3.0
numOfCh,1
type,point
parent_name,200-cuts
ch_type,1_1
kcount,1
numberNandB,1
brightnessNandB,1
carpet pos,0
pc,0
Time (ms),CH1 Auto-Correlation
1.0,0.082217276096344
2.0,0.08006221055984497
3.0,0.07796333730220795
4.0,0.07592371851205826
5.0,0.07396428287029266
6.0,0.0720633938908577
7.0,0.07022829353809357
8.0,0.06848830729722977
9.0,0.06679210066795349
10.0,0.06522267311811447
11.0,0.06369984894990921
12.0,0.062296755611896515
13.0,0.060885507613420486
14.0,0.059531304985284805
15.0,0.05825074017047882
16.0,0.056981686502695084
18.0,0.05457593500614166
20.0,0.05238798260688782
22.0,0.05023038387298584
24.0,0.04813479632139206
26.0,0.04605921730399132
28.0,0.043991073966026306
30.0,0.0420992411673069
32.0,0.04027322679758072
36.0,0.037031881511211395
40.0,0.03401458263397217
44.0,0.031392719596624374
48.0,0.029032962396740913
52.0,0.027054861187934875
56.0,0.025243688374757767
60.0,0.023422740399837494
64.0,0.02142767421901226
72.0,0.017473312094807625
80.0,0.013730478473007679
88.0,0.00984580535441637
96.0,0.006580931134521961
104.0,0.003558729076758027
112.0,0.0011593709932640195
120.0,-0.00022009032545611262
128.0,-0.0013558652717620134
144.0,-0.0021330872550606728
160.0,-0.002074887277558446
176.0,-0.0021492100786417723
192.0,-0.0029050144366919994
208.0,-0.0031032790429890156
224.0,-0.0040588583797216415
240.0,-0.004974099341779947
256.0,-0.004434715025126934
288.0,-0.003807996865361929
320.0,-0.0008015641942620277
352.0,0.0005181974265724421
384.0,0.002696151379495859
416.0,0.0014252832625061274
448.0,-0.0038094387855380774
480.0,-0.006482803728431463
512.0,-0.00717373238876462
576.0,-0.006879415363073349
640.0,-0.007195594254881144
704.0,-0.002282052533701062
768.0,0.004200130235403776
832.0,0.005544614512473345
896.0,0.005427163559943438
960.0,-0.0006055887206457555
1024.0,-0.005746545735746622
1152.0,-0.002536271931603551
1280.0,0.0022740093991160393
1408.0,0.0022088412661105394
1536.0,0.00047242120490409434
1664.0,-0.0006606903043575585
1792.0,-0.003576840041205287
1920.0,-0.0019486640812829137
2048.0,-0.005548778455704451
2304.0,-0.0007311910158023238
2560.0,-0.0009987206431105733
2816.0,-0.005111983045935631
3072.0,-0.0011740745976567268
3328.0,-0.0003458342107478529
3584.0,0.0009310363093391061
3840.0,0.003900732146576047
4096.0,-0.004399402998387814
4608.0,0.0018115395214408636
5120.0,0.0030634962022304535
5632.0,-0.0018958147848024964
6144.0,0.0030925103928893805
6656.0,-9.720409434521571e-05
7168.0,-0.00200979714281857
7680.0,-0.004439129494130611
8192.0,0.0010279737180098891
9216.0,-0.0007701240829192102
10240.0,0.0037184234242886305
11264.0,0.00011674956476781517
12288.0,-0.002356594428420067
13312.0,-0.0020577243994921446
14336.0,0.00226051383651793
end
