version,3.0
numOfCh,1
type,point
parent_name,200-cuts
ch_type,1_1
kcount,1
numberNandB,1
brightnessNandB,1
carpet pos,0
pc,0
Time (ms),CH1 Auto-Correlation
1.0,0.06766756623983383
2.0,0.06558272242546082
3.0,0.06355539709329605
4.0,0.0615963339805603
5.0,0.05973044037818909
6.0,0.05792545527219772
7.0,0.05619353801012039
8.0,0.05454091727733612
9.0,0.05294717103242874
10.0,0.05148095637559891
11.0,0.050080638378858566
12.0,0.04871673136949539
13.0,0.04738646000623703
14.0,0.0460989810526371
15.0,0.04488769918680191
16.0,0.04368919879198074
18.0,0.04153016209602356
20.0,0.0394587405025959
22.0,0.03747477009892464
24.0,0.03562237322330475
26.0,0.03389778360724449
28.0,0.03220180794596672
30.0,0.03056619130074978
32.0,0.029018985107541084
36.0,0.026379423215985298
40.0,0.024127457290887833
44.0,0.022091593593358994
48.0,0.020185064524412155
52.0,0.018650494515895844
56.0,0.017449388280510902
60.0,0.016179528087377548
64.0,0.014891933649778366
72.0,0.012731440365314484
80.0,0.010290929116308689
88.0,0.008699286729097366
96.0,0.007825574837625027
104.0,0.006678441073745489
112.0,0.005650497507303953
120.0,0.005344495177268982
128.0,0.0051492974162101746
144.0,0.005473257973790169
160.0,0.0049868980422616005
176.0,0.0035769904498010874
192.0,0.003480515442788601
208.0,0.003331132000312209
224.0,0.0024946907069534063
240.0,0.001704429741948843
256.0,0.0004323646717239171
288.0,4.646250545192743e-06
320.0,0.0013010752154514194
352.0,-0.0004438327450770885
384.0,-0.0020978462416678667
416.0,-0.0034484651405364275
448.0,-0.001980127766728401
480.0,-0.0009441814036108553
512.0,3.853059024550021e-05
576.0,0.00011583605373743922
640.0,0.0002987879852298647
704.0,-0.0019156706985086203
768.0,-0.003996599931269884
832.0,-0.004634978249669075
896.0,-0.0017802359070628881
960.0,8.660698222229257e-05
1024.0,-0.0009855515090748668
1152.0,0.001033705659210682
1280.0,-0.0014312786515802145
1408.0,-0.0036789155565202236
1536.0,-0.0006451689405366778
1664.0,0.0012996967416256666
1792.0,0.0021379515528678894
1920.0,-0.00040620085201226175
2048.0,-0.005066662095487118
2304.0,-0.0018580028554424644
2560.0,-0.0009557423181831837
2816.0,-0.00033910517231561244
3072.0,-0.0002349100395804271
3328.0,0.004487521946430206
3584.0,0.0009050709195435047
3840.0,0.0020519562531262636
4096.0,-0.002964160405099392
4608.0,-0.00016438057355117053
5120.0,0.0030500886496156454
5632.0,-0.0011988768819719553
6144.0,-0.0031875409185886383
6656.0,0.0006260609952732921
7168.0,-0.004082443192601204
7680.0,0.0005365184624679387
8192.0,0.0024217874743044376
9216.0,0.003729848423972726
10240.0,-0.0002899703395087272
11264.0,-0.001011874177493155
12288.0,-0.0026466890703886747
13312.0,0.0013256882084533572
14336.0,0.0028068481478840113
end
