version,3.0
numOfCh,1
type,point
parent_name,200-cuts
ch_type,1_1
kcount,1
numberNandB,1
brightnessNandB,1
carpet pos,0
pc,0
Time (ms),CH1 Auto-Correlation
1.0,0.023333121091127396
2.0,0.022694764658808708
3.0,0.02208186686038971
4.0,0.021492037922143936
5.0,0.020905785262584686
6.0,0.02034330740571022
7.0,0.019793890416622162
8.0,0.019255200400948524
9.0,0.018733926117420197
10.0,0.018243882805109024
11.0,0.01778082177042961
12.0,0.01734592579305172
13.0,0.016922317445278168
14.0,0.01651296392083168
15.0,0.016104308888316154
16.0,0.015718618407845497
18.0,0.015025625005364418
20.0,0.014368187636137009
22.0,0.013741518370807171
24.0,0.013174246065318584
26.0,0.012660388834774494
28.0,0.012177590280771255
30.0,0.011728580109775066
32.0,0.011299421079456806
36.0,0.010496417991816998
40.0,0.009803036227822304
44.0,0.00924048200249672
48.0,0.008748148567974567
52.0,0.008247134275734425
56.0,0.007756397593766451
60.0,0.007372183725237846
64.0,0.007119964342564344
72.0,0.0065031470730900764
80.0,0.005899529904127121
88.0,0.005288752261549234
96.0,0.004850882105529308
104.0,0.00417699059471488
112.0,0.0035363207571208477
120.0,0.0031438658479601145
128.0,0.002697118790820241
144.0,0.0018472450319677591
160.0,0.001484875800088048
176.0,0.0013764867326244712
192.0,0.0014315128792077303
208.0,0.0014600122813135386
224.0,0.0015156487934291363
240.0,0.0019007583614438772
256.0,0.001858572126366198
288.0,0.0005010898457840085
320.0,-0.0003556894662324339
352.0,-0.0011963421711698174
384.0,-0.0023056804202497005
416.0,-0.0028397059068083763
448.0,-0.0032251663506031036
480.0,-0.002559093525633216
512.0,-0.002325502224266529
576.0,-0.0006709613371640444
640.0,0.0006690345471724868
704.0,0.0002824119583237916
768.0,-0.00024086753546725959
832.0,-0.00013369527005124837
896.0,0.0007286613690666854
960.0,0.0001363565243082121
1024.0,-0.0006892166566103697
1152.0,-3.472524258540943e-05
1280.0,0.00038767169462516904
1408.0,0.0003486529749352485
1536.0,0.0014125275192782283
1664.0,-0.0001006077291094698
1792.0,-0.0011288198875263333
1920.0,-0.001364857074804604
2048.0,-0.0013542236993089318
2304.0,-0.0006275585619732738
2560.0,-0.0017135834787040949
2816.0,0.000111529188870918
3072.0,0.0014530963962897658
3328.0,-0.0008950707851909101
3584.0,-0.0013464028015732765
3840.0,-0.0011101390700787306
4096.0,-0.00023880197841208428
4608.0,0.0010350093943998218
5120.0,0.0006542738410644233
5632.0,-0.0021233195438981056
6144.0,0.0014588613994419575
6656.0,-0.0005819635698571801
7168.0,5.4368800192605704e-05
7680.0,-0.000263787544099614
8192.0,0.0015216277679428458
9216.0,-0.0001260368007933721
10240.0,-0.0009595943265594542
11264.0,-0.0004891265416517854
12288.0,0.00041138441883958876
13312.0,0.0016469224356114864
14336.0,0.0011078555835410953
end
