version,3.0
numOfCh,1
type,point
parent_name,200-cuts
ch_type,1_1
kcount,1
numberNandB,1
brightnessNandB,1
carpet pos,0
pc,0
Time (ms),CH1 Auto-Correlation
1.0,0.02154015190899372
2.0,0.02088431641459465
3.0,0.020257441326975822
4.0,0.019636239856481552
5.0,0.01901518926024437
6.0,0.018420996144413948
7.0,0.017835672944784164
8.0,0.017283374443650246
9.0,0.01676231622695923
10.0,0.016264282166957855
11.0,0.01579727977514267
12.0,0.015362518839538097
13.0,0.014937985688447952
14.0,0.014524642378091812
15.0,0.01413786131888628
16.0,0.013780665583908558
18.0,0.013108172453939915
20.0,0.012497276067733765
22.0,0.011947396211326122
24.0,0.01144400704652071
26.0,0.010974042117595673
28.0,0.010524866171181202
30.0,0.010064885020256042
32.0,0.009612849913537502
36.0,0.008842099457979202
40.0,0.008196022361516953
44.0,0.007599213160574436
48.0,0.006975097581744194
52.0,0.006328778341412544
56.0,0.005735396407544613
60.0,0.005206777714192867
64.0,0.004718542564660311
72.0,0.003928243648260832
80.0,0.003392701270058751
88.0,0.003056518267840147
96.0,0.002744486089795828
104.0,0.00241734622977674
112.0,0.0022677083034068346
120.0,0.002225070260465145
128.0,0.002366128144785762
144.0,0.0021779651287943125
160.0,0.001609724247828126
176.0,0.0012434825766831636
192.0,0.0006225235993042588
208.0,0.0002863900735974312
224.0,0.0003428376803640276
240.0,0.00033596670255064964
256.0,0.0006275928462855518
288.0,0.0006564026116393507
320.0,9.849592606769875e-05
352.0,-0.00039484372246079147
384.0,0.0005188029026612639
416.0,0.0012612700229510665
448.0,0.0013814116828143597
480.0,0.0005410552839748561
512.0,-7.970970909809694e-05
576.0,-2.4914103050832637e-05
640.0,-0.0002244530332973227
704.0,-0.0005309781990945339
768.0,-0.0009693414904177189
832.0,0.00018620635091792792
896.0,0.0009629922569729388
960.0,0.0012813222128897905
1024.0,0.0014199005672708154
1152.0,-0.0006880276487208903
1280.0,-0.0007236639503389597
1408.0,-0.00022441084729507565
1536.0,0.0010312586091458797
1664.0,0.0018821278354153037
1792.0,0.0012304444098845124
1920.0,0.00198528659529984
2048.0,0.0008367648115381598
2304.0,-0.0009098369046114385
2560.0,1.3564917026087642e-05
2816.0,0.00011498214735183865
3072.0,-0.00043892156099900603
3328.0,0.0012448749039322138
3584.0,0.00017134691006504
3840.0,0.0006722536636516452
4096.0,2.513372601242736e-05
4608.0,-0.0009727965225465596
5120.0,0.00016119671636261046
5632.0,0.00010601231042528525
6144.0,-0.0007556285709142685
6656.0,8.059643732849509e-05
7168.0,-0.0013947495026513934
7680.0,-0.0003086247597821057
8192.0,-0.000507361488416791
9216.0,-5.0320395530434325e-05
10240.0,-0.0010444473009556532
11264.0,0.00024846650194376707
12288.0,-0.0010572480969130993
13312.0,-0.0007460835622623563
14336.0,0.0017099742544814944
end
