version,3.0
numOfCh,1
type,point
parent_name,200-cuts
ch_type,1_1
kcount,1
numberNandB,1
brightnessNandB,1
carpet pos,0
pc,0
Time (ms),CH1 Auto-Correlation
1.0,0.06339624524116516
2.0,0.06165127083659172
3.0,0.06000153347849846
4.0,0.05839205160737038
5.0,0.05685727298259735
6.0,0.05541612207889557
7.0,0.054022107273340225
8.0,0.05269748345017433
9.0,0.05143909156322479
10.0,0.05023343488574028
11.0,0.049096036702394485
12.0,0.0479869544506073
13.0,0.04693214222788811
14.0,0.04593421891331673
15.0,0.04502815753221512
16.0,0.044041916728019714
18.0,0.042155418545007706
20.0,0.04034813120961189
22.0,0.03863352909684181
24.0,0.037092678248882294
26.0,0.03564177826046944
28.0,0.034285206347703934
30.0,0.032959043979644775
32.0,0.031588513404130936
36.0,0.028883732855319977
40.0,0.026668671518564224
44.0,0.024850470945239067
48.0,0.02318962663412094
52.0,0.02145269326865673
56.0,0.01982290670275688
60.0,0.01837226003408432
64.0,0.016942815855145454
72.0,0.014554179273545742
80.0,0.012591090053319931
88.0,0.011003601364791393
96.0,0.0099065862596035
104.0,0.009370661340653896
112.0,0.008918744511902332
120.0,0.008406596258282661
128.0,0.0077482061460614204
144.0,0.006991719361394644
160.0,0.007029011379927397
176.0,0.007614064961671829
192.0,0.008262955583631992
208.0,0.007688948884606361
224.0,0.006756351795047522
240.0,0.0055572339333593845
256.0,0.004946533124893904
288.0,0.005023862700909376
320.0,0.00550067750737071
352.0,0.0050889234989881516
384.0,0.0033154808916151524
416.0,0.0031857620924711227
448.0,0.0016628176672384143
480.0,0.00012582435738295317
512.0,-0.0005363461677916348
576.0,0.000678066338878125
640.0,-0.0011879674857482314
704.0,-0.00010491160355741158
768.0,-0.001835862174630165
832.0,-0.0034657022915780544
896.0,-0.002302443375810981
960.0,-0.003646330675110221
1024.0,-0.005929093342274427
1152.0,-0.005080724135041237
1280.0,-0.001533413422293961
1408.0,-0.002599959261715412
1536.0,-0.002326398389413953
1664.0,-0.003224990563467145
1792.0,-0.0009272380848415196
1920.0,0.0032091124448925257
2048.0,0.003953429404646158
2304.0,0.0018646110547706485
2560.0,0.005016164388507605
2816.0,0.0046526421792805195
3072.0,0.0016570314764976501
3328.0,-0.0006360246916301548
3584.0,-0.003640709910541773
3840.0,-0.004129369277507067
4096.0,-0.002953912364318967
4608.0,0.004191204905509949
5120.0,0.0029731716495007277
5632.0,-0.0024054120294749737
6144.0,-0.004708551336079836
6656.0,-0.0009212847799062729
7168.0,0.0014515164075419307
7680.0,0.002964272163808346
8192.0,-0.0009532065014354885
9216.0,0.0008971785428002477
10240.0,-0.0011383926030248404
11264.0,0.0008979655685834587
12288.0,-0.0011985509190708399
13312.0,-0.006445749197155237
14336.0,-0.008226778358221054
end
