version,3.0
numOfCh,1
type,point
parent_name,200-cuts
ch_type,1_1
kcount,1
numberNandB,1
brightnessNandB,1
carpet pos,0
pc,0
Time (ms),CH1 Auto-Correlation
1.0,0.06855298578739166
2.0,0.0665627270936966
3.0,0.06463755667209625
4.0,0.06277160346508026
5.0,0.060965389013290405
6.0,0.05922609195113182
7.0,0.05756253004074097
8.0,0.05596991628408432
9.0,0.0544813796877861
10.0,0.05300862714648247
11.0,0.05154697597026825
12.0,0.05013818293809891
13.0,0.04880185425281525
14.0,0.047532256692647934
15.0,0.0462971106171608
16.0,0.045093707740306854
18.0,0.04299973323941231
20.0,0.040967345237731934
22.0,0.03917808458209038
24.0,0.03743649646639824
26.0,0.03575504571199417
28.0,0.03410612419247627
30.0,0.03260042145848274
32.0,0.031192347407341003
36.0,0.028478944674134254
40.0,0.025886690244078636
44.0,0.02358366921544075
48.0,0.021761538460850716
52.0,0.02012774348258972
56.0,0.018664643168449402
60.0,0.017375124618411064
64.0,0.016004415228962898
72.0,0.013712139800190926
80.0,0.011823203414678574
88.0,0.010289008729159832
96.0,0.00951764639467001
104.0,0.008403975516557693
112.0,0.007029361091554165
120.0,0.005520080681890249
128.0,0.004436946474015713
144.0,0.0024199921172112226
160.0,0.0014961204724386334
176.0,0.0014286155346781015
192.0,0.0020308110397309065
208.0,0.0018426480237394571
224.0,0.0006171030690893531
240.0,-0.0008800677605904639
256.0,-0.0015756008215248585
288.0,-0.0006820618291385472
320.0,0.0011309947585687041
352.0,0.00261567160487175
384.0,0.0032564119901508093
416.0,0.0025051808916032314
448.0,0.0013710955390706658
480.0,5.2939481975045055e-05
512.0,-0.0011647352948784828
576.0,-0.00127432553563267
640.0,-0.005046314559876919
704.0,-0.007839747704565525
768.0,-0.006779334507882595
832.0,-0.0010160288074985147
896.0,0.0013332556700333953
960.0,-0.001778067322447896
1024.0,-0.002760638715699315
1152.0,0.0017816980835050344
1280.0,0.004727016668766737
1408.0,0.005371385719627142
1536.0,0.0017418100032955408
1664.0,-0.00021444341109599918
1792.0,0.0014739253092557192
1920.0,0.0032556455116719007
2048.0,-0.0003380686684977263
2304.0,0.001630679122172296
2560.0,0.0010992446914315224
2816.0,0.0009232829906977713
3072.0,-0.0046013835817575455
3328.0,-0.0029199719429016113
3584.0,-0.00108818500302732
3840.0,0.001891250372864306
4096.0,0.0019860118627548218
4608.0,-0.0014755907468497753
5120.0,0.001787869492545724
5632.0,-0.0014573941007256508
6144.0,0.0012199211632832885
6656.0,5.501718624145724e-05
7168.0,0.00042017255327664316
7680.0,-9.807238529901952e-05
8192.0,-0.00203416938893497
9216.0,-0.0007397065637633204
10240.0,-0.002781191375106573
11264.0,-0.004267022013664246
12288.0,-0.002803604118525982
13312.0,-0.0009891479276120663
14336.0,-0.0009095905697904527
end
