version,3.0
numOfCh,1
type,point
parent_name,200-cuts
ch_type,1_1
kcount,1
numberNandB,1
brightnessNandB,1
carpet pos,0
pc,0
Time (ms),CH1 Auto-Correlation
1.0,0.024176381528377533
2.0,0.023548351600766182
3.0,0.022954488173127174
4.0,0.022371891885995865
5.0,0.02183445543050766
6.0,0.02130717970430851
7.0,0.0207951832562685
8.0,0.02028162032365799
9.0,0.01980525441467762
10.0,0.019353266805410385
11.0,0.018901828676462173
12.0,0.01845116727054119
13.0,0.018032284453511238
14.0,0.017624061554670334
15.0,0.017219893634319305
16.0,0.01680431142449379
18.0,0.01600264199078083
20.0,0.015240287408232689
22.0,0.014499354176223278
24.0,0.013782065361738205
26.0,0.013124026358127594
28.0,0.012501932680606842
30.0,0.011903760023415089
32.0,0.01135852187871933
36.0,0.01035626232624054
40.0,0.009457663632929325
44.0,0.00863542128354311
48.0,0.007875142619013786
52.0,0.007133035454899073
56.0,0.006391462404280901
60.0,0.005616225767880678
64.0,0.004780394956469536
72.0,0.0037076075095683336
80.0,0.0029757774900645018
88.0,0.002499024849385023
96.0,0.0020659640431404114
104.0,0.0017103783320635557
112.0,0.0014042275724932551
120.0,0.0011686724610626698
128.0,0.0010486299870535731
144.0,0.0007492213044315577
160.0,0.0005172237288206816
176.0,-0.00019325260655023158
192.0,-0.0010293434606865048
208.0,-0.0018786181462928653
224.0,-0.002661785576492548
240.0,-0.0025413278490304947
256.0,-0.002411646069958806
288.0,-0.001910482649691403
320.0,-0.0016924252267926931
352.0,-0.0012965125497430563
384.0,-0.0003663721145130694
416.0,0.001127529889345169
448.0,0.00149963004514575
480.0,0.0012704216642305255
512.0,0.0012523405021056533
576.0,0.0009066036436706781
640.0,-0.00010540833318373188
704.0,-0.0006874926039017737
768.0,-0.0006416715332306921
832.0,-0.001445255009457469
896.0,-0.0011054676724597812
960.0,-0.0013422606280073524
1024.0,-0.0018119780579581857
1152.0,-0.00045806774869561195
1280.0,0.0005794783937744796
1408.0,-0.0011080078547820449
1536.0,-0.0007718882407061756
1664.0,-0.0007982657989487052
1792.0,0.0008523220894858241
1920.0,0.00033251167042180896
2048.0,-0.002248837612569332
2304.0,-0.00045424961717799306
2560.0,0.00019295306992717087
2816.0,-2.5089232167374576e-06
3072.0,0.0008745404775254428
3328.0,-0.0002376209304202348
3584.0,0.0006251473096199334
3840.0,6.879434658912942e-05
4096.0,-0.0001433019497198984
4608.0,-0.0007020884077064693
5120.0,5.0084476242773235e-05
5632.0,1.8862925571738742e-05
6144.0,0.0004893226432614028
6656.0,0.00026072183391079307
7168.0,-1.8970909877680242e-05
7680.0,-5.1891453040298074e-05
8192.0,-0.0014720914186909795
9216.0,0.0005541857099160552
10240.0,0.0002741249045357108
11264.0,-0.0009154236176982522
12288.0,-0.00020943321578670293
13312.0,0.0005924770957790315
14336.0,-0.00012303066614549607
end
