version,3.0
numOfCh,1
type,point
parent_name,200-cuts
ch_type,1_1
kcount,1
numberNandB,1
brightnessNandB,1
carpet pos,0
pc,0
Time (ms),CH1 Auto-Correlation
1.0,0.07559829205274582
2.0,0.0734981819987297
3.0,0.07150066643953323
4.0,0.06960384547710419
5.0,0.06779959052801132
6.0,0.06607978790998459
7.0,0.06437358260154724
8.0,0.06268636882305145
9.0,0.061073970049619675
10.0,0.0595153346657753
11.0,0.05801277980208397
12.0,0.05658495053648949
13.0,0.05521363765001297
14.0,0.05390765890479088
15.0,0.052614975720644
16.0,0.05133124440908432
18.0,0.04886139929294586
20.0,0.04650452733039856
22.0,0.04438465088605881
24.0,0.04230758175253868
26.0,0.0402570515871048
28.0,0.038322556763887405
30.0,0.03639248386025429
32.0,0.03461436927318573
36.0,0.031306635588407516
40.0,0.02819904498755932
44.0,0.025291528552770615
48.0,0.02266179397702217
52.0,0.020229533314704895
56.0,0.01835111901164055
60.0,0.017047736793756485
64.0,0.016006506979465485
72.0,0.014555971138179302
80.0,0.01375352218747139
88.0,0.012773492373526096
96.0,0.011347177438437939
104.0,0.01033414900302887
112.0,0.010008820332586765
120.0,0.009013130329549313
128.0,0.007819818332791328
144.0,0.005386713892221451
160.0,0.004517794586718082
176.0,0.004903276916593313
192.0,0.004207112360745668
208.0,0.004448656924068928
224.0,0.005402319598942995
240.0,0.006264073774218559
256.0,0.005442944820970297
288.0,0.0017065219581127167
320.0,0.0021484799217432737
352.0,0.0035009728744626045
384.0,0.00431751599535346
416.0,0.0024256519973278046
448.0,0.0031659516971558332
480.0,0.004113908391445875
512.0,0.0026953101623803377
576.0,-0.00011081506090704352
640.0,0.0008885000133886933
704.0,-0.001245915307663381
768.0,8.15930325188674e-05
832.0,0.0005466131260618567
896.0,0.0038214577361941338
960.0,0.0019771098159253597
1024.0,0.0005729199619963765
1152.0,-0.004505164921283722
1280.0,-0.0026052494067698717
1408.0,0.0020319651812314987
1536.0,-0.0014351961435750127
1664.0,-0.0011285686632618308
1792.0,-0.0017091477056965232
1920.0,-0.004242843948304653
2048.0,-0.0024961144663393497
2304.0,-0.0022619646042585373
2560.0,0.00021085437037982047
2816.0,-0.0019642519764602184
3072.0,-0.004822127986699343
3328.0,-0.004288807045668364
3584.0,0.0015492693055421114
3840.0,0.0008415944175794721
4096.0,-0.0039953733794391155
4608.0,0.0008874906925484538
5120.0,0.002231936901807785
5632.0,0.004536366555839777
6144.0,0.005967587232589722
6656.0,0.0031609474681317806
7168.0,-0.0032623542938381433
7680.0,-0.0013112940359860659
8192.0,-0.003537482349202037
9216.0,-0.004192653112113476
10240.0,0.0014478834345936775
11264.0,0.003919686656445265
12288.0,0.00327088194899261
13312.0,-0.0032933270558714867
14336.0,-0.014345807023346424
end
