version,3.0
numOfCh,1
type,point
parent_name,200-cuts
ch_type,1_1
kcount,1
numberNandB,1
brightnessNandB,1
carpet pos,0
pc,0
Time (ms),CH1 Auto-Correlation
1.0,0.027725130319595337
2.0,0.026874857023358345
3.0,0.02605694718658924
4.0,0.025270216166973114
5.0,0.024504952132701874
6.0,0.023766638711094856
7.0,0.02306118607521057
8.0,0.022366086021065712
9.0,0.021686768159270287
10.0,0.021060779690742493
11.0,0.0204630084335804
12.0,0.019876468926668167
13.0,0.0193333737552166
14.0,0.018799571320414543
15.0,0.018270080909132957
16.0,0.01774987205862999
18.0,0.016721639782190323
20.0,0.015763835981488228
22.0,0.014866264536976814
24.0,0.01401619240641594
26.0,0.013222480192780495
28.0,0.012474649585783482
30.0,0.011722260154783726
32.0,0.01104142889380455
36.0,0.009815583936870098
40.0,0.008725089021027088
44.0,0.007822118699550629
48.0,0.007048125844448805
52.0,0.006367279216647148
56.0,0.005833641160279512
60.0,0.00534718157723546
64.0,0.004950792528688908
72.0,0.004242132883518934
80.0,0.0035935479681938887
88.0,0.002903274493291974
96.0,0.002119226846843958
104.0,0.0015927607892081141
112.0,0.001224979874677956
120.0,0.0011112199863418937
128.0,0.0012416779063642025
144.0,0.0009972333209589124
160.0,-0.00011273003474343568
176.0,-0.0008892293553799391
192.0,-0.0008198663126677275
208.0,-0.0005404684343375266
224.0,-0.00037159613566473126
240.0,-0.00036311146686784923
256.0,-0.00029081670800223947
288.0,0.0001355823187623173
320.0,0.00010614700295263901
352.0,0.0005593373789452016
384.0,-0.00011257379810558632
416.0,-0.0008201810996979475
448.0,-0.00043759570689871907
480.0,-0.0008263848721981049
512.0,-0.00019208194862585515
576.0,0.0008653863333165646
640.0,0.00010841042239917442
704.0,0.000404751772293821
768.0,-0.001073638442903757
832.0,-0.0005720412009395659
896.0,0.0009329227614216506
960.0,0.0009682935778982937
1024.0,0.0002922248968388885
1152.0,0.0005314433947205544
1280.0,0.0011485547292977571
1408.0,-0.001577987801283598
1536.0,-0.0011890595778822899
1664.0,0.0007691016653552651
1792.0,0.0015722439857199788
1920.0,0.001079075620509684
2048.0,-0.0023244363255798817
2304.0,-0.0005937673849985003
2560.0,-0.001384854200296104
2816.0,-0.0002639906306285411
3072.0,-0.0008069268660619855
3328.0,-0.0002720165066421032
3584.0,0.0013363416073843837
3840.0,-0.0003089979290962219
4096.0,-0.0012962976470589638
4608.0,-0.00026676608831621706
5120.0,0.000505318574141711
5632.0,-2.0345893062767573e-05
6144.0,0.0016711159842088819
6656.0,5.035426511312835e-05
7168.0,0.0007751412340439856
7680.0,-0.00013270236377138644
8192.0,-0.0013668716419488192
9216.0,-0.0008220414747484028
10240.0,5.3962779929861426e-05
11264.0,0.0001185496075777337
12288.0,-0.0005388329736888409
13312.0,-0.00027777982177212834
14336.0,-0.00033069169148802757
end
