version,3.0
numOfCh,1
type,point
parent_name,200-cuts
ch_type,1_1
kcount,1
numberNandB,1
brightnessNandB,1
carpet pos,0
pc,0
Time (ms),CH1 Auto-Correlation
1.0,0.06778658181428909
2.0,0.06577294319868088
3.0,0.06384564191102982
4.0,0.06199738755822182
5.0,0.06015105918049812
6.0,0.058493372052907944
7.0,0.05686328187584877
8.0,0.055236220359802246
9.0,0.05366502329707146
10.0,0.052088163793087006
11.0,0.050559405237436295
12.0,0.049174461513757706
13.0,0.04784679412841797
14.0,0.04651854559779167
15.0,0.04527439922094345
16.0,0.04408760741353035
18.0,0.041779838502407074
20.0,0.03960755094885826
22.0,0.03761150315403938
24.0,0.035647161304950714
26.0,0.03376547992229462
28.0,0.03197450935840607
30.0,0.030344031751155853
32.0,0.02883707359433174
36.0,0.026547871530056
40.0,0.024635175243020058
44.0,0.022900957614183426
48.0,0.021212661638855934
52.0,0.01961175538599491
56.0,0.01812877133488655
60.0,0.017000937834382057
64.0,0.016089409589767456
72.0,0.015316596254706383
80.0,0.015097558498382568
88.0,0.01461079716682434
96.0,0.01352375466376543
104.0,0.011828307062387466
112.0,0.00991674605756998
120.0,0.007617025636136532
128.0,0.0052762506529688835
144.0,0.002801269292831421
160.0,0.0023219860158860683
176.0,0.0014129430055618286
192.0,5.306259117787704e-05
208.0,-0.0008637906867079437
224.0,-0.0006128858076408505
240.0,-6.0203226894373074e-05
256.0,0.0002792103623505682
288.0,0.0001404183858539909
320.0,-0.0006098204758018255
352.0,0.000991710927337408
384.0,0.004060740116983652
416.0,0.00554818008095026
448.0,0.004738113842904568
480.0,0.002480565570294857
512.0,-0.001257226918824017
576.0,-0.005469766445457935
640.0,-0.004297761712223291
704.0,-0.0026543335989117622
768.0,-0.0027601169422268867
832.0,-0.003931606188416481
896.0,-0.006390892434865236
960.0,-0.00882615614682436
1024.0,-0.007391126826405525
1152.0,-0.0010753532405942678
1280.0,-0.00038183151627890766
1408.0,-0.0019251194316893816
1536.0,0.0019104041857644916
1664.0,0.0025970216374844313
1792.0,-0.0006919547449797392
1920.0,0.004107487853616476
2048.0,0.003130638273432851
2304.0,-0.00338772707618773
2560.0,-0.00125915149692446
2816.0,-0.0036197493318468332
3072.0,0.00236514606513083
3328.0,0.0008513404754921794
3584.0,0.0014033112674951553
3840.0,-0.0011208580108359456
4096.0,-0.0015975936548784375
4608.0,-0.0027036513201892376
5120.0,0.002938123419880867
5632.0,0.0011234189150854945
6144.0,-0.001671709818765521
6656.0,0.003645550226792693
7168.0,0.000814335944596678
7680.0,-0.006542103830724955
8192.0,-0.0002906139998231083
9216.0,-0.0022715101949870586
10240.0,0.004692664835602045
11264.0,-0.002203998388722539
12288.0,0.0009640950011089444
13312.0,-0.00012107657676097006
14336.0,-0.007675365079194307
end
