version,3.0
numOfCh,1
type,point
parent_name,200-cuts
ch_type,1_1
kcount,1
numberNandB,1
brightnessNandB,1
carpet pos,0
pc,0
Time (ms),CH1 Auto-Correlation
1.0,0.01977166160941124
2.0,0.01914301887154579
3.0,0.018541166558861732
4.0,0.01798214390873909
5.0,0.017438456416130066
6.0,0.016901550814509392
7.0,0.01638060435652733
8.0,0.015886997804045677
9.0,0.015410986728966236
10.0,0.014957780949771404
11.0,0.014511601999402046
12.0,0.014068610966205597
13.0,0.013630679808557034
14.0,0.013197635300457478
15.0,0.01277916505932808
16.0,0.01236218586564064
18.0,0.011579896323382854
20.0,0.010844074189662933
22.0,0.010146166197955608
24.0,0.00948520191013813
26.0,0.008879339322447777
28.0,0.008278584107756615
30.0,0.007754971738904715
32.0,0.007299036718904972
36.0,0.006568076089024544
40.0,0.005968806333839893
44.0,0.005473895464092493
48.0,0.004981005564332008
52.0,0.004512058570981026
56.0,0.004129037261009216
60.0,0.0037487978115677834
64.0,0.003391057252883911
72.0,0.0027090676594525576
80.0,0.0020594506058841944
88.0,0.0015346236759796739
96.0,0.0011416252236813307
104.0,0.0009817240061238408
112.0,0.0009852764196693897
120.0,0.0010055318707600236
128.0,0.0009757561492733657
144.0,0.0005807208362966776
160.0,0.00028730081976391375
176.0,0.0002697049349080771
192.0,0.0006600760389119387
208.0,0.0007766361813992262
224.0,-0.00012985312787350267
240.0,-0.0009446655167266726
256.0,-0.001288417144678533
288.0,-0.0015400699339807034
320.0,-0.001290397485718131
352.0,-0.0004939291975460947
384.0,4.885814632871188e-05
416.0,-0.0005049571627750993
448.0,-0.0016006339574232697
480.0,-0.0022101816721260548
512.0,-0.0021367985755205154
576.0,-0.0018286259146407247
640.0,-0.0005067165475338697
704.0,-0.0004553661565296352
768.0,0.0004404508217703551
832.0,0.000762071053031832
896.0,0.00035668033524416387
960.0,-0.00026180807617492974
1024.0,4.536293261026003e-07
1152.0,-0.000355584139470011
1280.0,-0.0011887456057593226
1408.0,-0.00023115090152714401
1536.0,0.0011641299352049828
1664.0,-0.0001676336396485567
1792.0,-0.000817385851405561
1920.0,-0.0006729608867317438
2048.0,-0.0003367538738530129
2304.0,0.000539697939530015
2560.0,0.0003587740648072213
2816.0,-0.00023178788251243532
3072.0,-0.0004189557221252471
3328.0,2.7601272449828684e-05
3584.0,-3.314886998850852e-05
3840.0,-0.0003820176934823394
4096.0,-0.0002868272422347218
4608.0,-0.0005280983168631792
5120.0,0.0003908542275894433
5632.0,0.00019891350530087948
6144.0,-0.0003584793594200164
6656.0,-0.00010536174522712827
7168.0,0.0002955509989988059
7680.0,-0.00031355739338323474
8192.0,0.00101618526969105
9216.0,3.27921261487063e-05
10240.0,0.0002850938180927187
11264.0,-8.667296060593799e-05
12288.0,-0.000137863535201177
13312.0,9.678603237261996e-05
14336.0,-0.00024753474281169474
end
