version,3.0
numOfCh,1
type,point
parent_name,200-cuts
ch_type,1_1
kcount,1
numberNandB,1
brightnessNandB,1
carpet pos,0
pc,0
Time (ms),CH1 Auto-Correlation
1.0,0.07119255512952805
2.0,0.06911583244800568
3.0,0.06703852862119675
4.0,0.06506843119859695
5.0,0.06317835301160812
6.0,0.06137269735336304
7.0,0.05966987460851669
8.0,0.05804264545440674
9.0,0.056466348469257355
10.0,0.054955657571554184
11.0,0.053523916751146317
12.0,0.052128102630376816
13.0,0.05081727355718613
14.0,0.049524858593940735
15.0,0.04829038679599762
16.0,0.04708798602223396
18.0,0.04471757262945175
20.0,0.042430613189935684
22.0,0.04016492888331413
24.0,0.03798326477408409
26.0,0.03592563793063164
28.0,0.03409985080361366
30.0,0.03240377455949783
32.0,0.030821241438388824
36.0,0.02793991006910801
40.0,0.025110889226198196
44.0,0.022378651425242424
48.0,0.019955050200223923
52.0,0.017928291112184525
56.0,0.016156967729330063
60.0,0.014613034203648567
64.0,0.013285222463309765
72.0,0.011111932806670666
80.0,0.0095139155164361
88.0,0.007480542175471783
96.0,0.005208206828683615
104.0,0.003695219522342086
112.0,0.0027149405796080828
120.0,0.0015157382003962994
128.0,0.0005553654045797884
144.0,-0.0006927624344825745
160.0,-0.002014575991779566
176.0,-0.0029003771487623453
192.0,-0.003247622400522232
208.0,-0.0035349964164197445
224.0,-0.00322926789522171
240.0,-0.0035419417545199394
256.0,-0.0037120473571121693
288.0,-0.00470211124047637
320.0,-0.0047841183841228485
352.0,-0.004480693489313126
384.0,-0.002592984354123473
416.0,-0.0011776139726862311
448.0,-0.0008222492760978639
480.0,0.0005245048087090254
512.0,-0.00023612745280843228
576.0,-0.0021731320302933455
640.0,-0.0027575260028243065
704.0,0.0005773241282440722
768.0,-0.0007605497376061976
832.0,-0.005059014540165663
896.0,-0.004372240509837866
960.0,-0.0037585159298032522
1024.0,-0.0017899355152621865
1152.0,-0.0014489932218566537
1280.0,-0.005350822117179632
1408.0,-0.0002547777839936316
1536.0,0.004090179689228535
1664.0,0.003569143358618021
1792.0,0.001732164528220892
1920.0,0.002238471992313862
2048.0,0.0017083019483834505
2304.0,0.0020926331635564566
2560.0,-0.006413061637431383
2816.0,0.0018797112861648202
3072.0,-0.0036897629033774137
3328.0,0.002210595179349184
3584.0,0.004007983021438122
3840.0,-0.0021579088643193245
4096.0,0.001319859642535448
4608.0,-0.0020587597973644733
5120.0,0.003334149718284607
5632.0,0.0031887220684438944
6144.0,-0.003579353215172887
6656.0,-0.000419257819885388
7168.0,0.0025385767221450806
7680.0,-0.0030432178173214197
8192.0,-0.0026196290273219347
9216.0,0.00133678806014359
10240.0,0.0010793915716931224
11264.0,-0.0009672592277638614
12288.0,0.0002623023756314069
13312.0,-0.000844701542519033
14336.0,0.0005277016316540539
end
