version,3.0
numOfCh,1
type,point
parent_name,200-cuts
ch_type,1_1
kcount,1
numberNandB,1
brightnessNandB,1
carpet pos,0
pc,0
Time (ms),CH1 Auto-Correlation
1.0,0.02232969179749489
2.0,0.02165932208299637
3.0,0.021007854491472244
4.0,0.02037312649190426
5.0,0.019758258014917374
6.0,0.0191720649600029
7.0,0.018597770482301712
8.0,0.018055208027362823
9.0,0.01753324456512928
10.0,0.017037004232406616
11.0,0.01655050553381443
12.0,0.016081111505627632
13.0,0.015600551851093769
14.0,0.015155550092458725
15.0,0.014715157449245453
16.0,0.014324086718261242
18.0,0.013547644950449467
20.0,0.012780899181962013
22.0,0.012039607390761375
24.0,0.011325239203870296
26.0,0.010653604753315449
28.0,0.009998847730457783
30.0,0.009413269348442554
32.0,0.008882090449333191
36.0,0.007862033322453499
40.0,0.006959752645343542
44.0,0.006141818594187498
48.0,0.005411256570369005
52.0,0.0046733058989048
56.0,0.003983932547271252
60.0,0.0034078587777912617
64.0,0.002995989518240094
72.0,0.0023158504627645016
80.0,0.0017315520672127604
88.0,0.0014264789642766118
96.0,0.0011151970829814672
104.0,0.0008720554760657251
112.0,0.000539516331627965
120.0,0.00022620981326326728
128.0,-0.00012349520693533123
144.0,-0.00032884522806853056
160.0,0.0003744488931261003
176.0,0.0007512629381380975
192.0,0.0009372597560286522
208.0,0.0008537823450751603
224.0,0.0009583148057572544
240.0,0.0011288834502920508
256.0,0.0017736689187586308
288.0,0.0007413140265271068
320.0,-0.0004939374630339444
352.0,-0.0007117869099602103
384.0,-0.0005474264617078006
416.0,-0.0006451562512665987
448.0,-0.00026751818950288
480.0,0.0006859606946818531
512.0,0.0010181667748838663
576.0,0.0001076751432265155
640.0,0.001581970602273941
704.0,0.0029845191165804863
768.0,0.0018661139765754342
832.0,0.0006513375556096435
896.0,0.0006483983597718179
960.0,0.0007709769415669143
1024.0,-0.0005373412859626114
1152.0,-0.0003907190985046327
1280.0,-0.0006307123694568872
1408.0,0.00055975146824494
1536.0,-5.807122215628624e-05
1664.0,0.0006766127771697938
1792.0,0.000103743230283726
1920.0,-0.0006314223282970488
2048.0,-0.0018540088785812259
2304.0,-0.0004932947922497988
2560.0,-0.0003333144122734666
2816.0,-0.0022385031916201115
3072.0,-0.001362164388410747
3328.0,-0.0014611018123105168
3584.0,-0.0014860222581773996
3840.0,-7.401798211503774e-05
4096.0,-0.0008893839549273252
4608.0,4.322392487665638e-05
5120.0,0.0007495669997297227
5632.0,0.0011684517376124859
6144.0,0.0013040771009400487
6656.0,0.0005233683041296899
7168.0,0.0009017333504743874
7680.0,0.0006156610324978828
8192.0,-0.0014939208049327135
9216.0,-0.0014299284666776657
10240.0,-8.628490468254313e-05
11264.0,-0.0002473875065334141
12288.0,0.001982222544029355
13312.0,0.00011099394760094583
14336.0,-0.00123267387971282
end
