version,3.0
numOfCh,1
type,point
parent_name,200-cuts
ch_type,1_1
kcount,1
numberNandB,1
brightnessNandB,1
carpet pos,0
pc,0
Time (ms),CH1 Auto-Correlation
1.0,0.020927537232637405
2.0,0.020259108394384384
3.0,0.019634585827589035
4.0,0.019034210592508316
5.0,0.01844594068825245
6.0,0.01787642203271389
7.0,0.01733120158314705
8.0,0.016792865470051765
9.0,0.01627444662153721
10.0,0.015793275088071823
11.0,0.01532426755875349
12.0,0.014892859384417534
13.0,0.014483248814940453
14.0,0.014081722125411034
15.0,0.013685328885912895
16.0,0.013307342305779457
18.0,0.012613286264240742
20.0,0.011981832794845104
22.0,0.011441951617598534
24.0,0.010946646332740784
26.0,0.01049347035586834
28.0,0.010059070773422718
30.0,0.009630542248487473
32.0,0.0092537309974432
36.0,0.008530095219612122
40.0,0.007906797342002392
44.0,0.007318506948649883
48.0,0.006883801426738501
52.0,0.006562246475368738
56.0,0.006342877633869648
60.0,0.006077776663005352
64.0,0.0057842424139380455
72.0,0.00520784268155694
80.0,0.0048652952536940575
88.0,0.004477436188608408
96.0,0.003984038718044758
104.0,0.0034100241027772427
112.0,0.0030054133385419846
120.0,0.002541491063311696
128.0,0.0022171216551214457
144.0,0.001985142705962062
160.0,0.001437150640413165
176.0,0.001073348568752408
192.0,0.001106562209315598
208.0,0.0016241864068433642
224.0,0.001411194447427988
240.0,0.0011413018219172955
256.0,0.0009563069324940443
288.0,3.406029918551212e-06
320.0,-0.0004670672642532736
352.0,-0.0003391341888345778
384.0,-0.0011535214725881815
416.0,-0.0004924076492898166
448.0,-9.973558917408809e-05
480.0,-2.948111250589136e-05
512.0,-0.0005831407615914941
576.0,-0.0015337839722633362
640.0,-0.0007601751131005585
704.0,0.0004199688555672765
768.0,0.0005668764351867139
832.0,0.00039763585664331913
896.0,-0.0003587016835808754
960.0,-0.0006131118279881775
1024.0,0.0002686676161829382
1152.0,-0.0001635268417885527
1280.0,-0.0004988333093933761
1408.0,-0.0009925017366185784
1536.0,-0.00038998216041363776
1664.0,0.0007491196156479418
1792.0,0.0008597064297646284
1920.0,0.0012632969301193953
2048.0,0.00012790848268195987
2304.0,-0.002791675738990307
2560.0,-0.0012682491214945912
2816.0,-0.0005023840349167585
3072.0,-3.3277610782533884e-05
3328.0,-0.0008684827480465174
3584.0,0.00018867524340748787
3840.0,0.001157585997134447
4096.0,0.0002217941073467955
4608.0,0.0004000177141278982
5120.0,0.0003143172070849687
5632.0,0.0013439988251775503
6144.0,-0.0014548285398632288
6656.0,-0.0006678996724076569
7168.0,-0.00031039200257509947
7680.0,2.9635290047735907e-05
8192.0,-0.0008436796488240361
9216.0,-7.673395884921774e-05
10240.0,-0.0004228208272252232
11264.0,-0.001123880734667182
12288.0,0.0005938232061453164
13312.0,0.0012565086362883449
14336.0,0.0020404676906764507
end
