version,3.0
numOfCh,1
type,point
parent_name,200-cuts
ch_type,1_1
kcount,1
numberNandB,1
brightnessNandB,1
carpet pos,0
pc,0
Time (ms),CH1 Auto-Correlation
1.0,0.018213994801044464
2.0,0.017618969082832336
3.0,0.017046233639121056
4.0,0.016504209488630295
5.0,0.015976557508111
6.0,0.015468167141079903
7.0,0.01497685443609953
8.0,0.014504296705126762
9.0,0.014037374407052994
10.0,0.013601791113615036
11.0,0.01315041072666645
12.0,0.012728266417980194
13.0,0.012324673123657703
14.0,0.011928773485124111
15.0,0.011546182446181774
16.0,0.011182603426277637
18.0,0.010552057065069675
20.0,0.00996554084122181
22.0,0.009447557851672173
24.0,0.008983306586742401
26.0,0.008543630130589008
28.0,0.008149301633238792
30.0,0.007774940691888332
32.0,0.0074094245210289955
36.0,0.00668800575658679
40.0,0.006037678103893995
44.0,0.0054590776562690735
48.0,0.004937494173645973
52.0,0.004568158183246851
56.0,0.0042781345546245575
60.0,0.004007264971733093
64.0,0.0037283790297806263
72.0,0.00312021654099226
80.0,0.002546890638768673
88.0,0.0020127659663558006
96.0,0.0015482577728107572
104.0,0.0011708103120326996
112.0,0.000832024437841028
120.0,0.0006230053841136396
128.0,0.0006210716092027724
144.0,0.0005490506300702691
160.0,0.00046658236533403397
176.0,0.00031527841929346323
192.0,0.0002553211816120893
208.0,0.00020567409228533506
224.0,0.000106414569017943
240.0,-0.00021162288612686098
256.0,-0.00015416946553159505
288.0,-0.0010639001848176122
320.0,-0.0012651190627366304
352.0,-0.0008034929051063955
384.0,-0.00043937351438216865
416.0,0.00017682540055830032
448.0,9.24101477721706e-05
480.0,0.0003493869735393673
512.0,0.0005160868167877197
576.0,0.0010001729242503643
640.0,0.00032252384698949754
704.0,3.0400603918678826e-06
768.0,0.00033795341732911766
832.0,0.001702108420431614
896.0,0.0003385256859473884
960.0,-0.0008141659782268107
1024.0,-0.00027970262453891337
1152.0,-0.0014083448331803083
1280.0,0.00019666731532197446
1408.0,-0.000643168285023421
1536.0,0.0005378350615501404
1664.0,0.00071597850183025
1792.0,0.0001101615052903071
1920.0,0.001242607249878347
2048.0,0.00019322983280289918
2304.0,0.0005030428874306381
2560.0,-0.00026022488600574434
2816.0,0.0004448962863534689
3072.0,-0.000575021025724709
3328.0,0.0005269288667477667
3584.0,-1.1587998415052425e-05
3840.0,-0.00029447683482430875
4096.0,1.685474671830889e-05
4608.0,-0.0003384360170457512
5120.0,-0.000490877719130367
5632.0,-0.0004876759776379913
6144.0,2.9304923373274505e-05
6656.0,-0.0004992547328583896
7168.0,-0.0007818496669642627
7680.0,-0.00023487595899496228
8192.0,0.00024017944815568626
9216.0,-0.0004687453620135784
10240.0,0.0002781331422738731
11264.0,0.00043937424197793007
12288.0,-0.0005612600361928344
13312.0,-0.0001848428655648604
14336.0,0.0013223696732893586
end
