version,3.0
numOfCh,1
type,point
parent_name,200-cuts
ch_type,1_1
kcount,1
numberNandB,1
brightnessNandB,1
carpet pos,0
pc,0
Time (ms),CH1 Auto-Correlation
1.0,0.061462726444005966
2.0,0.05956582725048065
3.0,0.05772129446268082
4.0,0.05597730353474617
5.0,0.054253313690423965
6.0,0.05264053866267204
7.0,0.05106163024902344
8.0,0.049551062285900116
9.0,0.048091642558574677
10.0,0.046729862689971924
11.0,0.045434992760419846
12.0,0.04416012763977051
13.0,0.04293894022703171
14.0,0.041771821677684784
15.0,0.04062122479081154
16.0,0.039516087621450424
18.0,0.03742235153913498
20.0,0.035425279289484024
22.0,0.03348354250192642
24.0,0.03169211372733116
26.0,0.030098609626293182
28.0,0.028508732095360756
30.0,0.02681768126785755
32.0,0.025170741602778435
36.0,0.022117651998996735
40.0,0.01948515884578228
44.0,0.017083365470170975
48.0,0.015227335505187511
52.0,0.013784794136881828
56.0,0.012621751055121422
60.0,0.011627363972365856
64.0,0.010690837167203426
72.0,0.008867008611559868
80.0,0.007229883689433336
88.0,0.006220493000000715
96.0,0.005685216747224331
104.0,0.004931748379021883
112.0,0.00458317156881094
120.0,0.0037962007336318493
128.0,0.0029374605510383844
144.0,0.00247523607686162
160.0,0.002310606651008129
176.0,0.002358384197577834
192.0,0.003614421933889389
208.0,0.004328123759478331
224.0,0.004138280637562275
240.0,0.0030232511926442385
256.0,0.0018686073599383235
288.0,-0.0006923382170498371
320.0,-0.0030808881856501102
352.0,-0.0018583274213597178
384.0,-0.0007243897998705506
416.0,-0.0005047015147283673
448.0,0.00162408291362226
480.0,0.0019767910707741976
512.0,0.0031953684519976377
576.0,0.0010859249159693718
640.0,-0.0032543845009058714
704.0,-0.0007648611790500581
768.0,-0.000571283046156168
832.0,-0.002289509866386652
896.0,-0.003623283002525568
960.0,-0.0021662982180714607
1024.0,-0.0016839624149724841
1152.0,-0.0001407653180649504
1280.0,0.002070797374472022
1408.0,0.0034504039213061333
1536.0,-0.000955984287429601
1664.0,-0.0011159890564158559
1792.0,-0.0009122095652855933
1920.0,-0.004571511875838041
2048.0,-0.000336088560288772
2304.0,-0.0017826476832851768
2560.0,-0.0020076222717761993
2816.0,0.0001807932712836191
3072.0,-0.0013874422293156385
3328.0,-0.00018438468396198004
3584.0,0.00019863445777446032
3840.0,-0.0024016560055315495
4096.0,-0.00037014432018622756
4608.0,0.002785783726722002
5120.0,-0.0012025117175653577
5632.0,-0.002841471927240491
6144.0,-0.0020630185026675463
6656.0,-0.0007670847116969526
7168.0,0.0007971318555064499
7680.0,0.0037937271408736706
8192.0,0.0014693598495796323
9216.0,0.0011003951076418161
10240.0,-0.0006210948922671378
11264.0,-0.0013243663124740124
12288.0,-0.0006612315191887319
13312.0,0.0005237287259660661
14336.0,0.0009379803086631
end
