version,3.0
numOfCh,1
type,point
parent_name,200-cuts
ch_type,1_1
kcount,1
numberNandB,1
brightnessNandB,1
carpet pos,0
pc,0
Time (ms),CH1 Auto-Correlation
1.0,0.02410382404923439
2.0,0.02341303415596485
3.0,0.022768976166844368
4.0,0.022156834602355957
5.0,0.02155870385468006
6.0,0.020984601229429245
7.0,0.020433882251381874
8.0,0.019893499091267586
9.0,0.019371746107935905
10.0,0.018867898732423782
11.0,0.018385836854577065
12.0,0.017917029559612274
13.0,0.017458120360970497
14.0,0.017017202451825142
15.0,0.016581835225224495
16.0,0.016155702993273735
18.0,0.01536121591925621
20.0,0.01461392268538475
22.0,0.013914820738136768
24.0,0.013259246945381165
26.0,0.012622194364666939
28.0,0.012025288306176662
30.0,0.011467169970273972
32.0,0.01094347145408392
36.0,0.009968383237719536
40.0,0.009029770269989967
44.0,0.008159737102687359
48.0,0.007268824148923159
52.0,0.006344047375023365
56.0,0.005492634139955044
60.0,0.004705394152551889
64.0,0.0040051196701824665
72.0,0.002759397029876709
80.0,0.001760432729497552
88.0,0.00129035918507725
96.0,0.001119619351811707
104.0,0.0010911646531894803
112.0,0.0009492599638178945
120.0,0.0007297949632629752
128.0,0.0005439139204099774
144.0,0.00039507445762865245
160.0,6.870226570754312e-06
176.0,-3.9645281503908336e-05
192.0,-0.00011665015335893258
208.0,0.00012507378414738923
224.0,0.0005825909902341664
240.0,0.0009511918178759515
256.0,0.00130322331096977
288.0,0.0008791050058789551
320.0,0.0008746403618715703
352.0,0.0005768463015556335
384.0,-0.0001184489592560567
416.0,-0.0006249516736716032
448.0,-0.0008798649650998414
480.0,-0.0008597872219979763
512.0,-0.00043911070679314435
576.0,0.0002314697194378823
640.0,-0.0001879938499769196
704.0,-0.0005498466780409217
768.0,-7.506872498197481e-05
832.0,-0.00019252959464211017
896.0,0.00018436679965816438
960.0,-0.00026203179731965065
1024.0,-0.0010495559545233846
1152.0,0.00011462673865025863
1280.0,-0.0018166459631174803
1408.0,-0.0013194724451750517
1536.0,-3.653399835457094e-05
1664.0,-7.656692469026893e-05
1792.0,0.0022339399438351393
1920.0,0.0004757865099236369
2048.0,-0.0005489817121997476
2304.0,0.000780910428147763
2560.0,0.000989851076155901
2816.0,-0.0006909791263751686
3072.0,-0.0024681712966412306
3328.0,-0.001046760706230998
3584.0,-3.018988536496181e-05
3840.0,-0.00028946460224688053
4096.0,0.0005633009714074433
4608.0,0.0002899670507758856
5120.0,-0.0012876158580183983
5632.0,-0.0015354359056800604
6144.0,0.0009634980815462768
6656.0,0.0003453522513154894
7168.0,-0.001185199012979865
7680.0,-0.0003755966608878225
8192.0,0.0001816390285966918
9216.0,-0.0007072524167597294
10240.0,0.0012735032942146063
11264.0,0.00046324654249474406
12288.0,-0.00019149815489072353
13312.0,-0.0009578107856214046
14336.0,-0.00012208562111482024
end
