version,3.0
numOfCh,1
type,point
parent_name,200-cuts
ch_type,1_1
kcount,1
numberNandB,1
brightnessNandB,1
carpet pos,0
pc,0
Time (ms),CH1 Auto-Correlation
1.0,0.03332545980811119
2.0,0.03232429549098015
3.0,0.03138606995344162
4.0,0.030462045222520828
5.0,0.02954832836985588
6.0,0.02868645451962948
7.0,0.027931205928325653
8.0,0.02721009962260723
9.0,0.02649451047182083
10.0,0.025754759088158607
11.0,0.02505124732851982
12.0,0.024355703964829445
13.0,0.02369876392185688
14.0,0.023052537813782692
15.0,0.02242128551006317
16.0,0.021815592423081398
18.0,0.02066790498793125
20.0,0.019633028656244278
22.0,0.018689006567001343
24.0,0.01782098412513733
26.0,0.016972733661532402
28.0,0.016152966767549515
30.0,0.015338999219238758
32.0,0.014559108763933182
36.0,0.013126807287335396
40.0,0.011808976531028748
44.0,0.01062821876257658
48.0,0.009588086046278477
52.0,0.008694691583514214
56.0,0.007843014784157276
60.0,0.007150718476623297
64.0,0.0064110043458640575
72.0,0.005168050527572632
80.0,0.004092099145054817
88.0,0.0030843010172247887
96.0,0.00206926790997386
104.0,0.0012274968903511763
112.0,0.0005886186845600605
120.0,-6.0047139413654804e-05
128.0,-0.00055745366262272
144.0,-0.0013982342788949609
160.0,-0.002218597801402211
176.0,-0.0025272262282669544
192.0,-0.002424324629828334
208.0,-0.002283826470375061
224.0,-0.001836960669606924
240.0,-0.0014063009293749928
256.0,-0.0009207229595631361
288.0,-0.0013479755725711584
320.0,-0.002436623442918062
352.0,-0.002831518417224288
384.0,-0.002300061983987689
416.0,-0.001066555385477841
448.0,0.0002433773479424417
480.0,0.0009593920549377799
512.0,0.0009741339017637074
576.0,0.000887142785359174
640.0,0.0023961046244949102
704.0,0.0019573892932385206
768.0,0.0009219605708494782
832.0,-0.00017538633255753666
896.0,-0.0019804134499281645
960.0,-0.0014209295623004436
1024.0,-0.0009721338283270597
1152.0,0.00011805866233771667
1280.0,0.001836020383052528
1408.0,0.0010347178904339671
1536.0,-0.001283641904592514
1664.0,-0.00221500382758677
1792.0,0.001155917183496058
1920.0,0.0019750853534787893
2048.0,-0.00019063612853642553
2304.0,-0.0014466986758634448
2560.0,4.641223858925514e-05
2816.0,-0.0016183292027562857
3072.0,0.0004509297723416239
3328.0,-0.00044244719902053475
3584.0,-0.00027140675229020417
3840.0,-0.000539679080247879
4096.0,-0.0007202964625321329
4608.0,6.407701584976166e-05
5120.0,4.806647484656423e-05
5632.0,0.00030926911858841777
6144.0,-0.0012693331809714437
6656.0,7.459363405359909e-05
7168.0,0.0009007744374684989
7680.0,-0.0004068948037456721
8192.0,-0.0005841408274136484
9216.0,-0.0005434085032902658
10240.0,0.00046773318899795413
11264.0,0.00042816181667149067
12288.0,0.0016544130630791187
13312.0,-0.0011015726486220956
14336.0,-0.002117625903338194
end
