version,3.0
numOfCh,1
type,point
parent_name,200-cuts
ch_type,1_1
kcount,1
numberNandB,1
brightnessNandB,1
carpet pos,0
pc,0
Time (ms),CH1 Auto-Correlation
1.0,0.02398177795112133
2.0,0.02312716655433178
3.0,0.022330576553940773
4.0,0.02158249169588089
5.0,0.020847918465733528
6.0,0.020142069086432457
7.0,0.019477512687444687
8.0,0.018870336934924126
9.0,0.018291939049959183
10.0,0.01772831380367279
11.0,0.01718416064977646
12.0,0.016633203253149986
13.0,0.01611988991498947
14.0,0.015621989034116268
15.0,0.015142261050641537
16.0,0.01467067375779152
18.0,0.01384533941745758
20.0,0.013092667795717716
22.0,0.012364701367914677
24.0,0.01165344100445509
26.0,0.01098253857344389
28.0,0.0103467907756567
30.0,0.009724444709718227
32.0,0.009159755893051624
36.0,0.008134896866977215
40.0,0.007233334239572287
44.0,0.0063833375461399555
48.0,0.005504305008798838
52.0,0.004701739177107811
56.0,0.00414676871150732
60.0,0.0037999062333256006
64.0,0.003566179657354951
72.0,0.003403953742235899
80.0,0.003315018257126212
88.0,0.0030259524937719107
96.0,0.002635418204590678
104.0,0.0023777196183800697
112.0,0.002056210534647107
120.0,0.0016389259835705161
128.0,0.0011970184277743101
144.0,0.000787123863119632
160.0,0.0009790266631171107
176.0,0.0009599233162589371
192.0,0.0009642363875173032
208.0,0.0004960435326211154
224.0,-0.0002713915891945362
240.0,-0.0008048450690694153
256.0,-0.0010092819575220346
288.0,-0.00015837475075386465
320.0,0.0003108530945610255
352.0,0.0007360719027929008
384.0,0.0002772716397885233
416.0,0.0006336547085084021
448.0,0.001458990853279829
480.0,0.0019648035522550344
512.0,0.001157911028712988
576.0,-0.001097438856959343
640.0,-0.0020061901304870844
704.0,-0.00011868205911014229
768.0,0.0002802100498229265
832.0,0.001269690808840096
896.0,0.0006850610952824354
960.0,-0.0002495473308954388
1024.0,-0.0014459062367677689
1152.0,-0.0013060817727819085
1280.0,-0.0004486785037443042
1408.0,-0.00016330680227838457
1536.0,-0.0002918851387221366
1664.0,0.0010930993594229221
1792.0,5.493194476002827e-05
1920.0,0.00035411567660048604
2048.0,-0.00011355420429026708
2304.0,-0.0008072243654169142
2560.0,-0.0007136298227123916
2816.0,0.00040859950240701437
3072.0,0.0005626020138151944
3328.0,0.0012676676269620657
3584.0,0.00025666324654594064
3840.0,-5.972923099761829e-05
4096.0,-0.0001561175158713013
4608.0,-0.0005958568071946502
5120.0,0.00015932010137476027
5632.0,-0.0005862909602001309
6144.0,0.0006254950421862304
6656.0,0.00038051969022490084
7168.0,-0.0012189476983621716
7680.0,-0.0004891298012807965
8192.0,-0.00026617589173838496
9216.0,-0.00021502563322428614
10240.0,-0.0005416819476522505
11264.0,0.0008608702337369323
12288.0,-0.0007169488235376775
13312.0,0.0006060647428967059
14336.0,-0.0012198174372315407
end
