version,3.0
numOfCh,1
type,point
parent_name,200-cuts
ch_type,1_1
kcount,1
numberNandB,1
brightnessNandB,1
carpet pos,0
pc,0
Time (ms),CH1 Auto-Correlation
1.0,0.03798708692193031
2.0,0.03701742738485336
3.0,0.03609735146164894
4.0,0.03521697595715523
5.0,0.03436657786369324
6.0,0.033535271883010864
7.0,0.03273720294237137
8.0,0.03196334466338158
9.0,0.03122618794441223
10.0,0.030508102849125862
11.0,0.02982356585562229
12.0,0.02914789319038391
13.0,0.02849755249917507
14.0,0.027857379987835884
15.0,0.027213439345359802
16.0,0.026597794145345688
18.0,0.02546835131943226
20.0,0.024414604529738426
22.0,0.02342454344034195
24.0,0.022446997463703156
26.0,0.02147824317216873
28.0,0.020524539053440094
30.0,0.01961606927216053
32.0,0.01874662935733795
36.0,0.01713487133383751
40.0,0.01558619737625122
44.0,0.014164481312036514
48.0,0.012843959964811802
52.0,0.01174673717468977
56.0,0.010754099115729332
60.0,0.009832113981246948
64.0,0.008962688967585564
72.0,0.007300926372408867
80.0,0.005905287805944681
88.0,0.00483383983373642
96.0,0.0040600476786494255
104.0,0.003355862572789192
112.0,0.0033595876302570105
120.0,0.00363343209028244
128.0,0.0036054160445928574
144.0,0.0028268923051655293
160.0,0.0021574879065155983
176.0,0.001659409492276609
192.0,0.001689344528131187
208.0,0.0011895509669557214
224.0,0.0012739661615341902
240.0,0.0016353372484445572
256.0,0.0012829877668991685
288.0,2.468839375069365e-05
320.0,7.041493518045172e-05
352.0,0.0002995958202518523
384.0,1.0771690540423151e-05
416.0,-0.00046033100807107985
448.0,-0.002054297598078847
480.0,-0.003399768378585577
512.0,-0.003882042597979307
576.0,-0.0039014059584587812
640.0,-0.0033280705101788044
704.0,-0.002162039279937744
768.0,-0.0012271050363779068
832.0,-0.00016523778322152793
896.0,0.001293404959142208
960.0,0.0018421662971377373
1024.0,-0.0003136582672595978
1152.0,0.0010202191770076752
1280.0,0.00043749535689130425
1408.0,0.0004318813153076917
1536.0,-0.003433127887547016
1664.0,-0.0012671229196712375
1792.0,-0.0009082597680389881
1920.0,0.0011308054672554135
2048.0,0.0009840542916208506
2304.0,0.000273002777248621
2560.0,0.0009921069722622633
2816.0,0.0014719284372404218
3072.0,-0.003118291264399886
3328.0,-0.0023081274703145027
3584.0,0.0004813155101146549
3840.0,0.0006855606916360557
4096.0,-0.0007434640428982675
4608.0,0.0007989639416337013
5120.0,1.9769000573433004e-05
5632.0,-0.00020215578842908144
6144.0,-0.0015923728933557868
6656.0,0.0020749077666550875
7168.0,-0.0008015856146812439
7680.0,0.0010840115137398243
8192.0,-0.0022564169485121965
9216.0,-0.0003096001746598631
10240.0,-0.0011513461358845234
11264.0,-0.0011782990768551826
12288.0,-9.021016012411565e-05
13312.0,0.0007566730491816998
14336.0,0.0013489312259480357
end
