version,3.0
numOfCh,1
type,point
parent_name,200-cuts
ch_type,1_1
kcount,1
numberNandB,1
brightnessNandB,1
carpet pos,0
pc,0
Time (ms),CH1 Auto-Correlation
1.0,0.06180150434374809
2.0,0.05970221385359764
3.0,0.05769423767924309
4.0,0.05575370788574219
5.0,0.053906094282865524
6.0,0.05213345214724541
7.0,0.0503840446472168
8.0,0.04869347810745239
9.0,0.047104135155677795
10.0,0.04562901332974434
11.0,0.044206585735082626
12.0,0.042798835784196854
13.0,0.04148886725306511
14.0,0.04018311947584152
15.0,0.03893464058637619
16.0,0.03775065764784813
18.0,0.03552193567156792
20.0,0.033534880727529526
22.0,0.03171933814883232
24.0,0.030012229457497597
26.0,0.028410473838448524
28.0,0.02688535302877426
30.0,0.025424109771847725
32.0,0.024008745327591896
36.0,0.02142488583922386
40.0,0.019103743135929108
44.0,0.016990669071674347
48.0,0.015162523835897446
52.0,0.013257734477519989
56.0,0.011390512809157372
60.0,0.009865202009677887
64.0,0.00825105607509613
72.0,0.005375151056796312
80.0,0.00314893014729023
88.0,0.0016003153286874294
96.0,0.0009963433258235455
104.0,0.0005449479212984443
112.0,0.00015784113202244043
120.0,0.0003373887448105961
128.0,0.0003553181595634669
144.0,0.0006054744007997215
160.0,0.001195630058646202
176.0,-0.0004145025450270623
192.0,-0.0017632789677008986
208.0,-0.0024140833411365747
224.0,-0.0030705442186444998
240.0,-0.0027518360875546932
256.0,-0.001849532127380371
288.0,0.0004276830586604774
320.0,-6.044779365765862e-05
352.0,-0.0004403149359859526
384.0,-6.942193431314081e-05
416.0,0.0016855053836479783
448.0,0.0014469597954303026
480.0,2.4085853510769084e-05
512.0,-0.00207298225723207
576.0,0.0010743741877377033
640.0,9.392361243953928e-05
704.0,-0.0018925595795735717
768.0,-0.0019269096665084362
832.0,-0.000748772406950593
896.0,0.001310895080678165
960.0,-0.00366569054313004
1024.0,-0.00394858792424202
1152.0,0.0037555082235485315
1280.0,0.002592761069536209
1408.0,-0.002969293622300029
1536.0,-0.0020346043165773153
1664.0,0.0015341711696237326
1792.0,0.002020896878093481
1920.0,-0.002321207197383046
2048.0,0.0009621179196983576
2304.0,-0.00046683501568622887
2560.0,-0.0024898583069443703
2816.0,-0.002741329837590456
3072.0,0.001791304093785584
3328.0,0.00094413390615955
3584.0,-0.0015438060509040952
3840.0,0.0006768497987650335
4096.0,-0.0011442493414506316
4608.0,-0.001436457154341042
5120.0,0.0022008733358234167
5632.0,0.0010922352084890008
6144.0,0.0001851053675636649
6656.0,0.001491097966209054
7168.0,0.0011927805608138442
7680.0,-0.0030016221571713686
8192.0,-8.349497511517256e-05
9216.0,-0.001092541846446693
10240.0,-0.000991608714684844
11264.0,0.0010439414763823152
12288.0,-0.001529230736196041
13312.0,0.0014266660436987877
14336.0,-0.0004638377286028117
end
