version,3.0
numOfCh,1
type,point
parent_name,200-cuts
ch_type,1_1
kcount,1
numberNandB,1
brightnessNandB,1
carpet pos,0
pc,0
Time (ms),CH1 Auto-Correlation
1.0,0.0752955973148346
2.0,0.07319968938827515
3.0,0.07120797783136368
4.0,0.06928341090679169
5.0,0.06739740818738937
6.0,0.06564237922430038
7.0,0.06390972435474396
8.0,0.062232498079538345
9.0,0.06058872491121292
10.0,0.05905072018504143
11.0,0.057559285312891006
12.0,0.056139614433050156
13.0,0.05476486310362816
14.0,0.05342185124754906
15.0,0.05210275948047638
16.0,0.05079800635576248
18.0,0.048394303768873215
20.0,0.04610094428062439
22.0,0.04399877041578293
24.0,0.041919972747564316
26.0,0.039906878024339676
28.0,0.03797989711165428
30.0,0.03613516315817833
32.0,0.0345059372484684
36.0,0.0316198393702507
40.0,0.02883990667760372
44.0,0.02632424421608448
48.0,0.02412186749279499
52.0,0.022037703543901443
56.0,0.020331451669335365
60.0,0.01899394392967224
64.0,0.017714645713567734
72.0,0.01517956517636776
80.0,0.012877676635980606
88.0,0.010989977046847343
96.0,0.010219695046544075
104.0,0.009572149254381657
112.0,0.008706395514309406
120.0,0.008383538573980331
128.0,0.008414572104811668
144.0,0.0073883868753910065
160.0,0.0068190149031579494
176.0,0.008496950380504131
192.0,0.009349800646305084
208.0,0.00861738808453083
224.0,0.0066673303954303265
240.0,0.004956723656505346
256.0,0.004190738312900066
288.0,0.004421498626470566
320.0,0.0017068819142878056
352.0,0.00019740135758183897
384.0,0.0009275824995711446
416.0,0.0017596425022929907
448.0,0.0026053357869386673
480.0,0.0012029256904497743
512.0,-0.0011521403212100267
576.0,-0.0037865140475332737
640.0,-0.0018211621791124344
704.0,0.0007737628766335547
768.0,-0.000682419165968895
832.0,-0.0019632691983133554
896.0,-0.0017212264938279986
960.0,-0.0036053177900612354
1024.0,-0.004261981230229139
1152.0,-0.0012969038216397166
1280.0,-0.007036025635898113
1408.0,-0.0014183915918692946
1536.0,-0.004197112750262022
1664.0,-0.006946967914700508
1792.0,-0.0011727371020242572
1920.0,-0.0011454367777332664
2048.0,-0.002074246061965823
2304.0,-0.0006840561982244253
2560.0,0.0016864236677065492
2816.0,0.0011914758943021297
3072.0,-0.00034391964436508715
3328.0,-0.002185840392485261
3584.0,0.0018115228740498424
3840.0,0.00356831937097013
4096.0,-0.000550503667909652
4608.0,0.00236125523224473
5120.0,-0.0014807421248406172
5632.0,-0.005764144938439131
6144.0,0.002159286057576537
6656.0,-2.9254024411784485e-06
7168.0,0.0004976311465725303
7680.0,0.002387218875810504
8192.0,-0.00026237877318635583
9216.0,-0.003299527568742633
10240.0,-0.002268921583890915
11264.0,0.006892780307680368
12288.0,-0.0033177987206727266
13312.0,-0.01057908870279789
14336.0,0.0011692007537931204
end
