version,3.0
numOfCh,1
type,point
parent_name,200-cuts
ch_type,1_1
kcount,1
numberNandB,1
brightnessNandB,1
carpet pos,0
pc,0
Time (ms),CH1 Auto-Correlation
1.0,0.0709897130727768
2.0,0.0688885897397995
3.0,0.0669352263212204
4.0,0.06502825021743774
5.0,0.0631878599524498
6.0,0.06144522503018379
7.0,0.05973117798566818
8.0,0.05809016525745392
9.0,0.05647847428917885
10.0,0.05493934080004692
11.0,0.05348685383796692
12.0,0.052086617797613144
13.0,0.050706058740615845
14.0,0.049436137080192566
15.0,0.04821108281612396
16.0,0.04705435410141945
18.0,0.04475013166666031
20.0,0.04262227565050125
22.0,0.040555357933044434
24.0,0.038631003350019455
26.0,0.03670487552881241
28.0,0.03488164395093918
30.0,0.03314177319407463
32.0,0.03151494264602661
36.0,0.028686732053756714
40.0,0.025864923372864723
44.0,0.02340656705200672
48.0,0.02107786014676094
52.0,0.01897088624536991
56.0,0.017055081203579903
60.0,0.015159675851464272
64.0,0.013284184038639069
72.0,0.009521127678453922
80.0,0.006458545569330454
88.0,0.004099335987120867
96.0,0.0020166237372905016
104.0,0.0006132391281425953
112.0,-0.0006718701333738863
120.0,-0.0013240244006738067
128.0,-0.00211144401691854
144.0,-0.0018303411779925227
160.0,-0.0011714886641129851
176.0,-0.0006060331361368299
192.0,-0.0015151726547628641
208.0,-0.0022939075715839863
224.0,-0.0028855297714471817
240.0,-0.0036166857462376356
256.0,-0.004794189240783453
288.0,-0.006629802752286196
320.0,-0.0061545888893306255
352.0,-0.006245212163776159
384.0,-0.0052523366175591946
416.0,-0.0027844831347465515
448.0,3.082806506427005e-05
480.0,0.0008860192610882223
512.0,0.0040228646248579025
576.0,0.006406776607036591
640.0,0.0010742555605247617
704.0,-0.004248339682817459
768.0,-0.007011067122220993
832.0,-0.006391775794327259
896.0,-0.004360828083008528
960.0,-0.0016839150339365005
1024.0,0.0018693195888772607
1152.0,0.004736026749014854
1280.0,-0.0015460960566997528
1408.0,-0.0008443945553153753
1536.0,0.0019391542300581932
1664.0,0.0035366176161915064
1792.0,0.0017418023198843002
1920.0,-0.0011842094827443361
2048.0,-0.0007807235233485699
2304.0,-0.0007176513900049031
2560.0,-0.00018428523617330939
2816.0,-0.001893246895633638
3072.0,0.0001626159209990874
3328.0,0.0014280009781941772
3584.0,-0.000336953264195472
3840.0,-0.002407415071502328
4096.0,-0.0009162634378299117
4608.0,0.0002109978668158874
5120.0,-0.00039618596201762557
5632.0,-0.00148902484215796
6144.0,0.0004395565192680806
6656.0,4.850692221225472e-06
7168.0,-0.0033701711799949408
7680.0,0.0013743527233600616
8192.0,0.0015501631423830986
9216.0,-0.0008230203529819846
10240.0,-0.00039557661511935294
11264.0,-0.001917781075462699
12288.0,-7.215085497591645e-05
13312.0,0.001020300667732954
14336.0,0.0005414342740550637
end
