version,3.0
numOfCh,1
type,point
parent_name,200-cuts
ch_type,1_1
kcount,1
numberNandB,1
brightnessNandB,1
carpet pos,0
pc,0
Time (ms),CH1 Auto-Correlation
1.0,0.03659333288669586
2.0,0.035615015774965286
3.0,0.03470110520720482
4.0,0.03383477404713631
5.0,0.03299012780189514
6.0,0.03216966986656189
7.0,0.031374771147966385
8.0,0.030643220990896225
9.0,0.029923856258392334
10.0,0.029200786724686623
11.0,0.028495628386735916
12.0,0.02781747654080391
13.0,0.02717873640358448
14.0,0.02656644582748413
15.0,0.02597414329648018
16.0,0.025421718135476112
18.0,0.024315297603607178
20.0,0.02323864959180355
22.0,0.022167520597577095
24.0,0.021191159263253212
26.0,0.020300285890698433
28.0,0.019460394978523254
30.0,0.01861942745745182
32.0,0.017769834026694298
36.0,0.01612456701695919
40.0,0.014663753099739552
44.0,0.013353456743061543
48.0,0.012247921898961067
52.0,0.011381534859538078
56.0,0.010649154894053936
60.0,0.00995220709592104
64.0,0.009332648478448391
72.0,0.00820388738065958
80.0,0.0071283867582678795
88.0,0.006258262321352959
96.0,0.005378924775868654
104.0,0.004429077263921499
112.0,0.0036021932028234005
120.0,0.002974124625325203
128.0,0.0021772151812911034
144.0,0.0005059698596596718
160.0,-0.0005003447295166552
176.0,-0.00058068084763363
192.0,-0.00015169299149420112
208.0,-0.00022884414647705853
224.0,-0.0006686149281449616
240.0,-0.001145286369137466
256.0,-0.0012308493023738265
288.0,0.0001527559506939724
320.0,-0.00016586009587626904
352.0,-0.0024101343005895615
384.0,-0.003654211526736617
416.0,-0.004168263636529446
448.0,-0.003977347165346146
480.0,-0.0030257455073297024
512.0,-0.0020959777757525444
576.0,5.6134045735234395e-05
640.0,0.0008096281089819968
704.0,0.00013044424122199416
768.0,1.0344921065552626e-05
832.0,0.0024225956294685602
896.0,0.0009581258636899292
960.0,0.0009040834847837687
1024.0,-0.0027160898316651583
1152.0,-0.0031024394556879997
1280.0,-0.0003600826021283865
1408.0,0.0021377585362643003
1536.0,-0.0005001882673241198
1664.0,-0.0028102232608944178
1792.0,-0.0013841578038409352
1920.0,-0.000733440276235342
2048.0,0.0019782152958214283
2304.0,0.002103758743032813
2560.0,0.00019822968170046806
2816.0,0.00012871627404820174
3072.0,-0.002761665266007185
3328.0,-0.0009085954516194761
3584.0,-0.0011197223793715239
3840.0,-0.0002690470719244331
4096.0,0.003990093246102333
4608.0,-0.0014095068909227848
5120.0,0.0009918368887156248
5632.0,-0.0024035368114709854
6144.0,0.002698672004044056
6656.0,0.0005300758057273924
7168.0,-0.0022015105932950974
7680.0,-0.00023587224131915718
8192.0,0.000445478071924299
9216.0,-0.0015439693816006184
10240.0,0.0022539447527378798
11264.0,0.00013444894284475595
12288.0,-0.0002538240805733949
13312.0,-0.0023346038069576025
14336.0,0.00026709798839874566
end
