version,3.0
numOfCh,1
type,point
parent_name,200-cuts
ch_type,1_1
kcount,1
numberNandB,1
brightnessNandB,1
carpet pos,0
pc,0
Time (ms),CH1 Auto-Correlation
1.0,0.022727468982338905
2.0,0.022078586742281914
3.0,0.021450266242027283
4.0,0.020850656554102898
5.0,0.02027193270623684
6.0,0.01972014270722866
7.0,0.019184542819857597
8.0,0.01867072656750679
9.0,0.01816805824637413
10.0,0.01768316701054573
11.0,0.017205864191055298
12.0,0.01676584780216217
13.0,0.016330072656273842
14.0,0.01591150462627411
15.0,0.015512936748564243
16.0,0.015125734731554985
18.0,0.014355960302054882
20.0,0.013612081296741962
22.0,0.012921338900923729
24.0,0.012288396246731281
26.0,0.011661961674690247
28.0,0.011066136881709099
30.0,0.010522155091166496
32.0,0.010025071911513805
36.0,0.009094884619116783
40.0,0.00820041261613369
44.0,0.00735103664919734
48.0,0.006645732093602419
52.0,0.006011649500578642
56.0,0.005448109935969114
60.0,0.004920512437820435
64.0,0.004434088245034218
72.0,0.003699163906276226
80.0,0.0031591281294822693
88.0,0.0027734325267374516
96.0,0.00244491477496922
104.0,0.0021932099480181932
112.0,0.002051099669188261
120.0,0.0019107820698991418
128.0,0.0019212719053030014
144.0,0.0019446499645709991
160.0,0.002001103013753891
176.0,0.0016392746474593878
192.0,0.0009130844846367836
208.0,-8.823813004710246e-06
224.0,-0.0003247349231969565
240.0,-0.00019436105503700674
256.0,0.00020763611246366054
288.0,0.001109068631194532
320.0,0.0008140379213728011
352.0,-0.0015482399612665176
384.0,-0.0030231040436774492
416.0,-0.0023751503322273493
448.0,-0.0014078255044296384
480.0,-0.0011280790204182267
512.0,-0.0012350399047136307
576.0,-0.0004223732103127986
640.0,-0.0007507718983106315
704.0,-0.00205745967105031
768.0,-0.0011375162284821272
832.0,-0.0013422538759186864
896.0,-0.0009955374989658594
960.0,-0.001667100703343749
1024.0,-0.00031548485276289284
1152.0,0.0020750011317431927
1280.0,0.001106519135646522
1408.0,-0.00011546364839887246
1536.0,-0.0012561653275042772
1664.0,-0.00012749947200063616
1792.0,-0.00021036906400695443
1920.0,-0.0015440856805071235
2048.0,-0.001110598910599947
2304.0,-0.0007873942377045751
2560.0,-0.0003221197403036058
2816.0,0.0008455573697574437
3072.0,5.573854286922142e-05
3328.0,-0.0017339963233098388
3584.0,-0.0012878209818154573
3840.0,0.0003601640637498349
4096.0,0.002682305406779051
4608.0,0.0007456272724084556
5120.0,-7.523928070440888e-05
5632.0,-0.00010897385072894394
6144.0,-0.0010685642482712865
6656.0,-0.0004274995008017868
7168.0,0.000938842655159533
7680.0,-0.0006595218437723815
8192.0,0.0007559514488093555
9216.0,0.0006611280841752887
10240.0,-0.0014527362072840333
11264.0,-7.019958138698712e-05
12288.0,0.0008756661554798484
13312.0,0.0003815155359916389
14336.0,-0.0006727165309712291
end
