version,3.0
numOfCh,1
type,point
parent_name,200-cuts
ch_type,1_1
kcount,1
numberNandB,1
brightnessNandB,1
carpet pos,0
pc,0
Time (ms),CH1 Auto-Correlation
1.0,0.018737932667136192
2.0,0.018116047605872154
3.0,0.017517272382974625
4.0,0.016926979646086693
5.0,0.01636420376598835
6.0,0.015815401449799538
7.0,0.01527784951031208
8.0,0.014768215827643871
9.0,0.014299535192549229
10.0,0.013860625214874744
11.0,0.013439231552183628
12.0,0.013038339093327522
13.0,0.01264534704387188
14.0,0.012268728576600552
15.0,0.01190931536257267
16.0,0.011561048217117786
18.0,0.010897986590862274
20.0,0.01025695912539959
22.0,0.009634771384298801
24.0,0.00905516929924488
26.0,0.008507343009114265
28.0,0.007966319099068642
30.0,0.007491670083254576
32.0,0.007072751875966787
36.0,0.0063054608181118965
40.0,0.005618292838335037
44.0,0.00503175426274538
48.0,0.004484317731112242
52.0,0.004023526329547167
56.0,0.003684914903715253
60.0,0.003407789161428809
64.0,0.0032005920074880123
72.0,0.002935349475592375
80.0,0.002496236003935337
88.0,0.0021474543027579784
96.0,0.00195444212295115
104.0,0.0015744745032861829
112.0,0.0012221838114783168
120.0,0.0009340645046904683
128.0,0.0008236912544816732
144.0,0.001019253279082477
160.0,0.0011231540702283382
176.0,0.0007768029463477433
192.0,0.0006777559174224734
208.0,0.0007185871945694089
224.0,0.000836552120745182
240.0,0.0003112806589342654
256.0,-3.7787405744893476e-05
288.0,6.7892087827203795e-06
320.0,-0.00018783511768560857
352.0,-0.0005013820482417941
384.0,-0.0007778847357258201
416.0,-0.0012706160778179765
448.0,-0.0007420991896651685
480.0,-0.0009512922842986882
512.0,-0.001046483521349728
576.0,-0.00120999023783952
640.0,-0.001400665962137282
704.0,-0.0018939785659313202
768.0,-0.0006478311261162162
832.0,-0.0003846196923404932
896.0,9.503658475296106e-06
960.0,0.00014979514526203275
1024.0,9.210746793542057e-05
1152.0,0.0019047445384785533
1280.0,0.0002396038471488282
1408.0,2.8436055799829774e-05
1536.0,0.000166687008459121
1664.0,0.00022746046306565404
1792.0,-6.219160422915593e-05
1920.0,-0.0006991209811531007
2048.0,-0.00022334905224852264
2304.0,0.0003242880629841238
2560.0,0.00024236908939201385
2816.0,-0.00023947715817485005
3072.0,-0.0004198527312837541
3328.0,0.000501296017318964
3584.0,-0.00043189473217353225
3840.0,-0.00035846803802996874
4096.0,-0.00010242763528367504
4608.0,-3.834844392258674e-05
5120.0,-0.0003592437133193016
5632.0,-0.0004529067955445498
6144.0,0.00033724718377925456
6656.0,-0.0009006765321828425
7168.0,-0.00031783615122549236
7680.0,-0.0005919887917116284
8192.0,-0.0001596140064066276
9216.0,-0.00020533982024062425
10240.0,0.0003944088821299374
11264.0,-0.00025192659813910723
12288.0,1.9898900518455775e-06
13312.0,7.522717351093888e-05
14336.0,0.0009718012297526002
end
