version,3.0
numOfCh,1
type,point
parent_name,200-cuts
ch_type,1_1
kcount,1
numberNandB,1
brightnessNandB,1
carpet pos,0
pc,0
Time (ms),CH1 Auto-Correlation
1.0,0.06641744077205658
2.0,0.0644560307264328
3.0,0.06260204315185547
4.0,0.060849349945783615
5.0,0.05915387347340584
6.0,0.05749711021780968
7.0,0.05590791255235672
8.0,0.05441143736243248
9.0,0.05298680439591408
10.0,0.051638443022966385
11.0,0.05028761178255081
12.0,0.04902463033795357
13.0,0.047806039452552795
14.0,0.04662036523222923
15.0,0.045461516827344894
16.0,0.04434258118271828
18.0,0.04208352789282799
20.0,0.039886631071567535
22.0,0.037857044488191605
24.0,0.0358465202152729
26.0,0.033970121294260025
28.0,0.03223293647170067
30.0,0.03071565181016922
32.0,0.029253121465444565
36.0,0.026560857892036438
40.0,0.024222098290920258
44.0,0.022110607475042343
48.0,0.02036304399371147
52.0,0.01880284957587719
56.0,0.017441097646951675
60.0,0.016220130026340485
64.0,0.015271907672286034
72.0,0.013766005635261536
80.0,0.012177396565675735
88.0,0.010963086038827896
96.0,0.009734735824167728
104.0,0.008179902099072933
112.0,0.006629283539950848
120.0,0.0056128413416445255
128.0,0.004544643685221672
144.0,0.0036186175420880318
160.0,0.00230606272816658
176.0,0.0015740016242489219
192.0,0.0012892622034996748
208.0,0.0020688322838395834
224.0,0.001654850086197257
240.0,0.0008430201560258865
256.0,0.0011743062641471624
288.0,0.001749331713654101
320.0,0.0028247374575585127
352.0,0.003339026588946581
384.0,0.004096848424524069
416.0,0.001795140909962356
448.0,0.0014357439940795302
480.0,0.0024266743566840887
512.0,-0.00022811365488450974
576.0,-0.0028257500380277634
640.0,-0.0005360802751965821
704.0,0.001859349082224071
768.0,0.002760821720585227
832.0,0.0019873399287462234
896.0,0.0002836132771335542
960.0,-0.0008887076983228326
1024.0,0.003414302133023739
1152.0,0.0003875046386383474
1280.0,-0.0017431668238714337
1408.0,-0.002725382801145315
1536.0,-0.0024889083579182625
1664.0,-0.002011809265241027
1792.0,-0.0023770283441990614
1920.0,-0.0016940627247095108
2048.0,-0.0029894616454839706
2304.0,-0.00047365284990519285
2560.0,0.003255929099395871
2816.0,-0.0015076324343681335
3072.0,-0.0025236872024834156
3328.0,-0.0009225430549122393
3584.0,0.0007922270451672375
3840.0,-0.0021449753548949957
4096.0,-0.006060263607650995
4608.0,-0.0016050311969593167
5120.0,-0.003985731862485409
5632.0,0.0016646974254399538
6144.0,-0.0013186940923333168
6656.0,5.204931949265301e-05
7168.0,0.004403507336974144
7680.0,9.221380605595186e-05
8192.0,0.0036935191601514816
9216.0,-0.0011474237544462085
10240.0,0.0034291527699679136
11264.0,-0.00243764859624207
12288.0,-0.0033297629561275244
13312.0,0.0027840975672006607
14336.0,-0.0018228896660730243
end
