version,3.0
numOfCh,1
type,point
parent_name,200-cuts
ch_type,1_1
kcount,1
numberNandB,1
brightnessNandB,1
carpet pos,0
pc,0
Time (ms),CH1 Auto-Correlation
1.0,0.019511299207806587
2.0,0.018948588520288467
3.0,0.01839565671980381
4.0,0.01787831261754036
5.0,0.01739070564508438
6.0,0.016932358965277672
7.0,0.01650054380297661
8.0,0.016077080741524696
9.0,0.015662353485822678
10.0,0.015242291614413261
11.0,0.014823445118963718
12.0,0.014408380724489689
13.0,0.014005778357386589
14.0,0.013627484440803528
15.0,0.013256971724331379
16.0,0.012892493978142738
18.0,0.012249380350112915
20.0,0.011660424061119556
22.0,0.011129246093332767
24.0,0.010628491640090942
26.0,0.010175210423767567
28.0,0.00972108542919159
30.0,0.009266361594200134
32.0,0.008797677233815193
36.0,0.007915946654975414
40.0,0.007108172867447138
44.0,0.006316663231700659
48.0,0.005541455931961536
52.0,0.004792948253452778
56.0,0.004097901284694672
60.0,0.0035195364616811275
64.0,0.002968892687931657
72.0,0.0019763638265430927
80.0,0.00132804608438164
88.0,0.0007567752036266029
96.0,0.0003843233280349523
104.0,0.0001794495474314317
112.0,3.428256241022609e-05
120.0,-1.2627477190108038e-05
128.0,-8.65720139699988e-05
144.0,-0.0003940907772630453
160.0,-0.000861451611854136
176.0,-0.0011929506435990334
192.0,-0.0016214166535064578
208.0,-0.001664458541199565
224.0,-0.0012648946139961481
240.0,-0.0008250742102973163
256.0,-0.00031017736182548106
288.0,-0.00033427044400013983
320.0,-0.0003547291271388531
352.0,-0.00012766948202624917
384.0,0.00035899889189749956
416.0,-0.0001325224875472486
448.0,-0.000757875619456172
480.0,-0.0007988360011950135
512.0,-0.000865673238877207
576.0,-0.0007070618448778987
640.0,-0.0002097195974783972
704.0,0.0005229945527389646
768.0,5.0824044592445716e-05
832.0,-3.531110269250348e-05
896.0,-0.00040661109960637987
960.0,-0.0007183720590546727
1024.0,-0.0007346792845055461
1152.0,-0.001444334862753749
1280.0,0.0007945917313918471
1408.0,0.0015070426743477583
1536.0,2.4806449800962582e-05
1664.0,-0.0013624628772959113
1792.0,-0.0007162097026593983
1920.0,-0.0002790330327115953
2048.0,-0.0004985037376172841
2304.0,-0.00016984110698103905
2560.0,0.0002655548451002687
2816.0,0.0001423635403625667
3072.0,0.00028121002833358943
3328.0,-0.0004742443561553955
3584.0,-0.0007472186116501689
3840.0,0.0005398622015491128
4096.0,0.0003402827132958919
4608.0,-0.00037557518226094544
5120.0,8.560091373510659e-05
5632.0,-3.251169255236164e-05
6144.0,-1.480562877986813e-05
6656.0,0.0003254554176237434
7168.0,9.928676445269957e-05
7680.0,7.776205893605947e-05
8192.0,-0.0002936155942734331
9216.0,0.0003522918850649148
10240.0,0.00014381931396201253
11264.0,-0.0003916481218766421
12288.0,0.00038278748979792
13312.0,-0.000663965824060142
14336.0,0.0005434579215943813
end
