version,3.0
numOfCh,1
type,point
parent_name,200-cuts
ch_type,1_1
kcount,1
numberNandB,1
brightnessNandB,1
carpet pos,0
pc,0
Time (ms),CH1 Auto-Correlation
1.0,0.025075115263462067
2.0,0.024415450170636177
3.0,0.02379171922802925
4.0,0.02319595217704773
5.0,0.02262597531080246
6.0,0.022056151181459427
7.0,0.021496567875146866
8.0,0.02093898318707943
9.0,0.02040349692106247
10.0,0.019889922812581062
11.0,0.019385268911719322
12.0,0.018892880529165268
13.0,0.01842934638261795
14.0,0.01799328811466694
15.0,0.017558401450514793
16.0,0.01712791807949543
18.0,0.016308732330799103
20.0,0.015528508462011814
22.0,0.014829217456281185
24.0,0.014164917171001434
26.0,0.01352398470044136
28.0,0.012911402620375156
30.0,0.01230878010392189
32.0,0.01172388345003128
36.0,0.01064580213278532
40.0,0.009724286384880543
44.0,0.008973166346549988
48.0,0.008264346979558468
52.0,0.007619501557201147
56.0,0.007025155238807201
60.0,0.0065193092450499535
64.0,0.0060595800168812275
72.0,0.005508554168045521
80.0,0.0050619314424693584
88.0,0.004424690268933773
96.0,0.0039209951646625996
104.0,0.0035831485874950886
112.0,0.003011452266946435
120.0,0.0024674679152667522
128.0,0.002214708598330617
144.0,0.0015115940477699041
160.0,0.000321323168464005
176.0,-0.00032732877298258245
192.0,-0.0004285456379875541
208.0,-0.00033129900111816823
224.0,-0.00017733132699504495
240.0,-0.00017259416927117854
256.0,7.07933068042621e-05
288.0,-0.00039169081719592214
320.0,-0.000717600341886282
352.0,-0.001235873089171946
384.0,-0.001740136998705566
416.0,-0.0014955014921724796
448.0,-0.0009694896871224046
480.0,-0.0011112104402855039
512.0,-0.0017720779869705439
576.0,-0.000584967143367976
640.0,-0.0007829373935237527
704.0,7.72884304751642e-05
768.0,-0.0001076692933565937
832.0,0.0001910087012220174
896.0,0.0010449313558638096
960.0,0.001127159222960472
1024.0,0.0017015301855280995
1152.0,0.0015076816780492663
1280.0,-0.0007549277506768703
1408.0,-0.0003853517700918019
1536.0,-0.0016668338794261217
1664.0,-0.0005128731718286872
1792.0,-4.588495721691288e-05
1920.0,-0.00172778544947505
2048.0,-0.0005707826348952949
2304.0,-0.000391361303627491
2560.0,0.0017014556797221303
2816.0,-0.00015035056276246905
3072.0,-0.0008815294713713229
3328.0,-0.0003807942848652601
3584.0,0.0016352829989045858
3840.0,0.0027317579369992018
4096.0,-0.0018400416010990739
4608.0,-0.00038412396679632366
5120.0,-0.0007710366626270115
5632.0,-0.0011574621312320232
6144.0,0.0008388778078369796
6656.0,-0.0009095180430449545
7168.0,0.0008139301789924502
7680.0,-0.0014851918676868081
8192.0,-0.00016703100118320435
9216.0,7.093324529705569e-05
10240.0,-0.0004999570664949715
11264.0,0.0005923649296164513
12288.0,0.0016596304485574365
13312.0,0.00029153708601370454
14336.0,-0.0009539254242554307
end
