version,3.0
numOfCh,1
type,point
parent_name,200-cuts
ch_type,1_1
kcount,1
numberNandB,1
brightnessNandB,1
carpet pos,0
pc,0
Time (ms),CH1 Auto-Correlation
1.0,0.06349454075098038
2.0,0.061564985662698746
3.0,0.05977313220500946
4.0,0.05803366005420685
5.0,0.056340206414461136
6.0,0.054728373885154724
7.0,0.053158633410930634
8.0,0.05166320502758026
9.0,0.0502299927175045
10.0,0.048870597034692764
11.0,0.04755138233304024
12.0,0.04622875154018402
13.0,0.04494602233171463
14.0,0.043718673288822174
15.0,0.042527370154857635
16.0,0.0413082130253315
18.0,0.039127543568611145
20.0,0.03710154443979263
22.0,0.03527149558067322
24.0,0.0335797481238842
26.0,0.03199126943945885
28.0,0.030491694808006287
30.0,0.02913213148713112
32.0,0.027651416137814522
36.0,0.025029441341757774
40.0,0.022796379402279854
44.0,0.021033667027950287
48.0,0.019623544067144394
52.0,0.018268203362822533
56.0,0.017104201018810272
60.0,0.016032638028264046
64.0,0.014931807294487953
72.0,0.012745530344545841
80.0,0.010501144453883171
88.0,0.008662842214107513
96.0,0.0066851177252829075
104.0,0.005235812161117792
112.0,0.004290793556720018
120.0,0.003473075572401285
128.0,0.0026374764274805784
144.0,0.002660358091816306
160.0,0.0023123878054320812
176.0,0.0017544296570122242
192.0,0.0006024781614542007
208.0,-0.00029565722797997296
224.0,-0.0011286491062492132
240.0,-0.001694010803475976
256.0,-0.0018658307380974293
288.0,0.0025656684301793575
320.0,0.003778005950152874
352.0,0.0021350847091525793
384.0,0.002839641412720084
416.0,0.0035363140050321817
448.0,0.0013989406870678067
480.0,0.0018317350186407566
512.0,0.0001269075582968071
576.0,-0.0014203068567439914
640.0,-0.0024403221905231476
704.0,-0.0016849685925990343
768.0,0.0019864747300744057
832.0,0.0038803531788289547
896.0,0.0024588522501289845
960.0,0.0001824482751544565
1024.0,0.0018230656860396266
1152.0,0.003366658929735422
1280.0,-0.0013220201944932342
1408.0,-0.0005063588032498956
1536.0,-0.00035791093250736594
1664.0,-0.0016068300465121865
1792.0,-0.0006011378136463463
1920.0,0.0015233794692903757
2048.0,0.001028159400448203
2304.0,-0.0029629606287926435
2560.0,-0.001976549392566085
2816.0,-0.0015617605531588197
3072.0,-0.0028491236735135317
3328.0,-0.002242056652903557
3584.0,0.00037259419332258403
3840.0,0.0009283276740461588
4096.0,0.0006608775001950562
4608.0,0.0010852915002033114
5120.0,0.0006262706592679024
5632.0,0.0018935388652607799
6144.0,0.002547388430684805
6656.0,0.0001739644503686577
7168.0,-0.004164048470556736
7680.0,-0.0024892643559724092
8192.0,-0.0005352096632122993
9216.0,-0.002538340399041772
10240.0,-0.00040375691605731845
11264.0,-6.266486889217049e-05
12288.0,0.001960749737918377
13312.0,-0.005400016438215971
14336.0,0.006119063124060631
end
