version,3.0
numOfCh,1
type,point
parent_name,200-cuts
ch_type,1_1
kcount,1
numberNandB,1
brightnessNandB,1
carpet pos,0
pc,0
Time (ms),CH1 Auto-Correlation
1.0,0.018917638808488846
2.0,0.018292607739567757
3.0,0.01768197864294052
4.0,0.017092430964112282
5.0,0.016507619991898537
6.0,0.0159536711871624
7.0,0.01542433351278305
8.0,0.014912447892129421
9.0,0.014414533972740173
10.0,0.013949517160654068
11.0,0.013493143022060394
12.0,0.013053729198873043
13.0,0.01263756025582552
14.0,0.012227592058479786
15.0,0.0118353720754385
16.0,0.011472122743725777
18.0,0.010793816298246384
20.0,0.010169499553740025
22.0,0.009625405073165894
24.0,0.009108983911573887
26.0,0.008624276146292686
28.0,0.008182987570762634
30.0,0.0077774603851139545
32.0,0.007383419666439295
36.0,0.006644732318818569
40.0,0.005947671830654144
44.0,0.005258501507341862
48.0,0.00467273173853755
52.0,0.004173489287495613
56.0,0.0038623567670583725
60.0,0.0037330184131860733
64.0,0.003642235416918993
72.0,0.00335363345220685
80.0,0.002956951502710581
88.0,0.002760519040748477
96.0,0.002340391743928194
104.0,0.0017743381904438138
112.0,0.0010240462142974138
120.0,0.0003707006690092385
128.0,-7.598153024446219e-05
144.0,-0.0008056985680013895
160.0,-0.0010253231739625335
176.0,-0.0009834771044552326
192.0,-0.0012869922211393714
208.0,-0.0013052923604846
224.0,-0.0012983299093320966
240.0,-0.0012405553134158254
256.0,-0.001367916469462216
288.0,-0.0009846379980444908
320.0,-0.000535314145963639
352.0,-0.00017887697322294116
384.0,-9.001192665891722e-05
416.0,0.0005566154723055661
448.0,-0.00020279794989619404
480.0,-0.0008022872498258948
512.0,-0.0009978649904951453
576.0,-0.0014239840675145388
640.0,-0.0011030640453100204
704.0,-0.0005826097331009805
768.0,0.00011834869656013325
832.0,-0.000753540254663676
896.0,-0.0013763108290731907
960.0,-0.0008305094670504332
1024.0,-0.0006050728843547404
1152.0,0.0012165954103693366
1280.0,0.0007086650584824383
1408.0,0.0003208549169357866
1536.0,0.0002836071071214974
1664.0,0.0006590108969248831
1792.0,0.0008022782276384532
1920.0,0.0006932300166226923
2048.0,-0.0015862639993429184
2304.0,-6.774267967557535e-05
2560.0,0.0006402277504093945
2816.0,-0.0007016081362962723
3072.0,0.000645872438326478
3328.0,-0.000612119969446212
3584.0,0.00023893782054074109
3840.0,0.0003305283607915044
4096.0,-7.500234642066061e-05
4608.0,-0.0011078491806983948
5120.0,0.00042752415174618363
5632.0,0.00019748220802284777
6144.0,-0.0008207208593375981
6656.0,0.00047358343726955354
7168.0,-0.0004057540209032595
7680.0,-0.000301115564070642
8192.0,-2.292371391376946e-05
9216.0,0.00014497325173579156
10240.0,-0.00012253806926310062
11264.0,-0.0005574147799052298
12288.0,0.000718464667443186
13312.0,-0.0003214401367586106
14336.0,0.0008352731238119304
end
