version,3.0
numOfCh,1
type,point
parent_name,200-cuts
ch_type,1_1
kcount,1
numberNandB,1
brightnessNandB,1
carpet pos,0
pc,0
Time (ms),CH1 Auto-Correlation
1.0,0.030252398923039436
2.0,0.029347311705350876
3.0,0.028464438393712044
4.0,0.027631103992462158
5.0,0.02683182805776596
6.0,0.026064790785312653
7.0,0.02534729428589344
8.0,0.02466919645667076
9.0,0.024016033858060837
10.0,0.023397885262966156
11.0,0.02281222492456436
12.0,0.02227245457470417
13.0,0.02174266241490841
14.0,0.021236972883343697
15.0,0.020733395591378212
16.0,0.020224161446094513
18.0,0.019209396094083786
20.0,0.01821429841220379
22.0,0.017274316400289536
24.0,0.016477124765515327
26.0,0.015778154134750366
28.0,0.015167007222771645
30.0,0.014581154100596905
32.0,0.01403773669153452
36.0,0.01296164095401764
40.0,0.011979012750089169
44.0,0.011217530816793442
48.0,0.010563952848315239
52.0,0.009737632237374783
56.0,0.008914212696254253
60.0,0.00826127827167511
64.0,0.0076135252602398396
72.0,0.006474992260336876
80.0,0.00571374362334609
88.0,0.005247845780104399
96.0,0.004497511312365532
104.0,0.0038086888380348682
112.0,0.0034359456039965153
120.0,0.0032680868171155453
128.0,0.002889778697863221
144.0,0.00217489805072546
160.0,0.0011273077689111233
176.0,0.0007958970381878316
192.0,0.0009342931443825364
208.0,0.0015537496656179428
224.0,0.0017100507393479347
240.0,0.0018378694076091051
256.0,0.0018853723304346204
288.0,0.0015749356243759394
320.0,0.0025409404188394547
352.0,0.0035070686135441065
384.0,0.003309910884127021
416.0,0.0025687487795948982
448.0,0.002719907322898507
480.0,0.003311028704047203
512.0,0.0038998948875814676
576.0,0.0032805949449539185
640.0,0.0028481746558099985
704.0,-5.610403241007589e-05
768.0,-0.00019036493904422969
832.0,-0.0003589006664697081
896.0,0.0005166566115804017
960.0,-0.0006316376384347677
1024.0,-0.0002993984962813556
1152.0,-0.0003707787545863539
1280.0,0.00034264937858097255
1408.0,-0.0004001794441137463
1536.0,0.0023707328364253044
1664.0,0.0024703198578208685
1792.0,0.0008282389026135206
1920.0,0.0020261018071323633
2048.0,0.0017598307458683848
2304.0,0.0006874350947327912
2560.0,-0.0014883450930938125
2816.0,-0.0020884459372609854
3072.0,-0.002340003615245223
3328.0,-0.0017352803843095899
3584.0,-0.0005949486512690783
3840.0,-0.00042593281250447035
4096.0,-0.00040778020047582686
4608.0,-0.002726892940700054
5120.0,-0.0006748790619894862
5632.0,0.001567748375236988
6144.0,-1.147616876551183e-05
6656.0,-0.001121294917538762
7168.0,0.001417965511791408
7680.0,0.0013227964518591762
8192.0,-0.0014497278025373816
9216.0,-0.0011420201044529676
10240.0,-0.0023927229922264814
11264.0,-1.6693573343218304e-05
12288.0,-0.0011796371545642614
13312.0,0.0008512879139743745
14336.0,0.00012397598766256124
end
