version,3.0
numOfCh,1
type,point
parent_name,200-cuts
ch_type,1_1
kcount,1
numberNandB,1
brightnessNandB,1
carpet pos,0
pc,0
Time (ms),CH1 Auto-Correlation
1.0,0.0217507965862751
2.0,0.02112432010471821
3.0,0.020521823316812515
4.0,0.01995321922004223
5.0,0.01940986141562462
6.0,0.018870916217565536
7.0,0.01837031915783882
8.0,0.017887450754642487
9.0,0.017416199669241905
10.0,0.016949037089943886
11.0,0.016499042510986328
12.0,0.016057126224040985
13.0,0.01564016006886959
14.0,0.01523996889591217
15.0,0.01484451349824667
16.0,0.014469466172158718
18.0,0.013763068243861198
20.0,0.013098510913550854
22.0,0.012457302771508694
24.0,0.011808737181127071
26.0,0.011206310242414474
28.0,0.010627011768519878
30.0,0.010092315264046192
32.0,0.009609910659492016
36.0,0.008790221065282822
40.0,0.007999200373888016
44.0,0.0072263078764081
48.0,0.006512433756142855
52.0,0.005853976123034954
56.0,0.00522485701367259
60.0,0.004675675183534622
64.0,0.004160502925515175
72.0,0.003254707669839263
80.0,0.002688844921067357
88.0,0.0022521622013300657
96.0,0.0019212540937587619
104.0,0.001616168301552534
112.0,0.0014320974005386233
120.0,0.0013988179853186011
128.0,0.001388251199387014
144.0,0.0009933692635968328
160.0,0.00044165857252664864
176.0,0.00038475170731544495
192.0,0.0007863194332458079
208.0,0.0010255028028041124
224.0,0.0010432143462821841
240.0,0.0011460981331765652
256.0,0.0015713786706328392
288.0,0.0014717662706971169
320.0,0.0011840107617899776
352.0,0.0011633115354925394
384.0,-0.0002833267499227077
416.0,-0.0018304894911125302
448.0,-0.0017410204745829105
480.0,-0.00017177492554765195
512.0,0.0005001741810701787
576.0,0.0002888292074203491
640.0,-0.0003367006138432771
704.0,-0.0004405388899613172
768.0,0.00018601286865305156
832.0,9.017719276016578e-05
896.0,-0.0008704208885319531
960.0,-0.0008762673242017627
1024.0,0.0003537048469297588
1152.0,-0.00036256795283406973
1280.0,-0.0018269249703735113
1408.0,-0.0012865695171058178
1536.0,-0.0008734434959478676
1664.0,-0.0005040542455390096
1792.0,-0.0012055631959810853
1920.0,-0.0018083690665662289
2048.0,-0.0007408110541291535
2304.0,-0.00017899302474688739
2560.0,-2.4321599994436838e-05
2816.0,0.0003287514264229685
3072.0,0.0013503939844667912
3328.0,-0.00021567045769188553
3584.0,0.0009707723511382937
3840.0,0.0005486832233145833
4096.0,0.00031468167435377836
4608.0,0.00012091248208889738
5120.0,-0.0002931799099314958
5632.0,-0.00018559550517238677
6144.0,4.9802620196715e-05
6656.0,0.00022473027638625354
7168.0,-0.0012066829949617386
7680.0,0.0007390771643258631
8192.0,0.00011062131670769304
9216.0,-0.00022571628505829722
10240.0,0.0006317520164884627
11264.0,6.57028504065238e-05
12288.0,-0.00012907880591228604
13312.0,0.0002461714029777795
14336.0,1.96932305698283e-05
end
