version,3.0
numOfCh,1
type,point
parent_name,200-cuts
ch_type,1_1
kcount,1
numberNandB,1
brightnessNandB,1
carpet pos,0
pc,0
Time (ms),CH1 Auto-Correlation
1.0,0.022949589416384697
2.0,0.022311817854642868
3.0,0.02170329913496971
4.0,0.021125907078385353
5.0,0.020563963800668716
6.0,0.020016783848404884
7.0,0.01951749250292778
8.0,0.019039560109376907
9.0,0.01858184114098549
10.0,0.018137242645025253
11.0,0.01769605092704296
12.0,0.01726430468261242
13.0,0.016859835013747215
14.0,0.016473067924380302
15.0,0.016103170812129974
16.0,0.01574857346713543
18.0,0.015070914290845394
20.0,0.014433943666517735
22.0,0.013835490681231022
24.0,0.013273023068904877
26.0,0.012732084840536118
28.0,0.012194083072245121
30.0,0.011683526448905468
32.0,0.011186826042830944
36.0,0.010209663771092892
40.0,0.009395291097462177
44.0,0.008684164844453335
48.0,0.00800484698265791
52.0,0.007351522333920002
56.0,0.006794998422265053
60.0,0.006386938970535994
64.0,0.005991639103740454
72.0,0.005275229457765818
80.0,0.0046258592046797276
88.0,0.004014996346086264
96.0,0.0035205702297389507
104.0,0.002990376902744174
112.0,0.0023986187297850847
120.0,0.001975473016500473
128.0,0.0018955382984131575
144.0,0.002013781340792775
160.0,0.0019597001373767853
176.0,0.001462621265091002
192.0,0.0007766565540805459
208.0,-9.164620678348001e-06
224.0,2.2453477868111804e-06
240.0,-0.00014854675100650638
256.0,-7.989052392076701e-05
288.0,-0.0003425028407946229
320.0,-8.159632852766663e-05
352.0,-0.00014535122318193316
384.0,-0.0007987497956492007
416.0,-0.0015237501356750727
448.0,-0.0018473556265234947
480.0,-0.0018756185891106725
512.0,-0.0014822985976934433
576.0,-0.0018635207088664174
640.0,-0.0011962084099650383
704.0,-0.001214690855704248
768.0,-0.0013907444663345814
832.0,0.00022148748394101858
896.0,-0.001482068095356226
960.0,-0.0013888916000723839
1024.0,-0.001152845798060298
1152.0,-1.447309841751121e-05
1280.0,-0.00033315576729364693
1408.0,-0.00041180543485097587
1536.0,-0.00020329760445747524
1664.0,0.0007400987669825554
1792.0,0.0003177303296979517
1920.0,-0.0003837040567304939
2048.0,0.0004117958596907556
2304.0,0.0017881823005154729
2560.0,0.000501977454405278
2816.0,-0.0011508155148476362
3072.0,-0.0015533100813627243
3328.0,-0.0015356838703155518
3584.0,0.0010931659489870071
3840.0,0.0013229864416643977
4096.0,0.0004521576047409326
4608.0,-0.0016690919874235988
5120.0,0.001215660129673779
5632.0,0.00019018164312001318
6144.0,-0.0004896671161986887
6656.0,-0.0001655323285376653
7168.0,-0.00029901330708526075
7680.0,0.0004695882962550968
8192.0,-0.001342118252068758
9216.0,0.0006270242156460881
10240.0,-0.001049829414114356
11264.0,0.0008843549876473844
12288.0,-0.001387067954055965
13312.0,0.0013343829195946455
14336.0,-0.0006471771048381925
end
