version,3.0
numOfCh,1
type,point
parent_name,200-cuts
ch_type,1_1
kcount,1
numberNandB,1
brightnessNandB,1
carpet pos,0
pc,0
Time (ms),CH1 Auto-Correlation
1.0,0.07232068479061127
2.0,0.07032331824302673
3.0,0.06840253621339798
4.0,0.0664960965514183
5.0,0.06462538987398148
6.0,0.06280240416526794
7.0,0.06103546544909477
8.0,0.05935247242450714
9.0,0.057764068245887756
10.0,0.0562250055372715
11.0,0.054742567241191864
12.0,0.053279321640729904
13.0,0.05189882218837738
14.0,0.05060252174735069
15.0,0.049319684505462646
16.0,0.04810534417629242
18.0,0.04575714096426964
20.0,0.043657999485731125
22.0,0.04172634705901146
24.0,0.0399019829928875
26.0,0.0382256805896759
28.0,0.03680967912077904
30.0,0.03554254025220871
32.0,0.03427018225193024
36.0,0.032094769179821014
40.0,0.030243685469031334
44.0,0.02889823354780674
48.0,0.02762608230113983
52.0,0.026446009054780006
56.0,0.02532278373837471
60.0,0.02415635995566845
64.0,0.02307603880763054
72.0,0.021343549713492393
80.0,0.02035258337855339
88.0,0.020247559994459152
96.0,0.02015869878232479
104.0,0.019781099632382393
112.0,0.019254170358181
120.0,0.018365077674388885
128.0,0.017212869599461555
144.0,0.014377651736140251
160.0,0.013135651126503944
176.0,0.01203925721347332
192.0,0.009957632049918175
208.0,0.009352309629321098
224.0,0.008665516041219234
240.0,0.007585936225950718
256.0,0.006838137749582529
288.0,0.005069832783192396
320.0,0.0035931821912527084
352.0,0.0020814884919673204
384.0,0.0007726167677901685
416.0,0.0006692754104733467
448.0,0.000278094521490857
480.0,0.00035600989940576255
512.0,-0.001104507828131318
576.0,-0.00124656583648175
640.0,-0.002211102284491062
704.0,-2.258729364257306e-05
768.0,-0.00311832781881094
832.0,-0.004161207936704159
896.0,-0.005840569268912077
960.0,-0.005763816647231579
1024.0,-0.004835387691855431
1152.0,-0.002361518796533346
1280.0,-0.0020337675232440233
1408.0,-0.002814279170706868
1536.0,-0.004366243723779917
1664.0,-0.003017713548615575
1792.0,0.003736944869160652
1920.0,0.006466463673859835
2048.0,0.006710095796734095
2304.0,-0.0010751171503216028
2560.0,0.00261644902639091
2816.0,-0.003749618772417307
3072.0,-0.0022332346998155117
3328.0,-0.005662189330905676
3584.0,-0.006481843534857035
3840.0,0.004048887174576521
4096.0,0.003390626283362508
4608.0,-0.002836792729794979
5120.0,-0.009295834228396416
5632.0,-0.0009512596298009157
6144.0,0.0020925041753798723
6656.0,0.0028557463083416224
7168.0,-0.0030096855480223894
7680.0,-0.0038694904651492834
8192.0,0.004168225452303886
9216.0,0.004021273460239172
10240.0,-0.0008183117606677115
11264.0,-0.0021602786146104336
12288.0,0.0018332916079089046
13312.0,0.0011602132581174374
14336.0,-0.0011524866567924619
end
