version,3.0
numOfCh,1
type,point
parent_name,200-cuts
ch_type,1_1
kcount,1
numberNandB,1
brightnessNandB,1
carpet pos,0
pc,0
Time (ms),CH1 Auto-Correlation
1.0,0.01948535442352295
2.0,0.018872374668717384
3.0,0.018273787572979927
4.0,0.017732005566358566
5.0,0.017197752371430397
6.0,0.016681045293807983
7.0,0.01617971621453762
8.0,0.015692634508013725
9.0,0.015224074944853783
10.0,0.014769618399441242
11.0,0.014339574612677097
12.0,0.01393202319741249
13.0,0.013537230901420116
14.0,0.013153388164937496
15.0,0.012792550027370453
16.0,0.012437309138476849
18.0,0.011757155880331993
20.0,0.011127621866762638
22.0,0.010591790080070496
24.0,0.010133729316294193
26.0,0.009711924009025097
28.0,0.00930368434637785
30.0,0.00891235750168562
32.0,0.008514031767845154
36.0,0.0077684540301561356
40.0,0.006994504481554031
44.0,0.006314342375844717
48.0,0.005715344101190567
52.0,0.005203160922974348
56.0,0.00473520252853632
60.0,0.004290260840207338
64.0,0.0038017311599105597
72.0,0.003003265941515565
80.0,0.0023076506331562996
88.0,0.0016941721551120281
96.0,0.0012794662034139037
104.0,0.0008688719826750457
112.0,0.0006068685906939209
120.0,0.00036211867700330913
128.0,0.0003638149064499885
144.0,0.0004763398028444499
160.0,0.0006214574095793068
176.0,0.0004495843895711005
192.0,0.00038068954017944634
208.0,0.0005870805471204221
224.0,0.0008239472517743707
240.0,0.00031996876350604
256.0,-0.00024472191580571234
288.0,-0.0006569497054442763
320.0,-0.0009180682827718556
352.0,-0.0007893338333815336
384.0,-5.099751797388308e-05
416.0,0.0004797220171894878
448.0,0.0005622064345516264
480.0,-7.017933239694685e-05
512.0,0.00014656654093414545
576.0,-0.0001749810326145962
640.0,-0.0002532113285269588
704.0,-0.0009560553007759154
768.0,-0.001808216329663992
832.0,-0.0005457628285512328
896.0,0.00028115854365751147
960.0,0.000620270729996264
1024.0,0.00025510828709229827
1152.0,-0.0015254523605108261
1280.0,-0.0014042746042832732
1408.0,-0.001174065051600337
1536.0,-0.0012249958235770464
1664.0,-0.000643947918433696
1792.0,-0.00022205451386980712
1920.0,-0.0004967291024513543
2048.0,-0.0007288524066098034
2304.0,0.0005400783265940845
2560.0,0.0018661655485630035
2816.0,0.0009840803686529398
3072.0,0.0005919004906900227
3328.0,0.00017659045988693833
3584.0,0.00016355214756913483
3840.0,-0.0011385227553546429
4096.0,-0.0015781489200890064
4608.0,-0.0004312564851716161
5120.0,0.0007714032544754446
5632.0,0.0014747941168025136
6144.0,-0.0007507795817218721
6656.0,-0.0006423877784982324
7168.0,-0.0012787182349711657
7680.0,0.0005401667440310121
8192.0,0.0020709871314466
9216.0,-0.0011433743638917804
10240.0,0.00016178535588551313
11264.0,0.0007734468672424555
12288.0,-0.0009449290228076279
13312.0,5.949068145127967e-05
14336.0,0.00044183721183799207
end
