version,3.0
numOfCh,1
type,point
parent_name,200-cuts
ch_type,1_1
kcount,1
numberNandB,1
brightnessNandB,1
carpet pos,0
pc,0
Time (ms),CH1 Auto-Correlation
1.0,0.06317339092493057
2.0,0.0611853189766407
3.0,0.05934687703847885
4.0,0.057573478668928146
5.0,0.05587971210479736
6.0,0.05421795696020126
7.0,0.052604321390390396
8.0,0.051040396094322205
9.0,0.049519043415784836
10.0,0.04813992977142334
11.0,0.04678592458367348
12.0,0.04547397792339325
13.0,0.04414786398410797
14.0,0.042843811213970184
15.0,0.04156986251473427
16.0,0.04038836434483528
18.0,0.038152456283569336
20.0,0.03617887198925018
22.0,0.03425316885113716
24.0,0.0323847159743309
26.0,0.0306744035333395
28.0,0.029124777764081955
30.0,0.027630457654595375
32.0,0.026311654597520828
36.0,0.023783333599567413
40.0,0.021730797365307808
44.0,0.020036472007632256
48.0,0.018344564363360405
52.0,0.016812553629279137
56.0,0.015231956727802753
60.0,0.013610748574137688
64.0,0.011936296708881855
72.0,0.008740141987800598
80.0,0.0061975507996976376
88.0,0.004209886305034161
96.0,0.002446664497256279
104.0,0.001450172858312726
112.0,0.0013372405664995313
120.0,0.001270715962164104
128.0,0.0008230727980844676
144.0,-0.0010915383463725448
160.0,-0.002052537864074111
176.0,-0.0016532584559172392
192.0,-0.002427653642371297
208.0,-0.0026881741359829903
224.0,-0.002011840930208564
240.0,-0.0017311761621385813
256.0,-0.0022905964870005846
288.0,-0.0032825390808284283
320.0,-0.003523922525346279
352.0,-0.0035818361211568117
384.0,-0.0029390875715762377
416.0,-0.000950475805439055
448.0,-0.00036441200063563883
480.0,0.0022518637124449015
512.0,0.0022177775390446186
576.0,0.000579886487685144
640.0,0.0040640998631715775
704.0,0.002348807407543063
768.0,-0.0058794403448700905
832.0,-0.00606115348637104
896.0,-0.004315964411944151
960.0,-0.0016607034485787153
1024.0,-0.0017573677469044924
1152.0,-0.0002077253011520952
1280.0,0.0005993162048980594
1408.0,-0.002318741288036108
1536.0,-0.005365414544939995
1664.0,3.64189654646907e-05
1792.0,-0.0011938826646655798
1920.0,-0.001053103944286704
2048.0,-0.00021985083003528416
2304.0,0.0013054341543465853
2560.0,0.0012285492848604918
2816.0,-0.00024321961973328143
3072.0,0.0025817903224378824
3328.0,-0.0014494615606963634
3584.0,0.0018568463856354356
3840.0,-0.002137551549822092
4096.0,-0.0005869264132343233
4608.0,-0.003837167751044035
5120.0,0.0016030552797019482
5632.0,0.0022795959375798702
6144.0,0.00046758714597672224
6656.0,0.0024252445437014103
7168.0,-0.003979524131864309
7680.0,0.0016499804332852364
8192.0,-0.0018677555490285158
9216.0,-0.0007689034100621939
10240.0,0.001127776806242764
11264.0,0.000442248594481498
12288.0,-0.0020084299612790346
13312.0,0.0016614272026345134
14336.0,6.558797758771107e-05
end
