version,3.0
numOfCh,1
type,point
parent_name,200-cuts
ch_type,1_1
kcount,1
numberNandB,1
brightnessNandB,1
carpet pos,0
pc,0
Time (ms),CH1 Auto-Correlation
1.0,0.025682713836431503
2.0,0.024972816929221153
3.0,0.02429543063044548
4.0,0.023632356896996498
5.0,0.02298574149608612
6.0,0.022361300885677338
7.0,0.02177693508565426
8.0,0.021227076649665833
9.0,0.02070307731628418
10.0,0.02017342858016491
11.0,0.019642865285277367
12.0,0.01914648711681366
13.0,0.01865716464817524
14.0,0.01818644441664219
15.0,0.01773480512201786
16.0,0.0172992292791605
18.0,0.016479860991239548
20.0,0.015701910480856895
22.0,0.014924285933375359
24.0,0.014140859246253967
26.0,0.013365689665079117
28.0,0.012623322196304798
30.0,0.011932484805583954
32.0,0.011270892806351185
36.0,0.010176477953791618
40.0,0.009304621256887913
44.0,0.008484342135488987
48.0,0.007723793387413025
52.0,0.007037846837192774
56.0,0.006435391027480364
60.0,0.005863748956471682
64.0,0.00538292620331049
72.0,0.004563031252473593
80.0,0.003797495272010565
88.0,0.0029309645760804415
96.0,0.0022027126979082823
104.0,0.0016603085678070784
112.0,0.0011721763294190168
120.0,0.0009945466881617904
128.0,0.0009015703690238297
144.0,0.0010582146933302283
160.0,0.0006458049756474793
176.0,-8.852272003423423e-05
192.0,-0.0002103227307088673
208.0,0.0005422721733339131
224.0,0.0009639288764446974
240.0,0.0011021577520295978
256.0,0.001132150529883802
288.0,0.0002253302518511191
320.0,0.00030189077369868755
352.0,0.00047029100824147463
384.0,0.0003329177270643413
416.0,0.0003625739482231438
448.0,-0.00034934436553157866
480.0,-0.00034559424966573715
512.0,-1.1337779142195359e-06
576.0,-0.0002553558733779937
640.0,-0.0007368832593783736
704.0,-0.0008905855938792229
768.0,-0.0006356894737109542
832.0,-0.0008314364240504801
896.0,-0.0009923657635226846
960.0,-0.0006667059496976435
1024.0,-0.000916023796889931
1152.0,-0.0014619231224060059
1280.0,-0.002162648132070899
1408.0,-0.0012464449973776937
1536.0,-0.0002703357022255659
1664.0,-0.0006040778243914247
1792.0,-0.00042218840098939836
1920.0,0.001520844059996307
2048.0,-0.00013049117114860564
2304.0,0.0014562051510438323
2560.0,0.0006847197073511779
2816.0,0.00019568228162825108
3072.0,-7.910669228294864e-05
3328.0,-0.0002669864916242659
3584.0,-0.0016556837363168597
3840.0,-0.00042075582314282656
4096.0,7.866170926718041e-05
4608.0,0.0005429066368378699
5120.0,-0.0012859785929322243
5632.0,-0.0007524410029873252
6144.0,0.0009737494983710349
6656.0,0.0007136972853913903
7168.0,0.00012258243805263191
7680.0,-0.00026003672974184155
8192.0,-0.0014663302572444081
9216.0,0.0008036123472265899
10240.0,0.0002341056679142639
11264.0,-0.0008383678505197167
12288.0,-0.0005559013807214797
13312.0,-3.7592279113596305e-05
14336.0,-0.00035447036498226225
end
