version,3.0
numOfCh,1
type,point
parent_name,200-cuts
ch_type,1_1
kcount,1
numberNandB,1
brightnessNandB,1
carpet pos,0
pc,0
Time (ms),CH1 Auto-Correlation
1.0,0.06483807414770126
2.0,0.0628339871764183
3.0,0.06092400103807449
4.0,0.059060677886009216
5.0,0.057248346507549286
6.0,0.05544021725654602
7.0,0.05366639047861099
8.0,0.05195891112089157
9.0,0.05028228089213371
10.0,0.048666149377822876
11.0,0.04715518653392792
12.0,0.045719537883996964
13.0,0.044333625584840775
14.0,0.04300281032919884
15.0,0.041762493550777435
16.0,0.04053720831871033
18.0,0.038309790194034576
20.0,0.03628997504711151
22.0,0.034393876791000366
24.0,0.032570961862802505
26.0,0.03084377385675907
28.0,0.029149573296308517
30.0,0.027532102540135384
32.0,0.025949908420443535
36.0,0.02277902513742447
40.0,0.020097656175494194
44.0,0.017882373183965683
48.0,0.015973055735230446
52.0,0.014087613672018051
56.0,0.012447699904441833
60.0,0.011140195652842522
64.0,0.010244971141219139
72.0,0.008493355475366116
80.0,0.007066403981298208
88.0,0.006153719499707222
96.0,0.0055885035544633865
104.0,0.004746945109218359
112.0,0.003918608650565147
120.0,0.0031611835584044456
128.0,0.0028008136432617903
144.0,0.0023003392852842808
160.0,0.0007619507377967238
176.0,-0.0003702500544022769
192.0,0.00019129180873278528
208.0,0.00059505581157282
224.0,0.00027971004601567984
240.0,0.00012029745266772807
256.0,0.0011786890681833029
288.0,0.0015811523189768195
320.0,0.0025180396623909473
352.0,0.0003362609422765672
384.0,-0.0008112926734611392
416.0,-0.0020349109545350075
448.0,-0.0020771941635757685
480.0,-0.0013604654232040048
512.0,0.0009639638592489064
576.0,-0.003048961516469717
640.0,-0.004426644649356604
704.0,-0.00365137355402112
768.0,-0.00016650205361656845
832.0,0.0017056576907634735
896.0,-0.002299628686159849
960.0,-0.003273436101153493
1024.0,-0.004225275479257107
1152.0,0.003304733196273446
1280.0,0.0039397552609443665
1408.0,0.002094671595841646
1536.0,-0.00016567266720812768
1664.0,-0.0017597086261957884
1792.0,-0.0028377689886838198
1920.0,0.0029866881668567657
2048.0,-0.0023267099168151617
2304.0,-0.001782223698683083
2560.0,-0.00031572405714541674
2816.0,-7.58101450628601e-05
3072.0,0.003654683008790016
3328.0,0.0028132472652941942
3584.0,4.895665551885031e-05
3840.0,-0.003027635160833597
4096.0,-0.002404311439022422
4608.0,0.0013515836326405406
5120.0,-0.0029145122971385717
5632.0,-0.0014016834320500493
6144.0,0.000649255991447717
6656.0,0.0022649557795375586
7168.0,-0.0011026706779375672
7680.0,-0.003926437348127365
8192.0,0.0008311937563121319
9216.0,-4.764377808896825e-05
10240.0,0.0005340434145182371
11264.0,0.0008128205663524568
12288.0,-0.0004058723570778966
13312.0,0.0003976982261519879
14336.0,-0.0005190661759115756
end
