version,3.0
numOfCh,1
type,point
parent_name,200-cuts
ch_type,1_1
kcount,1
numberNandB,1
brightnessNandB,1
carpet pos,0
pc,0
Time (ms),CH1 Auto-Correlation
1.0,0.05562376230955124
2.0,0.053720612078905106
3.0,0.05189347639679909
4.0,0.05013269931077957
5.0,0.048463933169841766
6.0,0.04686727374792099
7.0,0.04533793032169342
8.0,0.04386992007493973
9.0,0.04241841286420822
10.0,0.04096800088882446
11.0,0.039577238261699677
12.0,0.03829251974821091
13.0,0.03706135228276253
14.0,0.03589418902993202
15.0,0.03477272018790245
16.0,0.03369033336639404
18.0,0.03162192553281784
20.0,0.029615795239806175
22.0,0.027734389528632164
24.0,0.026022080332040787
26.0,0.024476520717144012
28.0,0.02301417849957943
30.0,0.021608179435133934
32.0,0.02014048956334591
36.0,0.017345331609249115
40.0,0.014961247332394123
44.0,0.012879572808742523
48.0,0.010900061577558517
52.0,0.009196017868816853
56.0,0.007629327941685915
60.0,0.006396343931555748
64.0,0.005509919486939907
72.0,0.005016906652599573
80.0,0.004994311835616827
88.0,0.004922328516840935
96.0,0.004426333587616682
104.0,0.0037488252855837345
112.0,0.002844500122591853
120.0,0.0017154928063973784
128.0,0.000763729854952544
144.0,1.6224546925514005e-05
160.0,-0.0005875359056517482
176.0,-0.0006730581517331302
192.0,-0.0006874581449665129
208.0,-0.0007331085507757962
224.0,0.0003719911037478596
240.0,0.0014250822132453322
256.0,0.0014567412436008453
288.0,0.0026715388521552086
320.0,0.003969467710703611
352.0,0.003993449732661247
384.0,0.0029394901357591152
416.0,0.0001994911435758695
448.0,-0.003071855055168271
480.0,-0.0062992386519908905
512.0,-0.005471622105687857
576.0,-0.0009972038678824902
640.0,7.482519140467048e-05
704.0,0.00036297921906225383
768.0,-0.0026691039092838764
832.0,-0.00407332181930542
896.0,-0.0026945644058287144
960.0,0.0007149830926209688
1024.0,0.0005179743748158216
1152.0,-0.0024114083498716354
1280.0,-0.00020700985623989254
1408.0,-0.0009591027046553791
1536.0,0.0020985533483326435
1664.0,0.002449105493724346
1792.0,-0.0007158094085752964
1920.0,0.00017194262181874365
2048.0,0.0012624227674677968
2304.0,-0.0023187471088021994
2560.0,-0.000532213831320405
2816.0,-0.000539347471203655
3072.0,0.0020368031691759825
3328.0,0.00014876369095873088
3584.0,-0.0004933804739266634
3840.0,-0.0016223046695813537
4096.0,0.0006825423333793879
4608.0,-0.001465856796130538
5120.0,-0.002193008316680789
5632.0,0.0021334628108888865
6144.0,-0.0002307463437318802
6656.0,0.000270058517344296
7168.0,-8.124780833895784e-06
7680.0,0.0022998519707471132
8192.0,-0.0015474902465939522
9216.0,0.0013953475281596184
10240.0,-0.0013869830872863531
11264.0,-0.0009618652402423322
12288.0,-0.0007380462484434247
13312.0,-0.0008993480587378144
14336.0,-0.0007382607436738908
end
