version,3.0
numOfCh,1
type,point
parent_name,200-cuts
ch_type,1_1
kcount,1
numberNandB,1
brightnessNandB,1
carpet pos,0
pc,0
Time (ms),CH1 Auto-Correlation
1.0,0.020582057535648346
2.0,0.01997675560414791
3.0,0.019408077001571655
4.0,0.018871253356337547
5.0,0.01833995431661606
6.0,0.017814412713050842
7.0,0.017314529046416283
8.0,0.01683054491877556
9.0,0.016361169517040253
10.0,0.015900427475571632
11.0,0.015466387383639812
12.0,0.01504337228834629
13.0,0.014618250541388988
14.0,0.014212719164788723
15.0,0.013822522014379501
16.0,0.013447088189423084
18.0,0.012703938409686089
20.0,0.01200234703719616
22.0,0.011353696696460247
24.0,0.010783358477056026
26.0,0.010270786471664906
28.0,0.009786766022443771
30.0,0.009361140429973602
32.0,0.008986192755401134
36.0,0.008399679325520992
40.0,0.00786763709038496
44.0,0.007403201889246702
48.0,0.006941808387637138
52.0,0.006466190330684185
56.0,0.00598152494058013
60.0,0.005508232396095991
64.0,0.00512727489694953
72.0,0.004538401961326599
80.0,0.0039266855455935
88.0,0.0033583424519747496
96.0,0.002949537243694067
104.0,0.0027651088312268257
112.0,0.0026052179746329784
120.0,0.0024174682330340147
128.0,0.002251993864774704
144.0,0.0018496409757062793
160.0,0.0017066649161279202
176.0,0.001026555197313428
192.0,0.0004309125361032784
208.0,0.0003514877753332257
224.0,-1.34785077534616e-05
240.0,-0.0003842973383143544
256.0,-0.00040489950333721936
288.0,-0.0004413896822370589
320.0,0.00020913503249175847
352.0,0.0007533556199632585
384.0,0.001009638304822147
416.0,0.0006877044797874987
448.0,6.829600897617638e-05
480.0,-0.0003115533909294754
512.0,0.00021767029829788953
576.0,0.00011957503011217341
640.0,-0.0014179677236825228
704.0,-0.0016900526825338602
768.0,-0.001213127514347434
832.0,-0.00073419907130301
896.0,-0.0002808392164297402
960.0,-0.00043575215386226773
1024.0,-0.00031272508203983307
1152.0,-0.001935499836690724
1280.0,-0.0013161657843738794
1408.0,0.0004936487530358136
1536.0,-0.0003973761631641537
1664.0,-0.00020460461382754147
1792.0,4.703280865214765e-05
1920.0,0.0007561924867331982
2048.0,0.0020195581018924713
2304.0,0.0006174433510750532
2560.0,-0.001422595465555787
2816.0,-0.001213633338920772
3072.0,-0.0006811419734731317
3328.0,-0.0008041709661483765
3584.0,0.0001403570204274729
3840.0,0.00016993307508528233
4096.0,0.000365794898243621
4608.0,0.000170945655554533
5120.0,-0.0009830354247242212
5632.0,0.0009175310842692852
6144.0,-0.00047120999079197645
6656.0,0.00033857490052469075
7168.0,0.0006954493001103401
7680.0,-9.066225175047293e-05
8192.0,-0.001122872345149517
9216.0,2.6024827093351632e-05
10240.0,-0.0012919417349621654
11264.0,0.0025962989311665297
12288.0,-0.0001579251402290538
13312.0,-0.0006795541848987341
14336.0,-0.0007787285139784217
end
