version,3.0
numOfCh,1
type,point
parent_name,200-cuts
ch_type,1_1
kcount,1
numberNandB,1
brightnessNandB,1
carpet pos,0
pc,0
Time (ms),CH1 Auto-Correlation
1.0,0.031279005110263824
2.0,0.03033570572733879
3.0,0.02940315008163452
4.0,0.028490867465734482
5.0,0.02764159068465233
6.0,0.026818111538887024
7.0,0.026001323014497757
8.0,0.025194210931658745
9.0,0.024411100894212723
10.0,0.02366483397781849
11.0,0.022957345470786095
12.0,0.022257506847381592
13.0,0.021585004404187202
14.0,0.02094125747680664
15.0,0.020319297909736633
16.0,0.01971275359392166
18.0,0.01855112798511982
20.0,0.017444031313061714
22.0,0.01640554517507553
24.0,0.0154618164524436
26.0,0.014622485265135765
28.0,0.013836797326803207
30.0,0.013083468191325665
32.0,0.012397218495607376
36.0,0.011061383411288261
40.0,0.009860551916062832
44.0,0.008875660598278046
48.0,0.008108898997306824
52.0,0.007462985347956419
56.0,0.006831964012235403
60.0,0.0062119122594594955
64.0,0.00566002307459712
72.0,0.0047064111568033695
80.0,0.003637198591604829
88.0,0.0028849926311522722
96.0,0.0019849836826324463
104.0,0.0009327953448519111
112.0,0.00012635915481951088
120.0,-0.0005124740418978035
128.0,-0.0012992280535399914
144.0,-0.0020201976876705885
160.0,-0.00188083341345191
176.0,-0.0014907981967553496
192.0,-0.001554697286337614
208.0,-0.0013066723477095366
224.0,-0.0009333593770861626
240.0,-0.0010742765152826905
256.0,-0.0010676801903173327
288.0,-0.0014118450926616788
320.0,-0.00027338569634594023
352.0,-0.0004776728164870292
384.0,-0.001148110837675631
416.0,8.726368105271831e-05
448.0,0.0013342105085030198
480.0,0.0008706710068508983
512.0,-0.001014319946989417
576.0,-0.002001009648665786
640.0,-0.001059310627169907
704.0,0.0009030545479618013
768.0,0.0012671796139329672
832.0,-0.0001464250817662105
896.0,-0.00047401347546838224
960.0,-0.001819457276724279
1024.0,-0.002194454660639167
1152.0,0.0009073622059077024
1280.0,0.00040872563840821385
1408.0,-0.0014471176546067
1536.0,0.001931631937623024
1664.0,0.00316282594576478
1792.0,0.0011098164832219481
1920.0,0.0011186334304511547
2048.0,-0.0012783114798367023
2304.0,0.00015564200293738395
2560.0,-0.0012008623452857137
2816.0,8.484235149808228e-05
3072.0,0.0008121232385747135
3328.0,0.0009126174845732749
3584.0,0.0009252976742573082
3840.0,-0.001499732374213636
4096.0,-0.0003192319709341973
4608.0,0.0001571168686496094
5120.0,-0.0006386601598933339
5632.0,-0.00012660505308303982
6144.0,-0.00029310068930499256
6656.0,0.0005623563192784786
7168.0,-0.0008786776452325284
7680.0,-0.0004988398868590593
8192.0,0.0004103326064068824
9216.0,-0.0005203679902479053
10240.0,0.00016049470286816359
11264.0,0.00013820230378769338
12288.0,-0.00027224395307712257
13312.0,-0.001270351349376142
14336.0,0.00033848173916339874
end
