version,3.0
numOfCh,1
type,point
parent_name,1-cuts
ch_type,1_1
kcount,1
numberNandB,1
brightnessNandB,1
carpet pos,0
pc,0
Time (ms),CH1 Auto-Correlation
1.0,0.029058296233415604
2.0,0.026880061253905296
3.0,0.02502244897186756
4.0,0.023529300466179848
5.0,0.02219529263675213
6.0,0.020973116159439087
7.0,0.019910775125026703
8.0,0.01896696351468563
9.0,0.01805976964533329
10.0,0.017179058864712715
11.0,0.016450561583042145
12.0,0.015709180384874344
13.0,0.015028707683086395
14.0,0.014398742467164993
15.0,0.013863633386790752
16.0,0.013322167098522186
18.0,0.012432518415153027
20.0,0.01175866462290287
22.0,0.01099162083119154
24.0,0.010326066054403782
26.0,0.009744389913976192
28.0,0.00926146563142538
30.0,0.008807609789073467
32.0,0.008303148671984673
36.0,0.007485598791390657
40.0,0.007031115237623453
44.0,0.006727565545588732
48.0,0.006424151826649904
52.0,0.0059565710835158825
56.0,0.005586025305092335
60.0,0.005363150965422392
64.0,0.0052430154755711555
72.0,0.004697015974670649
80.0,0.004578203894197941
88.0,0.005044589284807444
96.0,0.005132525227963924
104.0,0.005006033927202225
112.0,0.004887190647423267
120.0,0.004637920297682285
128.0,0.004576627165079117
144.0,0.004218191374093294
160.0,0.0033053080551326275
176.0,0.0025085783563554287
192.0,0.002281804569065571
208.0,0.002262349706143141
224.0,0.001945687923580408
240.0,0.0017975489608943462
256.0,0.0011989803751930594
288.0,0.00017939155804924667
320.0,-0.00021381354599725455
352.0,0.0002564880414865911
384.0,0.0005286200321279466
416.0,0.00017362236394546926
448.0,0.0001974908373085782
480.0,-0.0006882374291308224
512.0,-3.875285619869828e-05
576.0,0.00035064679104834795
640.0,-0.0003921999013982713
704.0,-0.0005180156440474093
768.0,-0.0013000849867239594
832.0,-0.001451906398870051
896.0,-0.002492340048775077
960.0,-0.0017164347227662802
1024.0,-0.001401388319209218
1152.0,-0.00059737847186625
1280.0,-0.0001924172102008015
1408.0,-0.00010695711534935981
1536.0,-0.0016511824214830995
1664.0,-0.0025332546792924404
1792.0,-0.0013698184629902244
1920.0,-5.0521866796771064e-05
2048.0,-0.0005975310923531651
2304.0,0.00032112671760842204
2560.0,0.0005663683405146003
2816.0,-0.0013755584368482232
3072.0,-0.0007392630213871598
3328.0,0.00017304967332165688
3584.0,0.0026041751261800528
3840.0,0.0022498152684420347
4096.0,0.0007520186481997371
4608.0,-0.00039212085539475083
5120.0,-0.0017325998051092029
5632.0,-0.00018703126988839358
6144.0,0.00027098553255200386
6656.0,-0.00013242685236036777
7168.0,-0.0008081263513304293
7680.0,0.0007952045416459441
8192.0,0.0005085611483082175
9216.0,-0.0011849444126710296
10240.0,0.0001918600028147921
11264.0,-0.001248248154297471
12288.0,0.0014516344526782632
13312.0,-0.0007792746182531118
14336.0,-0.0004814208659809083
end
