version,3.0
numOfCh,1
type,point
parent_name,1-cuts
ch_type,1_1
kcount,1
numberNandB,1
brightnessNandB,1
carpet pos,0
pc,0
Time (ms),CH1 Auto-Correlation
1.0,0.043509528040885925
2.0,0.040308091789484024
3.0,0.037514641880989075
4.0,0.03506015986204147
5.0,0.03278711438179016
6.0,0.030860578641295433
7.0,0.029114577919244766
8.0,0.027622416615486145
9.0,0.026350731030106544
10.0,0.025342673063278198
11.0,0.024368781596422195
12.0,0.023504629731178284
13.0,0.02276979759335518
14.0,0.022068006917834282
15.0,0.02138587087392807
16.0,0.020787203684449196
18.0,0.019683105871081352
20.0,0.01870976947247982
22.0,0.01784464530646801
24.0,0.017180275171995163
26.0,0.016382362693548203
28.0,0.015491059981286526
30.0,0.014687512069940567
32.0,0.01392656285315752
36.0,0.012939301319420338
40.0,0.012252528220415115
44.0,0.011624881066381931
48.0,0.010932669043540955
52.0,0.009932407177984715
56.0,0.009399008937180042
60.0,0.009275739081203938
64.0,0.008753834292292595
72.0,0.007889790460467339
80.0,0.007277219090610743
88.0,0.006623854860663414
96.0,0.0063133034855127335
104.0,0.005598151590675116
112.0,0.004359371028840542
120.0,0.003602124284952879
128.0,0.0029797900933772326
144.0,0.0019669837784022093
160.0,0.0023971181362867355
176.0,0.002814988838508725
192.0,0.0022803195752203465
208.0,0.0013484072405844927
224.0,0.0018164252396672964
240.0,0.0025179891381412745
256.0,0.0021690709982067347
288.0,0.0012338815722614527
320.0,0.0005890975007787347
352.0,0.0013381122844293714
384.0,0.0008556535467505455
416.0,0.0005053682252764702
448.0,0.0006537039298564196
480.0,0.0017228149808943272
512.0,0.002232361352071166
576.0,-0.0004580370441544801
640.0,-0.0017954484792426229
704.0,0.0001463635271647945
768.0,0.0018622722709551454
832.0,0.002388797467574477
896.0,0.0020846687257289886
960.0,0.0017931553302332759
1024.0,0.0013715883251279593
1152.0,0.00013015352305956185
1280.0,8.111948409350589e-05
1408.0,-0.0006233282038010657
1536.0,-0.0003900751762557775
1664.0,-0.0007823431515134871
1792.0,-0.0009974375134333968
1920.0,-0.001612799591384828
2048.0,-0.0018473543459549546
2304.0,-0.00021518411813303828
2560.0,-0.0013768002390861511
2816.0,-0.0005803848034702241
3072.0,-3.405843017389998e-05
3328.0,0.0004080561629962176
3584.0,-0.0016335422405973077
3840.0,-0.001842934638261795
4096.0,-0.0032445667311549187
4608.0,-0.001977442530915141
5120.0,-0.0017891377210617065
5632.0,-0.0008221632451750338
6144.0,0.001791101647540927
6656.0,0.0016572357853874564
7168.0,0.0012160843471065164
7680.0,-7.186872971942648e-05
8192.0,0.001591019332408905
9216.0,0.0016289418563246727
10240.0,3.631166327977553e-05
11264.0,-0.001585396472364664
12288.0,-0.0023568193428218365
13312.0,-0.0008018575026653707
14336.0,-0.00010865009971894324
end
