version,3.0
numOfCh,1
type,point
parent_name,1-cuts
ch_type,1_1
kcount,1
numberNandB,1
brightnessNandB,1
carpet pos,0
pc,0
Time (ms),CH1 Auto-Correlation
1.0,0.029152847826480865
2.0,0.02701006829738617
3.0,0.025136858224868774
4.0,0.023538263514637947
5.0,0.02213696576654911
6.0,0.02086806297302246
7.0,0.019770007580518723
8.0,0.018778037279844284
9.0,0.017836665734648705
10.0,0.016978822648525238
11.0,0.016150278970599174
12.0,0.015342269092798233
13.0,0.01461469940841198
14.0,0.013918174430727959
15.0,0.013353506103157997
16.0,0.012808331288397312
18.0,0.0117793632671237
20.0,0.010955274105072021
22.0,0.010168232023715973
24.0,0.00955915916711092
26.0,0.008995185606181622
28.0,0.00837998278439045
30.0,0.0077763390727341175
32.0,0.007217518053948879
36.0,0.006201809737831354
40.0,0.005619856994599104
44.0,0.005214774515479803
48.0,0.005064576864242554
52.0,0.004940750543028116
56.0,0.004801171366125345
60.0,0.004518234170973301
64.0,0.004082856234163046
72.0,0.003542602062225342
80.0,0.003404039889574051
88.0,0.002979328390210867
96.0,0.0020202812738716602
104.0,0.0014273255364969373
112.0,0.0013797611463814974
120.0,0.0010658185929059982
128.0,0.0008066620794124901
144.0,0.0005756883765570819
160.0,0.00023059771046973765
176.0,0.0003907822829205543
192.0,-4.1239229176426306e-05
208.0,9.802720887819305e-05
224.0,0.0001865382946562022
240.0,-1.4224699043552391e-05
256.0,-0.0004105523694306612
288.0,7.925667887320742e-05
320.0,0.00022648568847216666
352.0,0.00013337073323782533
384.0,8.530098057235591e-06
416.0,0.0003267201245762408
448.0,0.0005376103217713535
480.0,0.0007110952283255756
512.0,0.0011655647540464997
576.0,0.0013830236857756972
640.0,0.00021345846471376717
704.0,-0.00043715498759411275
768.0,0.0007263381266966462
832.0,0.0009095196146517992
896.0,0.0006122644990682602
960.0,0.00043672125320881605
1024.0,-0.0002881365071516484
1152.0,0.0003260141529608518
1280.0,-0.0012467923806980252
1408.0,-0.0002627226640470326
1536.0,-0.0001955287589225918
1664.0,0.0005816575139760971
1792.0,-0.0007644762517884374
1920.0,-0.0026144266594201326
2048.0,-0.0005982136353850365
2304.0,-0.00043569444096647203
2560.0,-0.00023698036966379732
2816.0,-0.0008440777892246842
3072.0,-0.0003394645173102617
3328.0,0.0011769201373681426
3584.0,-0.0004876329912804067
3840.0,-0.0007489436538890004
4096.0,0.00021840566478203982
4608.0,-0.0004903590306639671
5120.0,-0.00031309571932069957
5632.0,-0.00013298314297571778
6144.0,-0.0007745806942693889
6656.0,0.00015086297935340554
7168.0,0.0005406384007073939
7680.0,0.0004221952985972166
8192.0,0.0015086934436112642
9216.0,0.00016722071450203657
10240.0,-3.175377059960738e-05
11264.0,0.0005070889019407332
12288.0,0.00026282283943146467
13312.0,-0.002051432617008686
14336.0,-0.0007548904395662248
end
