version,3.0
numOfCh,1
type,point
parent_name,1-cuts
ch_type,1_1
kcount,1
numberNandB,1
brightnessNandB,1
carpet pos,0
pc,0
Time (ms),CH1 Auto-Correlation
1.0,0.04641805216670036
2.0,0.043142348527908325
3.0,0.040215253829956055
4.0,0.03763413056731224
5.0,0.03547390177845955
6.0,0.03355741500854492
7.0,0.03185998275876045
8.0,0.030324753373861313
9.0,0.028883071616292
10.0,0.027634957805275917
11.0,0.026574833318591118
12.0,0.025465618818998337
13.0,0.024600893259048462
14.0,0.023697268217802048
15.0,0.02293720468878746
16.0,0.022247320041060448
18.0,0.02085465006530285
20.0,0.019616778939962387
22.0,0.01847051829099655
24.0,0.017452871426939964
26.0,0.016687175258994102
28.0,0.016055699437856674
30.0,0.01544008869677782
32.0,0.014706120826303959
36.0,0.013233847916126251
40.0,0.012204575352370739
44.0,0.011378936469554901
48.0,0.010652173310518265
52.0,0.009804788045585155
56.0,0.009058699943125248
60.0,0.00845713634043932
64.0,0.008010433055460453
72.0,0.007998793385922909
80.0,0.008222133852541447
88.0,0.00827532634139061
96.0,0.00680928211659193
104.0,0.006070032715797424
112.0,0.006309171207249165
120.0,0.006065271329134703
128.0,0.006057266611605883
144.0,0.006716654170304537
160.0,0.005762423854321241
176.0,0.0044874888844788074
192.0,0.004221824463456869
208.0,0.003580262418836355
224.0,0.00443916255608201
240.0,0.005011301953345537
256.0,0.005941370036453009
288.0,0.00583151588216424
320.0,0.00412413477897644
352.0,0.0038485988043248653
384.0,0.003310838248580694
416.0,0.003780583618208766
448.0,0.003481704741716385
480.0,0.0018810487817972898
512.0,0.001978571992367506
576.0,0.0023674103431403637
640.0,0.004396975506097078
704.0,0.0019117414485663176
768.0,0.002704065991565585
832.0,0.00208452669903636
896.0,0.0010032543214038014
960.0,0.0017084598075598478
1024.0,0.0026172848884016275
1152.0,-0.00033618000452406704
1280.0,-0.001221049576997757
1408.0,-0.0018840535776689649
1536.0,-0.001145020592957735
1664.0,-0.0013385096099227667
1792.0,-0.0010186760919168591
1920.0,-0.002135475631803274
2048.0,-0.004244022537022829
2304.0,-0.0013927952386438847
2560.0,-0.00034552853321656585
2816.0,-0.0015292775351554155
3072.0,-0.0031386909540742636
3328.0,-0.003545032814145088
3584.0,-0.003551095025613904
3840.0,-0.0038296296261250973
4096.0,-0.0038068750873208046
4608.0,-0.0024846915621310472
5120.0,0.001631658524274826
5632.0,0.0006619775667786598
6144.0,0.0018877367256209254
6656.0,0.0036391017492860556
7168.0,0.0024540433660149574
7680.0,0.0033269738778471947
8192.0,-0.000989141408354044
9216.0,-0.0012627639807760715
10240.0,-0.0013992073945701122
11264.0,0.0011071861954405904
12288.0,4.994135088054463e-05
13312.0,0.0001577582734171301
14336.0,-0.00020834496535826474
end
