version,3.0
numOfCh,1
type,point
parent_name,1-cuts
ch_type,1_1
kcount,1
numberNandB,1
brightnessNandB,1
carpet pos,0
pc,0
Time (ms),CH1 Auto-Correlation
1.0,0.030118485912680626
2.0,0.027948811650276184
3.0,0.026098210364580154
4.0,0.02448851242661476
5.0,0.023099815472960472
6.0,0.021855361759662628
7.0,0.020754652097821236
8.0,0.019791919738054276
9.0,0.01892104558646679
10.0,0.018142879009246826
11.0,0.017318347468972206
12.0,0.016518333926796913
13.0,0.015880417078733444
14.0,0.01527243759483099
15.0,0.014690990559756756
16.0,0.014139157719910145
18.0,0.013283977285027504
20.0,0.012518557719886303
22.0,0.011760798282921314
24.0,0.011127405799925327
26.0,0.01053752563893795
28.0,0.010035248473286629
30.0,0.009626162238419056
32.0,0.009204734116792679
36.0,0.008386264555156231
40.0,0.007652042433619499
44.0,0.006930982228368521
48.0,0.006693907547742128
52.0,0.0065301647409796715
56.0,0.006314219906926155
60.0,0.006188616156578064
64.0,0.005790440831333399
72.0,0.005388785153627396
80.0,0.005184879060834646
88.0,0.0046707079745829105
96.0,0.0035627849865704775
104.0,0.003186912275850773
112.0,0.0028799977153539658
120.0,0.0026135218795388937
128.0,0.0021820957772433758
144.0,0.002008004579693079
160.0,0.0019892489071935415
176.0,0.0017373882001265883
192.0,0.0015100248856469989
208.0,0.0008146318723447621
224.0,-0.0003857295378111303
240.0,-0.0005201783496886492
256.0,-0.0004074240569025278
288.0,-0.0008334518643096089
320.0,-0.0013577539939433336
352.0,8.988354966277257e-05
384.0,0.0001468246045988053
416.0,0.0012286968994885683
448.0,0.00012890345533378422
480.0,-0.0004624586144927889
512.0,-0.0006033023819327354
576.0,-0.00103289564140141
640.0,-0.0013982134405523539
704.0,-0.0019300451967865229
768.0,-0.0026231231167912483
832.0,-0.002613513031974435
896.0,-0.0031359281856566668
960.0,-0.0024472540244460106
1024.0,-0.00016334967222064734
1152.0,0.0015940968878567219
1280.0,0.0009990197140723467
1408.0,0.0010844898642972112
1536.0,0.0009446245385333896
1664.0,0.001427253126166761
1792.0,0.0002468728052917868
1920.0,-0.0016242474084720016
2048.0,-0.003160173771902919
2304.0,-0.0013540518702939153
2560.0,0.0003283956611994654
2816.0,0.002297017490491271
3072.0,0.00034487200900912285
3328.0,-0.0016229967586696148
3584.0,-0.0012492408277466893
3840.0,0.0019392421236261725
4096.0,0.0015369225293397903
4608.0,-0.0009210557327605784
5120.0,-0.0003252267197240144
5632.0,0.0011080477852374315
6144.0,-0.0009941552998498082
6656.0,0.0011434844927862287
7168.0,-0.0010131701128557324
7680.0,-0.001300607924349606
8192.0,0.0008946982561610639
9216.0,0.0007737322011962533
10240.0,-0.0007010821136645973
11264.0,-0.00036562036257237196
12288.0,-0.0004840983892790973
13312.0,0.0006487608188763261
14336.0,-0.002318793209269643
end
