version,3.0
numOfCh,1
type,point
parent_name,1-cuts
ch_type,1_1
kcount,1
numberNandB,1
brightnessNandB,1
carpet pos,0
pc,0
Time (ms),CH1 Auto-Correlation
1.0,0.04047425463795662
2.0,0.03720720112323761
3.0,0.034407589584589005
4.0,0.031947530806064606
5.0,0.029732268303632736
6.0,0.027760988101363182
7.0,0.025973951444029808
8.0,0.02432231232523918
9.0,0.022816499695181847
10.0,0.02141658216714859
11.0,0.020239826291799545
12.0,0.019129546359181404
13.0,0.018115604296326637
14.0,0.017227519303560257
15.0,0.01637404039502144
16.0,0.015635963529348373
18.0,0.0142551613971591
20.0,0.01307568047195673
22.0,0.012169142253696918
24.0,0.011398298665881157
26.0,0.010732322931289673
28.0,0.010275104083120823
30.0,0.009744386188685894
32.0,0.00918025802820921
36.0,0.00796995498239994
40.0,0.007027201820164919
44.0,0.0061855618841946125
48.0,0.005634024739265442
52.0,0.005055433139204979
56.0,0.004768760874867439
60.0,0.0044181146658957005
64.0,0.004436676390469074
72.0,0.00471623707562685
80.0,0.004281273577362299
88.0,0.003718092804774642
96.0,0.003464954672381282
104.0,0.003647454082965851
112.0,0.00319115724414587
120.0,0.0027712155133485794
128.0,0.0019217049703001976
144.0,0.0014356788014993072
160.0,0.002312849974259734
176.0,0.0028118614573031664
192.0,0.0036010188050568104
208.0,0.0021627687383443117
224.0,0.0020780209451913834
240.0,0.00156322808470577
256.0,0.001888925675302744
288.0,0.0013901250204071403
320.0,0.0005950458580628037
352.0,-0.0010484628146514297
384.0,0.0007972453604452312
416.0,0.0007245015003718436
448.0,-0.00011050555622205138
480.0,-0.0008519967668689787
512.0,-0.00010337724233977497
576.0,-0.00032564011053182185
640.0,-3.316039510536939e-06
704.0,0.00044109500595368445
768.0,0.0004987539723515511
832.0,0.0011503940913826227
896.0,0.0003592835564631969
960.0,0.0010147010907530785
1024.0,0.00028426761855371296
1152.0,0.0004823475028388202
1280.0,-0.00046588946133852005
1408.0,0.0006447359337471426
1536.0,0.000818130443803966
1664.0,-0.0006830460042692721
1792.0,-0.0002011307660723105
1920.0,-0.00028880947502329946
2048.0,0.0021996190771460533
2304.0,0.0029486166313290596
2560.0,-0.00012737649376504123
2816.0,-0.0013530965661630034
3072.0,-0.0005584493046626449
3328.0,0.0005519124097190797
3584.0,0.0010839594760909677
3840.0,0.00016170112940017134
4096.0,-0.001899918308481574
4608.0,7.13319459464401e-05
5120.0,-0.0023495310451835394
5632.0,-0.0008681006729602814
6144.0,-0.0007452405989170074
6656.0,-0.0007312484085559845
7168.0,-0.0006692394381389022
7680.0,0.0001068123965524137
8192.0,-0.0016180806560441852
9216.0,-0.0005475665093399584
10240.0,0.0007308421772904694
11264.0,0.0004929928691126406
12288.0,-0.00038999138632789254
13312.0,-0.0006139681208878756
14336.0,-0.0016202002298086882
end
