version,3.0
numOfCh,1
type,point
parent_name,1-cuts
ch_type,1_1
kcount,1
numberNandB,1
brightnessNandB,1
carpet pos,0
pc,0
Time (ms),CH1 Auto-Correlation
1.0,0.04065317288041115
2.0,0.037440307438373566
3.0,0.03466103971004486
4.0,0.032245032489299774
5.0,0.030120808631181717
6.0,0.028202509507536888
7.0,0.026556575670838356
8.0,0.025057919323444366
9.0,0.023664923384785652
10.0,0.022326083853840828
11.0,0.02115163393318653
12.0,0.020093083381652832
13.0,0.01914941892027855
14.0,0.018321380019187927
15.0,0.017548536881804466
16.0,0.016797084361314774
18.0,0.015470779500901699
20.0,0.014314383268356323
22.0,0.013389313593506813
24.0,0.012594539672136307
26.0,0.011633288115262985
28.0,0.010819061659276485
30.0,0.01002693921327591
32.0,0.009362609125673771
36.0,0.008550277911126614
40.0,0.007938040420413017
44.0,0.007863791659474373
48.0,0.00768090458586812
52.0,0.007456358056515455
56.0,0.007161677349358797
60.0,0.006672609597444534
64.0,0.005763654597103596
72.0,0.004498706664890051
80.0,0.0036455136723816395
88.0,0.003079690271988511
96.0,0.0026046258863061666
104.0,0.00220444705337286
112.0,0.0022917850874364376
120.0,0.0019738085102289915
128.0,0.0016874774591997266
144.0,0.0022598307114094496
160.0,0.0012043298920616508
176.0,0.0006940365419723094
192.0,0.001396516221575439
208.0,0.0016639140667393804
224.0,0.0015097747091203928
240.0,0.0019328518537804484
256.0,0.0006324716960079968
288.0,0.0003032488748431206
320.0,-8.963590516941622e-05
352.0,-0.000257920881267637
384.0,-0.0011406488483771682
416.0,-0.0020071214530617
448.0,-0.0019157580099999905
480.0,-0.0008199887233786285
512.0,-0.0018192754359915853
576.0,-0.0001960285153472796
640.0,0.001332557643763721
704.0,0.0008668062509968877
768.0,0.0017574018565937877
832.0,0.0004485736135393381
896.0,-0.0009906176710501313
960.0,-0.00037996613536961377
1024.0,-0.0007767404895275831
1152.0,-0.0003456072008702904
1280.0,1.4468523659161292e-05
1408.0,0.0008466969011351466
1536.0,-0.0006221699877642095
1664.0,-0.0004769762163050473
1792.0,-0.0013964253012090921
1920.0,-0.001458417740650475
2048.0,-0.0017566978931427002
2304.0,-0.0008293227292597294
2560.0,0.0013349427608773112
2816.0,-0.001003245241008699
3072.0,-0.0008368699345737696
3328.0,0.0009984644129872322
3584.0,-7.256405660882592e-05
3840.0,0.0019414781127125025
4096.0,0.0019577546045184135
4608.0,0.0013987593119964004
5120.0,-0.0005193694960325956
5632.0,-0.00043716278742067516
6144.0,-0.001168416696600616
6656.0,-0.0012468007626011968
7168.0,0.0006299314554780722
7680.0,-0.00014254037523642182
8192.0,0.001069996622391045
9216.0,-0.0003850703069474548
10240.0,-0.0013024938525632024
11264.0,0.0006747287698090076
12288.0,-0.0008637747378088534
13312.0,-0.0011971481144428253
14336.0,0.00035574319190345705
end
