version,3.0
numOfCh,1
type,point
parent_name,1-cuts
ch_type,1_1
kcount,1
numberNandB,1
brightnessNandB,1
carpet pos,0
pc,0
Time (ms),CH1 Auto-Correlation
1.0,0.09126574546098709
2.0,0.08450237661600113
3.0,0.078382208943367
4.0,0.07318247109651566
5.0,0.06853737682104111
6.0,0.06453291326761246
7.0,0.06097736954689026
8.0,0.057737577706575394
9.0,0.05470409616827965
10.0,0.05182754620909691
11.0,0.049338992685079575
12.0,0.04698612168431282
13.0,0.04475390538573265
14.0,0.04277758300304413
15.0,0.040867581963539124
16.0,0.03916553407907486
18.0,0.036019738763570786
20.0,0.03346596285700798
22.0,0.0310952328145504
24.0,0.02885233424603939
26.0,0.026770062744617462
28.0,0.024695832282304764
30.0,0.02290033921599388
32.0,0.021200142800807953
36.0,0.01831962913274765
40.0,0.016371160745620728
44.0,0.015199028886854649
48.0,0.014827420003712177
52.0,0.014298571273684502
56.0,0.013811638578772545
60.0,0.013423730619251728
64.0,0.013046306557953358
72.0,0.012482813559472561
80.0,0.011661888100206852
88.0,0.009839300997555256
96.0,0.008099808357656002
104.0,0.0062724510207772255
112.0,0.006884110625833273
120.0,0.008207266218960285
128.0,0.00812055915594101
144.0,0.007087285630404949
160.0,0.0061689382418990135
176.0,0.006389904767274857
192.0,0.005433118902146816
208.0,0.004440716467797756
224.0,0.004908588714897633
240.0,0.005124937277287245
256.0,0.004179305862635374
288.0,0.005214083008468151
320.0,0.0005955056985840201
352.0,-0.00018974095291923732
384.0,0.005294444039463997
416.0,0.001130732474848628
448.0,-0.00019503457588143647
480.0,0.004457220435142517
512.0,0.0068362802267074585
576.0,0.0043289619497954845
640.0,0.00045877142110839486
704.0,-0.0010006317170336843
768.0,1.6282176147797145e-05
832.0,0.0009048882056958973
896.0,-0.00165004120208323
960.0,-0.0034818623680621386
1024.0,-0.0029559005051851273
1152.0,-0.005487710237503052
1280.0,-0.005982466973364353
1408.0,-0.0008214809931814671
1536.0,-0.0008678458398208022
1664.0,4.852453639614396e-05
1792.0,0.0003086404758505523
1920.0,0.00029056696803309023
2048.0,0.004508140962570906
2304.0,0.002102696569636464
2560.0,0.0019564335234463215
2816.0,0.002721318043768406
3072.0,-0.0019787733908742666
3328.0,-0.0009165082010440528
3584.0,-0.0009600233752280474
3840.0,-0.0009802832501009107
4096.0,0.0012601912021636963
4608.0,-0.0019985130056738853
5120.0,-0.0010561251547187567
5632.0,-0.0011037427466362715
6144.0,0.00022341703879646957
6656.0,0.0014394541503861547
7168.0,0.0013426291989162564
7680.0,0.0025419597513973713
8192.0,0.0013194768689572811
9216.0,-0.003998161759227514
10240.0,0.003984337672591209
11264.0,-0.008568855002522469
12288.0,0.0003880246076732874
13312.0,-0.007822438143193722
14336.0,-0.0013713383814319968
end
