version,3.0
numOfCh,1
type,point
parent_name,1-cuts
ch_type,1_1
kcount,1
numberNandB,1
brightnessNandB,1
carpet pos,0
pc,0
Time (ms),CH1 Auto-Correlation
1.0,0.026454348117113113
2.0,0.02435997687280178
3.0,0.022523965686559677
4.0,0.02096668630838394
5.0,0.0196347925812006
6.0,0.018422946333885193
7.0,0.017368951812386513
8.0,0.01645556651055813
9.0,0.0156477652490139
10.0,0.01489090546965599
11.0,0.014193873852491379
12.0,0.013538780622184277
13.0,0.01299421675503254
14.0,0.012471751309931278
15.0,0.01191735453903675
16.0,0.011416005901992321
18.0,0.010494624264538288
20.0,0.009720593690872192
22.0,0.008984123356640339
24.0,0.008287739008665085
26.0,0.007603533565998077
28.0,0.007044820114970207
30.0,0.00658658891916275
32.0,0.006213698536157608
36.0,0.005579011514782906
40.0,0.004975434392690659
44.0,0.004572145640850067
48.0,0.004395928233861923
52.0,0.0040587629191577435
56.0,0.0036867677699774504
60.0,0.0033997828140854836
64.0,0.0034174234606325626
72.0,0.0034315225202590227
80.0,0.0032955179922282696
88.0,0.00309984153136611
96.0,0.002853992162272334
104.0,0.002516410080716014
112.0,0.002278139814734459
120.0,0.0017649377696216106
128.0,0.0014531074557453394
144.0,0.0009387231548316777
160.0,0.0012280720984563231
176.0,0.0013981316005811095
192.0,0.001701515051536262
208.0,0.00034036918077617884
224.0,-0.0005980360438115895
240.0,-0.0010385637870058417
256.0,-0.0013475476298481226
288.0,-0.0007087616831995547
320.0,-0.00038466454134322703
352.0,-0.0008611520170234144
384.0,-0.0006860252469778061
416.0,0.00014425406698137522
448.0,0.00014927703887224197
480.0,0.00046865822514519095
512.0,-0.00046543305506929755
576.0,0.00024690668215043843
640.0,0.001362215494737029
704.0,0.0005271571571938694
768.0,0.0003895002300851047
832.0,-0.0002014948840951547
896.0,-0.0006710021989420056
960.0,-0.001717345672659576
1024.0,-0.001969907432794571
1152.0,-0.0005197901627980173
1280.0,-6.662188388872892e-05
1408.0,-0.0007457959000021219
1536.0,-0.0014326830860227346
1664.0,0.0002807909913826734
1792.0,0.00016604083066340536
1920.0,-0.0016083229565992951
2048.0,-0.0013165829004719853
2304.0,0.00027737548225559294
2560.0,-0.00016170040180440992
2816.0,-0.00010615270730340853
3072.0,0.0005760319763794541
3328.0,0.0004016761959064752
3584.0,0.0015182826900854707
3840.0,-0.00046323248534463346
4096.0,0.0016561206430196762
4608.0,-0.000735970854293555
5120.0,-0.0006409011548385024
5632.0,-0.00025455665308982134
6144.0,5.701443660655059e-05
6656.0,0.00020835924078710377
7168.0,0.0009465926559641957
7680.0,0.0006353682838380337
8192.0,-0.000891810457687825
9216.0,-0.0006489748484455049
10240.0,-4.9916543503059074e-05
11264.0,0.0003068010264541954
12288.0,-0.0005263868952170014
13312.0,9.724563278723508e-05
14336.0,0.00031007378129288554
end
