version,3.0
numOfCh,1
type,point
parent_name,1-cuts
ch_type,1_1
kcount,1
numberNandB,1
brightnessNandB,1
carpet pos,0
pc,0
Time (ms),CH1 Auto-Correlation
1.0,0.08608163893222809
2.0,0.07938128709793091
3.0,0.0736381933093071
4.0,0.0686754658818245
5.0,0.06446903198957443
6.0,0.060551248490810394
7.0,0.05723877623677254
8.0,0.05430402606725693
9.0,0.05166354030370712
10.0,0.049261827021837234
11.0,0.04704917594790459
12.0,0.04495291784405708
13.0,0.0429188497364521
14.0,0.04117978364229202
15.0,0.039541833102703094
16.0,0.037914153188467026
18.0,0.03537839651107788
20.0,0.033134378492832184
22.0,0.030733367428183556
24.0,0.02872277982532978
26.0,0.02671881951391697
28.0,0.02514907717704773
30.0,0.024100573733448982
32.0,0.023264393210411072
36.0,0.021720079705119133
40.0,0.02027507871389389
44.0,0.019032983109354973
48.0,0.017386730760335922
52.0,0.016737261787056923
56.0,0.01611580327153206
60.0,0.015490522608160973
64.0,0.014262283220887184
72.0,0.011242040432989597
80.0,0.009333361871540546
88.0,0.00794128980487585
96.0,0.006423704791814089
104.0,0.0040254537016153336
112.0,0.0023680743761360645
120.0,0.001677605090662837
128.0,0.0006243957323022187
144.0,0.0016344152390956879
160.0,0.0016692857025191188
176.0,0.0014396439073607326
192.0,0.0011101032141596079
208.0,-0.0020618299022316933
224.0,-0.003155983053147793
240.0,-0.000892439391463995
256.0,-0.0019187520956620574
288.0,-0.003376756561920047
320.0,-0.003287010593339801
352.0,-0.0015019793063402176
384.0,0.0019452209817245603
416.0,0.003374564927071333
448.0,-9.247624257113785e-05
480.0,-0.00028250148170627654
512.0,-0.0014178530545905232
576.0,-0.0015657953917980194
640.0,-0.0010858869645744562
704.0,-0.0012571506667882204
768.0,0.0009792027994990349
832.0,0.002871791599318385
896.0,0.0019173247274011374
960.0,0.0010003313655033708
1024.0,0.00043126873788423836
1152.0,-0.003009924665093422
1280.0,-0.00408300943672657
1408.0,0.000777814129833132
1536.0,-0.006322498898953199
1664.0,-0.004025883506983519
1792.0,-0.0013374332338571548
1920.0,-5.653765765600838e-05
2048.0,-0.0032647037878632545
2304.0,0.00027696150937117636
2560.0,-0.0013852202100679278
2816.0,0.00034854866680689156
3072.0,-0.0005124524468556046
3328.0,0.0023540169931948185
3584.0,0.003963318187743425
3840.0,0.0009684067335911095
4096.0,-0.002952650422230363
4608.0,1.0059015039587393e-05
5120.0,0.00022266256564762443
5632.0,-0.002815380459651351
6144.0,0.001640149625018239
6656.0,-0.00044298433931544423
7168.0,4.9797705287346616e-05
7680.0,-0.0017483681440353394
8192.0,-0.0028207332361489534
9216.0,0.0028666032012552023
10240.0,-0.0007763018948026001
11264.0,-0.0024606771767139435
12288.0,0.0013747864868491888
13312.0,0.004250712692737579
14336.0,-0.00803343765437603
end
