version,3.0
numOfCh,1
type,point
parent_name,1-cuts
ch_type,1_1
kcount,1
numberNandB,1
brightnessNandB,1
carpet pos,0
pc,0
Time (ms),CH1 Auto-Correlation
1.0,0.041838712990283966
2.0,0.0386214479804039
3.0,0.03582523763179779
4.0,0.03343367949128151
5.0,0.0313044972717762
6.0,0.029357358813285828
7.0,0.02756471000611782
8.0,0.025939660146832466
9.0,0.02458314597606659
10.0,0.0234270840883255
11.0,0.02236376330256462
12.0,0.021423188969492912
13.0,0.020655956119298935
14.0,0.019865499809384346
15.0,0.01912420243024826
16.0,0.01840347982943058
18.0,0.017295880243182182
20.0,0.01621486432850361
22.0,0.015146241523325443
24.0,0.014159190468490124
26.0,0.01328329835087061
28.0,0.012317657470703125
30.0,0.011598392389714718
32.0,0.011030825786292553
36.0,0.009827139787375927
40.0,0.008873872458934784
44.0,0.00838630273938179
48.0,0.008093494921922684
52.0,0.007854102179408073
56.0,0.007444846443831921
60.0,0.0063226898200809956
64.0,0.005355070810765028
72.0,0.004545117262750864
80.0,0.0037407074123620987
88.0,0.0024839360266923904
96.0,0.0020529713947325945
104.0,0.0017614031676203012
112.0,0.0010765695478767157
120.0,0.001030182815156877
128.0,0.0012285306584089994
144.0,0.0007717220578342676
160.0,0.00040188789716921747
176.0,-0.00017618489800952375
192.0,-0.00018293425091542304
208.0,-0.00036585700581781566
224.0,-0.00010558377107372507
240.0,-0.00044455836177803576
256.0,-0.0011957180686295033
288.0,-0.0009671802981756628
320.0,-0.0012758866650983691
352.0,-0.0004936855402775109
384.0,0.0005936769885011017
416.0,-0.0007923226221464574
448.0,-0.0009424033341929317
480.0,0.0006358883692882955
512.0,0.0011634767288342118
576.0,-0.00044439543853513896
640.0,3.870477303280495e-05
704.0,0.0005785602843388915
768.0,-0.00047574908239766955
832.0,-0.001187328016385436
896.0,1.7881324311019853e-05
960.0,-0.0015832792269065976
1024.0,-5.312566281645559e-05
1152.0,-0.0003564859216567129
1280.0,-0.0016756332479417324
1408.0,-0.002544113202020526
1536.0,-0.0010704681044444442
1664.0,0.0011818940984085202
1792.0,0.0013453435385599732
1920.0,-0.000797469459939748
2048.0,0.0012904562754556537
2304.0,0.00040292367339134216
2560.0,0.0006830355850979686
2816.0,-0.0012100288877263665
3072.0,-0.0012545718345791101
3328.0,-0.0003036057169083506
3584.0,0.00032649809145368636
3840.0,-0.0006297099171206355
4096.0,0.0007814491982571781
4608.0,-0.0007158549851737916
5120.0,-0.0011479229433462024
5632.0,-6.344946450553834e-05
6144.0,0.0007295637624338269
6656.0,0.00017562993161845952
7168.0,0.000293308577965945
7680.0,0.00038024329114705324
8192.0,0.00043774794903583825
9216.0,-0.00021303689572960138
10240.0,0.00014830286090727895
11264.0,-0.0006033601239323616
12288.0,0.00012880256690550596
13312.0,-0.00020408905402291566
14336.0,0.00022550976427737623
end
