version,3.0
numOfCh,1
type,point
parent_name,1-cuts
ch_type,1_1
kcount,1
numberNandB,1
brightnessNandB,1
carpet pos,0
pc,0
Time (ms),CH1 Auto-Correlation
1.0,0.08375624567270279
2.0,0.07696588337421417
3.0,0.07116524875164032
4.0,0.06616821140050888
5.0,0.06156708672642708
6.0,0.05730845034122467
7.0,0.053646158427000046
8.0,0.0503372885286808
9.0,0.04756869748234749
10.0,0.044915102422237396
11.0,0.04268212616443634
12.0,0.040551766753196716
13.0,0.03851820155978203
14.0,0.03691445291042328
15.0,0.03549264743924141
16.0,0.034186311066150665
18.0,0.03164491057395935
20.0,0.029548635706305504
22.0,0.028079066425561905
24.0,0.026808882132172585
26.0,0.02535269409418106
28.0,0.02428099699318409
30.0,0.023056676611304283
32.0,0.021621178835630417
36.0,0.01925138756632805
40.0,0.0170358307659626
44.0,0.015439478680491447
48.0,0.013806283473968506
52.0,0.011840756051242352
56.0,0.01061149314045906
60.0,0.009235871955752373
64.0,0.008279531262814999
72.0,0.007776055950671434
80.0,0.006998348515480757
88.0,0.0073519516736269
96.0,0.007982627488672733
104.0,0.007866978645324707
112.0,0.006514527834951878
120.0,0.005534961819648743
128.0,0.004326513968408108
144.0,0.0016292204381898046
160.0,-0.0009215366444550455
176.0,-0.00012682015949394554
192.0,0.0018326834542676806
208.0,0.0042505692690610886
224.0,0.002926828805357218
240.0,0.0014635621337220073
256.0,0.00032763363560661674
288.0,-0.0035267637576907873
320.0,-0.003073565661907196
352.0,-0.004016720224171877
384.0,-0.0033001156989485025
416.0,-0.004125754348933697
448.0,-0.002049295697361231
480.0,-0.0017806219402700663
512.0,-0.002355305477976799
576.0,-0.0032748382072895765
640.0,-0.0007256595999933779
704.0,0.0012525304919108748
768.0,-0.0007218540413305163
832.0,-0.0006464533507823944
896.0,-0.0012907389318570495
960.0,0.001368973171338439
1024.0,0.0006213295855559409
1152.0,-0.0014749950496479869
1280.0,0.0013229628093540668
1408.0,0.0004857050080318004
1536.0,0.002956931944936514
1664.0,0.003240058897063136
1792.0,-0.001476012752391398
1920.0,-0.0002007935254368931
2048.0,-0.0015542319742962718
2304.0,-0.004185803700238466
2560.0,-0.0001319209550274536
2816.0,0.004540600813925266
3072.0,-1.1009874469891656e-05
3328.0,-0.0024245979730039835
3584.0,-0.0034465210046619177
3840.0,-0.00025468229432590306
4096.0,-0.00284389266744256
4608.0,0.001360687892884016
5120.0,-0.0025531521532684565
5632.0,-0.00027172116097062826
6144.0,-0.0012591613922268152
6656.0,0.0006484196637757123
7168.0,0.0016914320876821876
7680.0,-4.1902585508069023e-05
8192.0,-0.0008435180061496794
9216.0,0.0005845596897415817
10240.0,-0.0001673068036325276
11264.0,-0.0002660333120729774
12288.0,-0.00010912920697592199
13312.0,0.001747694332152605
14336.0,-8.431822789134458e-05
end
