version,3.0
numOfCh,1
type,point
parent_name,1-cuts
ch_type,1_1
kcount,1
numberNandB,1
brightnessNandB,1
carpet pos,0
pc,0
Time (ms),CH1 Auto-Correlation
1.0,0.08760539442300797
2.0,0.08078758418560028
3.0,0.07463622093200684
4.0,0.06950010359287262
5.0,0.06518084555864334
6.0,0.06118606775999069
7.0,0.05761803314089775
8.0,0.05416906625032425
9.0,0.051074981689453125
10.0,0.048112355172634125
11.0,0.04563075304031372
12.0,0.04345512390136719
13.0,0.04144899919629097
14.0,0.03956633061170578
15.0,0.03774925321340561
16.0,0.03614513576030731
18.0,0.03298205882310867
20.0,0.03031708113849163
22.0,0.027757680043578148
24.0,0.02546628750860691
26.0,0.023458387702703476
28.0,0.021870438009500504
30.0,0.0202814768999815
32.0,0.018842754885554314
36.0,0.016757069155573845
40.0,0.014518344774842262
44.0,0.0132488664239645
48.0,0.012321339920163155
52.0,0.011600586585700512
56.0,0.010024087503552437
60.0,0.008479563519358635
64.0,0.008527155965566635
72.0,0.008994042873382568
80.0,0.009704764932394028
88.0,0.00949807371944189
96.0,0.007959553971886635
104.0,0.005109208635985851
112.0,0.003154212376102805
120.0,0.002405697712674737
128.0,0.000522226095199585
144.0,-0.0030248542316257954
160.0,-0.00412012217566371
176.0,-0.004304874688386917
192.0,-0.004749986343085766
208.0,-0.002596189035102725
224.0,0.0008905784925445914
240.0,0.0015348377637565136
256.0,0.0028588101267814636
288.0,0.002023725537583232
320.0,0.0033262965735048056
352.0,0.0033069183118641376
384.0,0.0018898602575063705
416.0,0.0020889309234917164
448.0,-5.18615088367369e-05
480.0,-0.0016519149066880345
512.0,-0.0024521308951079845
576.0,0.0025448256637901068
640.0,0.002575049875304103
704.0,-0.0024736321065574884
768.0,-0.003449965501204133
832.0,-0.0013434254797175527
896.0,-0.0012222265359014273
960.0,-0.0004868065589107573
1024.0,0.0008053226629272103
1152.0,0.00012482068268582225
1280.0,0.002370995469391346
1408.0,-0.003454383695498109
1536.0,-0.00047383634955622256
1664.0,-0.0029467036947607994
1792.0,-0.0024645256344228983
1920.0,4.2982712329830974e-05
2048.0,0.0003270550223533064
2304.0,0.000827163690701127
2560.0,-0.0024215851444751024
2816.0,-0.00012068873911630362
3072.0,-0.0012997016310691833
3328.0,0.002585486276075244
3584.0,-0.002930078888311982
3840.0,-0.001562689896672964
4096.0,0.0005103483563289046
4608.0,-1.0429979738546535e-05
5120.0,0.00043162028305232525
5632.0,0.0002646834182087332
6144.0,-3.4721595056907972e-06
6656.0,-0.0007024871301837265
7168.0,0.002351308474317193
7680.0,0.0016450246330350637
8192.0,0.0009480502340011299
9216.0,-0.0013879579491913319
10240.0,-0.002292883349582553
11264.0,-0.00101715128403157
12288.0,0.0013833311386406422
13312.0,0.0008749342523515224
14336.0,-0.0006150435074232519
end
