version,3.0
numOfCh,1
type,point
parent_name,1-cuts
ch_type,1_1
kcount,1
numberNandB,1
brightnessNandB,1
carpet pos,0
pc,0
Time (ms),CH1 Auto-Correlation
1.0,0.027471961453557014
2.0,0.025305168703198433
3.0,0.023462016135454178
4.0,0.021843349561095238
5.0,0.02047589421272278
6.0,0.01923489011824131
7.0,0.01814088225364685
8.0,0.017102764919400215
9.0,0.016175786033272743
10.0,0.01532701589167118
11.0,0.014539336785674095
12.0,0.013796105980873108
13.0,0.013102337718009949
14.0,0.012503940612077713
15.0,0.011974137276411057
16.0,0.0115177221596241
18.0,0.010724589228630066
20.0,0.0099655631929636
22.0,0.009299182333052158
24.0,0.008664079010486603
26.0,0.008113144896924496
28.0,0.00765785900875926
30.0,0.007319425232708454
32.0,0.007046769373118877
36.0,0.006500779185444117
40.0,0.0062775881960988045
44.0,0.005750230513513088
48.0,0.005351763218641281
52.0,0.005150109063833952
56.0,0.00502695981413126
60.0,0.005037081427872181
64.0,0.005041531287133694
72.0,0.0046470677480101585
80.0,0.004102029837667942
88.0,0.003556282026693225
96.0,0.0030993898399174213
104.0,0.0028234547935426235
112.0,0.0027870999183505774
120.0,0.0027933581732213497
128.0,0.0028750684577971697
144.0,0.002542683854699135
160.0,0.001966263633221388
176.0,0.001580558717250824
192.0,0.0009240200743079185
208.0,0.0007173561025410891
224.0,0.0006140661425888538
240.0,0.0003590447304304689
256.0,0.000368374225217849
288.0,0.0013975532492622733
320.0,0.0008075881050899625
352.0,0.0015172733692452312
384.0,0.0009721440146677196
416.0,0.00032361072953790426
448.0,-5.997568223392591e-05
480.0,-0.0005364450626075268
512.0,0.000646266620606184
576.0,0.00019451582920737565
640.0,0.0009798487881198525
704.0,0.00072811747668311
768.0,0.0006598364561796188
832.0,0.0007763445610180497
896.0,0.00048568472266197205
960.0,4.1908577259164304e-05
1024.0,-0.0006898200372233987
1152.0,-0.0025533821899443865
1280.0,-0.001357218949124217
1408.0,-6.91473251208663e-05
1536.0,-0.00035163178108632565
1664.0,-0.0002692385751288384
1792.0,-0.001122955814935267
1920.0,-0.001246196567080915
2048.0,-0.0007696874090470374
2304.0,0.00014852956519462168
2560.0,-0.0006520699243992567
2816.0,-3.902365642716177e-05
3072.0,0.0008387020789086819
3328.0,-0.00039807078428566456
3584.0,0.00032368444954045117
3840.0,0.0003804893640335649
4096.0,-0.0004720111028291285
4608.0,-5.758251063525677e-05
5120.0,-0.0006771476473659277
5632.0,-0.000752022082451731
6144.0,-0.0005732978461310267
6656.0,0.001605092897079885
7168.0,0.0018073737155646086
7680.0,-6.219180795596913e-05
8192.0,-0.0011322202626615763
9216.0,-0.0002459276292938739
10240.0,-0.0008327808463945985
11264.0,-0.0010357481660321355
12288.0,0.00022642537078354508
13312.0,0.001349637983366847
14336.0,0.0013147337595000863
end
