version,3.0
numOfCh,1
type,point
parent_name,1-cuts
ch_type,1_1
kcount,1
numberNandB,1
brightnessNandB,1
carpet pos,0
pc,0
Time (ms),CH1 Auto-Correlation
1.0,0.08431150019168854
2.0,0.07754089683294296
3.0,0.07151535153388977
4.0,0.06643185019493103
5.0,0.061795927584171295
6.0,0.058000415563583374
7.0,0.054607000201940536
8.0,0.05157514289021492
9.0,0.048823919147253036
10.0,0.046341706067323685
11.0,0.04397502541542053
12.0,0.04189880192279816
13.0,0.0399111807346344
14.0,0.038043566048145294
15.0,0.03618840500712395
16.0,0.03446866571903229
18.0,0.03137070685625076
20.0,0.028894122689962387
22.0,0.027146562933921814
24.0,0.02565864846110344
26.0,0.023991240188479424
28.0,0.022627051919698715
30.0,0.021239854395389557
32.0,0.01985561102628708
36.0,0.01840945892035961
40.0,0.01672014780342579
44.0,0.014928176067769527
48.0,0.013919076882302761
52.0,0.0131354546174407
56.0,0.012448412366211414
60.0,0.011469288729131222
64.0,0.010251684114336967
72.0,0.009027010761201382
80.0,0.007803189568221569
88.0,0.008002150803804398
96.0,0.007769487798213959
104.0,0.007314497604966164
112.0,0.007979679852724075
120.0,0.009626766666769981
128.0,0.009829378686845303
144.0,0.005909815896302462
160.0,0.0008484849240630865
176.0,-0.0005886276485398412
192.0,-0.0001082419985323213
208.0,0.0006236789631657302
224.0,0.001541613950394094
240.0,0.003900120034813881
256.0,0.00347155868075788
288.0,0.0018654619343578815
320.0,0.004372372757643461
352.0,0.002796672750264406
384.0,0.0035457145422697067
416.0,0.005158237647265196
448.0,0.0069564878940582275
480.0,0.004083484411239624
512.0,0.003222486935555935
576.0,0.0006463536992669106
640.0,0.00010845626820810139
704.0,-0.002366637112572789
768.0,-0.0019195424392819405
832.0,-0.003806549124419689
896.0,-0.0014657663414254785
960.0,-0.0022812543902546167
1024.0,-0.006178214214742184
1152.0,-0.0017225941410288215
1280.0,0.000537848798558116
1408.0,-0.0010408618254587054
1536.0,-0.00498113501816988
1664.0,-0.00021689178538508713
1792.0,0.002484319033101201
1920.0,-0.0008309565018862486
2048.0,-0.002435748465359211
2304.0,0.0011421506060287356
2560.0,0.001424439949914813
2816.0,-0.0033139954321086407
3072.0,-0.0002625151246320456
3328.0,0.00017045946151483804
3584.0,0.0020808891858905554
3840.0,0.0012559512397274375
4096.0,0.003582794452086091
4608.0,-0.0017007113201543689
5120.0,-0.0018233767477795482
5632.0,-0.0030488844495266676
6144.0,-0.001366660464555025
6656.0,0.0010982392122969031
7168.0,0.0008786243852227926
7680.0,0.0016220214311033487
8192.0,-0.0011134704109281301
9216.0,0.0030628121457993984
10240.0,-0.007031747605651617
11264.0,0.0036645103245973587
12288.0,-0.004829632118344307
13312.0,0.0013312660157680511
14336.0,-0.011107763275504112
end
