version,3.0
numOfCh,1
type,point
parent_name,1-cuts
ch_type,1_1
kcount,1
numberNandB,1
brightnessNandB,1
carpet pos,0
pc,0
Time (ms),CH1 Auto-Correlation
1.0,0.10118735581636429
2.0,0.09416119754314423
3.0,0.08794257789850235
4.0,0.0824229046702385
5.0,0.07768823951482773
6.0,0.0734434574842453
7.0,0.06967700272798538
8.0,0.06632556766271591
9.0,0.06321727484464645
10.0,0.06029392033815384
11.0,0.05752207338809967
12.0,0.05511188507080078
13.0,0.052895888686180115
14.0,0.05075787380337715
15.0,0.048870015889406204
16.0,0.047192394733428955
18.0,0.043934836983680725
20.0,0.040924619883298874
22.0,0.03828569874167442
24.0,0.035591110587120056
26.0,0.03354702889919281
28.0,0.032028548419475555
30.0,0.03067590855062008
32.0,0.029240231961011887
36.0,0.02733738347887993
40.0,0.02598077617585659
44.0,0.024731704965233803
48.0,0.02327391318976879
52.0,0.022303352132439613
56.0,0.021610615774989128
60.0,0.02055349200963974
64.0,0.019006364047527313
72.0,0.015471183694899082
80.0,0.013112214393913746
88.0,0.010819678194820881
96.0,0.010140137746930122
104.0,0.010260227136313915
112.0,0.009287090972065926
120.0,0.00839961413294077
128.0,0.007148501928895712
144.0,0.005032460205256939
160.0,0.005330317188054323
176.0,0.003155727172270417
192.0,0.0020503909327089787
208.0,0.00042144270264543593
224.0,0.0005874381167814136
240.0,0.0023222435265779495
256.0,0.005158294923603535
288.0,0.0019537298940122128
320.0,0.001344311167486012
352.0,-0.0014801346696913242
384.0,-0.0002475744404364377
416.0,0.00023220537696033716
448.0,-0.0010525708785280585
480.0,-0.005015169735997915
512.0,-0.007244110573083162
576.0,-0.00878085009753704
640.0,-0.0028086393140256405
704.0,-0.00029839170747436583
768.0,0.00047199285472743213
832.0,-0.0030944033060222864
896.0,-0.002359366277232766
960.0,-0.00599188357591629
1024.0,-0.004683468956500292
1152.0,-0.0019079223275184631
1280.0,0.0052897073328495026
1408.0,0.006733227055519819
1536.0,0.005355360452085733
1664.0,0.006998743861913681
1792.0,0.001034909626469016
1920.0,0.0020242519676685333
2048.0,0.0016218576347455382
2304.0,-0.005418378859758377
2560.0,-0.0037259897217154503
2816.0,0.003757015336304903
3072.0,0.0025690624024719
3328.0,0.0033877191599458456
3584.0,0.0033674994483590126
3840.0,-0.01196628250181675
4096.0,-0.007060095202177763
4608.0,0.0017180285649374127
5120.0,-0.0016745120519772172
5632.0,-0.0033317196648567915
6144.0,0.002080894773826003
6656.0,-0.0026368116959929466
7168.0,-0.004067626781761646
7680.0,0.0006745433202013373
8192.0,-0.00037364440504461527
9216.0,-2.074199619528372e-05
10240.0,-6.501925963675603e-05
11264.0,0.0005761847132816911
12288.0,0.002468765014782548
13312.0,-0.002728559309616685
14336.0,0.004824153147637844
end
