version,3.0
numOfCh,1
type,point
parent_name,1-cuts
ch_type,1_1
kcount,1
numberNandB,1
brightnessNandB,1
carpet pos,0
pc,0
Time (ms),CH1 Auto-Correlation
1.0,0.09619312733411789
2.0,0.08910907059907913
3.0,0.08305826038122177
4.0,0.07776499539613724
5.0,0.07323123514652252
6.0,0.06914611905813217
7.0,0.06547617167234421
8.0,0.06209335848689079
9.0,0.05929093807935715
10.0,0.05684546381235123
11.0,0.05476933345198631
12.0,0.052961498498916626
13.0,0.05127812922000885
14.0,0.049809057265520096
15.0,0.04837358742952347
16.0,0.04710100218653679
18.0,0.044595807790756226
20.0,0.042071450501680374
22.0,0.03956155478954315
24.0,0.037029534578323364
26.0,0.03455774858593941
28.0,0.03253724426031113
30.0,0.030657943338155746
32.0,0.029216481372714043
36.0,0.02781856060028076
40.0,0.02674698270857334
44.0,0.026348741725087166
48.0,0.02550007589161396
52.0,0.0244431234896183
56.0,0.02335015870630741
60.0,0.022485125809907913
64.0,0.02219134196639061
72.0,0.0209787730127573
80.0,0.01993398927152157
88.0,0.019082270562648773
96.0,0.01757228374481201
104.0,0.017033258453011513
112.0,0.01631264016032219
120.0,0.01615462265908718
128.0,0.017400400713086128
144.0,0.016217857599258423
160.0,0.014268477447330952
176.0,0.011078123934566975
192.0,0.008570368401706219
208.0,0.00800286140292883
224.0,0.007812479976564646
240.0,0.008537325076758862
256.0,0.006339782848954201
288.0,0.006542721297591925
320.0,0.005331927910447121
352.0,0.0052856276743113995
384.0,0.004622835200279951
416.0,0.004462385084480047
448.0,0.0062662106938660145
480.0,0.004798671696335077
512.0,0.001814050949178636
576.0,-0.0010869137477129698
640.0,-0.0005564933526329696
704.0,-9.730312012834474e-05
768.0,-0.006080980412662029
832.0,-0.008239724673330784
896.0,-0.01004596147686243
960.0,-0.009672606363892555
1024.0,-0.007894052192568779
1152.0,-0.004185114987194538
1280.0,-0.00222260900773108
1408.0,0.0003901880991179496
1536.0,-0.0016172012547031045
1664.0,9.600343037163839e-05
1792.0,0.007778045255690813
1920.0,0.0025853042025119066
2048.0,0.0023662305902689695
2304.0,-0.002547189127653837
2560.0,0.00113996013533324
2816.0,0.0013728518970310688
3072.0,-0.0012019164860248566
3328.0,-0.001723627676256001
3584.0,0.0012631722493097186
3840.0,0.0018130888929590583
4096.0,-0.0002902693522628397
4608.0,0.00046163529623299837
5120.0,-0.0033607135992497206
5632.0,-0.004984189290553331
6144.0,0.00026380090275779366
6656.0,0.004810089245438576
7168.0,-0.0007046214304864407
7680.0,-0.002076363656669855
8192.0,-0.0005586676415987313
9216.0,-0.004026514478027821
10240.0,0.0005207982612773776
11264.0,0.0019868456292897463
12288.0,0.00275558908469975
13312.0,-0.0020841078367084265
14336.0,-0.0017397318733856082
end
