version,3.0
numOfCh,1
type,point
parent_name,1-cuts
ch_type,1_1
kcount,1
numberNandB,1
brightnessNandB,1
carpet pos,0
pc,0
Time (ms),CH1 Auto-Correlation
1.0,0.0842098519206047
2.0,0.07725150138139725
3.0,0.07154613733291626
4.0,0.06668703258037567
5.0,0.06238942593336105
6.0,0.058614056557416916
7.0,0.05528845265507698
8.0,0.052431896328926086
9.0,0.0500921793282032
10.0,0.04786975309252739
11.0,0.045643359422683716
12.0,0.04340874403715134
13.0,0.041334133595228195
14.0,0.03937568888068199
15.0,0.03774097189307213
16.0,0.036233771592378616
18.0,0.034105755388736725
20.0,0.03212510794401169
22.0,0.03024350292980671
24.0,0.02885279431939125
26.0,0.027519868686795235
28.0,0.026640048250555992
30.0,0.025723231956362724
32.0,0.024829117581248283
36.0,0.022682003676891327
40.0,0.020411107689142227
44.0,0.018642589449882507
48.0,0.017018921673297882
52.0,0.015280071645975113
56.0,0.014124340377748013
60.0,0.013744904659688473
64.0,0.013225741684436798
72.0,0.01191671658307314
80.0,0.010942960157990456
88.0,0.010524670593440533
96.0,0.011122516356408596
104.0,0.010098381899297237
112.0,0.007993649691343307
120.0,0.007517603226006031
128.0,0.007238137535750866
144.0,0.006942464504390955
160.0,0.0050120227970182896
176.0,0.004385034088045359
192.0,0.003523400751873851
208.0,0.0013267657486721873
224.0,0.0008484584977850318
240.0,0.001193893956951797
256.0,0.001973274629563093
288.0,0.0033994419500231743
320.0,0.004066857974976301
352.0,0.0012990706600248814
384.0,1.8557504688487825e-07
416.0,0.0036490997299551964
448.0,0.0029594057705253363
480.0,0.003372593317180872
512.0,0.003126890165731311
576.0,-0.0005805885302834213
640.0,-0.0011976414825767279
704.0,0.001937893801368773
768.0,-0.0005788711132481694
832.0,-0.0024325887206941843
896.0,-0.003453141311183572
960.0,-0.0017154423985630274
1024.0,-0.00020232697715982795
1152.0,-0.0022138056810945272
1280.0,-0.0003530714602675289
1408.0,-0.0011235821293666959
1536.0,0.005499149672687054
1664.0,0.0025827449280768633
1792.0,0.0006251241429708898
1920.0,-0.001598823699168861
2048.0,-0.0017382524674758315
2304.0,-0.0018012527143582702
2560.0,-0.00016426379443146288
2816.0,0.005949006881564856
3072.0,0.0018949504010379314
3328.0,0.001958075910806656
3584.0,-2.8031408874085173e-05
3840.0,-0.005073210224509239
4096.0,-0.004967777524143457
4608.0,-0.001120226806961
5120.0,0.0007100632064975798
5632.0,-0.0017790275160223246
6144.0,-0.0004141864483244717
6656.0,-0.00113722775131464
7168.0,-0.0035632799845188856
7680.0,0.003930262289941311
8192.0,0.00034157774643972516
9216.0,0.0008730088593438268
10240.0,0.0005724920192733407
11264.0,0.00038309014053083956
12288.0,-0.0022678477689623833
13312.0,-0.004338668193668127
14336.0,-0.0026222344022244215
end
