version,3.0
numOfCh,1
type,point
parent_name,1-cuts
ch_type,1_1
kcount,1
numberNandB,1
brightnessNandB,1
carpet pos,0
pc,0
Time (ms),CH1 Auto-Correlation
1.0,0.027488911524415016
2.0,0.025407006964087486
3.0,0.023678427562117577
4.0,0.022170500829815865
5.0,0.02076687477529049
6.0,0.01953551359474659
7.0,0.018424639478325844
8.0,0.01745275780558586
9.0,0.016601014882326126
10.0,0.01577000878751278
11.0,0.01498132199048996
12.0,0.014293638989329338
13.0,0.013685565441846848
14.0,0.013180571608245373
15.0,0.012712954543530941
16.0,0.012237003073096275
18.0,0.011466686613857746
20.0,0.010739471763372421
22.0,0.01017771102488041
24.0,0.009755113162100315
26.0,0.009456313215196133
28.0,0.009124786593019962
30.0,0.008714476600289345
32.0,0.00826349202543497
36.0,0.00753170158714056
40.0,0.007170400582253933
44.0,0.006928155664354563
48.0,0.006657024845480919
52.0,0.006517849862575531
56.0,0.006320236716419458
60.0,0.0059889028780162334
64.0,0.0057241166941821575
72.0,0.004940992686897516
80.0,0.004295738413929939
88.0,0.004483665805310011
96.0,0.0041046142578125
104.0,0.003410064149647951
112.0,0.0027391917537897825
120.0,0.002172020496800542
128.0,0.0017782622016966343
144.0,0.0010083948727697134
160.0,0.0005971258506178856
176.0,-0.00015547414659522474
192.0,-0.00023731726105324924
208.0,-0.000513080507516861
224.0,-0.000538306194357574
240.0,-0.0006300220265984535
256.0,-0.000894330907613039
288.0,-0.0008939040126278996
320.0,-0.001299623865634203
352.0,-0.0009369517210870981
384.0,-0.0015220176428556442
416.0,-0.0016809701919555664
448.0,-0.0016649814788252115
480.0,-0.0008158658165484667
512.0,-0.0006403803126886487
576.0,-0.0002021694090217352
640.0,-0.0011330421548336744
704.0,-0.0001451082935091108
768.0,0.0005876325885765254
832.0,0.0006462816381826997
896.0,0.0009728712029755116
960.0,0.001956330146640539
1024.0,0.0013341708108782768
1152.0,0.0006288720178417861
1280.0,0.00022419809829443693
1408.0,-0.00022258480021264404
1536.0,0.00041844916995614767
1664.0,0.000918663979973644
1792.0,4.626878217095509e-05
1920.0,-0.0016478818142786622
2048.0,-0.0002747888502199203
2304.0,0.0005868127336725593
2560.0,0.0007120904629118741
2816.0,3.5882173960999353e-06
3072.0,-0.001310231862589717
3328.0,0.00080258579691872
3584.0,0.001500459504313767
3840.0,0.00032975568319670856
4096.0,-0.001802800688892603
4608.0,-9.18097430258058e-05
5120.0,0.00016434903955087066
5632.0,-0.002055730437859893
6144.0,0.0007442813948728144
6656.0,-0.0008393888710997999
7168.0,0.000797394837718457
7680.0,-0.0011603148886933923
8192.0,-0.00015911378432065248
9216.0,-0.0009979383321478963
10240.0,9.013099770527333e-05
11264.0,0.0007255017990246415
12288.0,-0.00048101693391799927
13312.0,0.00013170648890081793
14336.0,0.0008511986816301942
end
