version,3.0
numOfCh,1
type,point
parent_name,1-cuts
ch_type,1_1
kcount,1
numberNandB,1
brightnessNandB,1
carpet pos,0
pc,0
Time (ms),CH1 Auto-Correlation
1.0,0.028010493144392967
2.0,0.02577168494462967
3.0,0.023859364911913872
4.0,0.022167392075061798
5.0,0.020688144490122795
6.0,0.019370242953300476
7.0,0.018300442025065422
8.0,0.017301755025982857
9.0,0.016304027289152145
10.0,0.015348289161920547
11.0,0.014500212855637074
12.0,0.013725117780268192
13.0,0.013079889118671417
14.0,0.012485062703490257
15.0,0.01197995524853468
16.0,0.0114890830591321
18.0,0.010769790969789028
20.0,0.010060903616249561
22.0,0.009441064670681953
24.0,0.008774936199188232
26.0,0.008229462429881096
28.0,0.007725068833678961
30.0,0.007208192255347967
32.0,0.006684017367660999
36.0,0.0054571679793298244
40.0,0.004717355594038963
44.0,0.004053669050335884
48.0,0.003449543146416545
52.0,0.0030742313247174025
56.0,0.00268737506121397
60.0,0.0021958595607429743
64.0,0.0015577900921925902
72.0,0.0009331397595815361
80.0,0.0006987331435084343
88.0,0.0005968713667243719
96.0,0.0008689317619428039
104.0,0.0008394023752771318
112.0,0.0008743529324419796
120.0,0.0005212551332078874
128.0,0.0005163657478988171
144.0,0.001678353059105575
160.0,0.0024543185718357563
176.0,0.0020461061503738165
192.0,0.001152977580204606
208.0,-0.00024743308313190937
224.0,-0.0002451217151246965
240.0,0.00024013055372051895
256.0,0.0009419996058568358
288.0,0.0008738876204006374
320.0,0.00033746822737157345
352.0,0.0006990695837885141
384.0,0.000328578898916021
416.0,-0.0002798043715301901
448.0,-0.00038856896571815014
480.0,-0.0004195355577394366
512.0,-1.2316979336901568e-05
576.0,5.336262984201312e-05
640.0,0.0006111960392445326
704.0,0.0008145354222506285
768.0,-9.245793626178056e-05
832.0,-3.08526105072815e-05
896.0,-0.0007918247138150036
960.0,-0.0008021673420444131
1024.0,-0.0001630275510251522
1152.0,-0.0001374618586851284
1280.0,0.0005466248840093613
1408.0,0.0017638575518503785
1536.0,9.453928214497864e-05
1664.0,0.00027917695115320385
1792.0,0.0008765541715547442
1920.0,0.000651633832603693
2048.0,0.0006884936010465026
2304.0,-8.680533937877044e-05
2560.0,-0.0012224901001900434
2816.0,-0.0009025729959830642
3072.0,-0.00030473939841613173
3328.0,0.0005650342209264636
3584.0,0.00017803939408622682
3840.0,-0.0005558195989578962
4096.0,-0.0013336268020793796
4608.0,-0.00047884383820928633
5120.0,-0.00018666150572244078
5632.0,0.0001510037836851552
6144.0,-0.0010816768044605851
6656.0,-3.386124444659799e-05
7168.0,-3.328494358356693e-06
7680.0,-2.058778773061931e-05
8192.0,-5.210028393776156e-05
9216.0,-0.0002979281998705119
10240.0,0.0006217667832970619
11264.0,-5.121673530084081e-05
12288.0,0.00010272918007103726
13312.0,-0.00021908580674789846
14336.0,5.252699338598177e-05
end
