version,3.0
numOfCh,1
type,point
parent_name,1-cuts
ch_type,1_1
kcount,1
numberNandB,1
brightnessNandB,1
carpet pos,0
pc,0
Time (ms),CH1 Auto-Correlation
1.0,0.09171521663665771
2.0,0.08500325679779053
3.0,0.07924576848745346
4.0,0.07413627207279205
5.0,0.0698552057147026
6.0,0.06603541970252991
7.0,0.06258375942707062
8.0,0.05959565192461014
9.0,0.05681299790740013
10.0,0.05429253727197647
11.0,0.05198320746421814
12.0,0.049845267087221146
13.0,0.04782191291451454
14.0,0.04600977525115013
15.0,0.044560037553310394
16.0,0.04298669099807739
18.0,0.0401507131755352
20.0,0.037524882704019547
22.0,0.03521948680281639
24.0,0.033380262553691864
26.0,0.03142997995018959
28.0,0.029599297791719437
30.0,0.027887942269444466
32.0,0.02662069909274578
36.0,0.024143017828464508
40.0,0.02157486230134964
44.0,0.019537175074219704
48.0,0.017847653478384018
52.0,0.01691979542374611
56.0,0.016137082129716873
60.0,0.014995434321463108
64.0,0.013840106315910816
72.0,0.012401851825416088
80.0,0.011330478824675083
88.0,0.009938002564013004
96.0,0.008863200433552265
104.0,0.007449437398463488
112.0,0.007883810438215733
120.0,0.007856864482164383
128.0,0.007917511276900768
144.0,0.007801097817718983
160.0,0.007113186176866293
176.0,0.004323428962379694
192.0,0.003105522831901908
208.0,-0.0016531366854906082
224.0,-0.0051388246938586235
240.0,-0.007047213148325682
256.0,-0.005865291692316532
288.0,-0.004926692228764296
320.0,-0.0034413719549775124
352.0,-0.0028387531638145447
384.0,-0.0033823447301983833
416.0,-0.0021906313486397266
448.0,-0.00290129566565156
480.0,-0.0015014777891337872
512.0,-0.002149553271010518
576.0,0.0007396498695015907
640.0,-0.0010328172938898206
704.0,0.0006215187604539096
768.0,0.0020164866000413895
832.0,0.006545578595250845
896.0,0.008663765154778957
960.0,0.0033909783232957125
1024.0,0.001470189425162971
1152.0,-0.003254861570894718
1280.0,0.0005502923741005361
1408.0,-0.002187101636081934
1536.0,-0.00044272042578086257
1664.0,0.004691646434366703
1792.0,0.0035204843152314425
1920.0,-0.006169621832668781
2048.0,-0.006050427909940481
2304.0,-0.0018350157188251615
2560.0,-0.0022305771708488464
2816.0,-0.004581755492836237
3072.0,0.004231537692248821
3328.0,-0.0013044564984738827
3584.0,-0.0028246899601072073
3840.0,-0.0028037098236382008
4096.0,0.004344811663031578
4608.0,0.0006951635587029159
5120.0,0.004803897347301245
5632.0,-0.00018590093532111496
6144.0,0.0008009184384718537
6656.0,-0.0021323298569768667
7168.0,-0.00037142421933822334
7680.0,-0.0024372534826397896
8192.0,-0.00031068979296833277
9216.0,-8.94164350029314e-06
10240.0,0.002146947430446744
11264.0,-0.0024557618889957666
12288.0,-0.003725543152540922
13312.0,-0.0005558239063248038
14336.0,0.0002096552198054269
end
