version,3.0
numOfCh,1
type,point
parent_name,1-cuts
ch_type,1_1
kcount,1
numberNandB,1
brightnessNandB,1
carpet pos,0
pc,0
Time (ms),CH1 Auto-Correlation
1.0,0.08056782186031342
2.0,0.07368042320013046
3.0,0.06786037236452103
4.0,0.0630459114909172
5.0,0.058894410729408264
6.0,0.055393822491168976
7.0,0.052098531275987625
8.0,0.04878915846347809
9.0,0.045904647558927536
10.0,0.043341219425201416
11.0,0.0410776361823082
12.0,0.03907766938209534
13.0,0.03711828589439392
14.0,0.03547549992799759
15.0,0.03390638902783394
16.0,0.032209109514951706
18.0,0.029328180477023125
20.0,0.02705681137740612
22.0,0.025067340582609177
24.0,0.02363649569451809
26.0,0.022165659815073013
28.0,0.021004043519496918
30.0,0.020351842045783997
32.0,0.019106337800621986
36.0,0.016931956633925438
40.0,0.014617248438298702
44.0,0.012757714837789536
48.0,0.01160841342061758
52.0,0.011133595369756222
56.0,0.01148676685988903
60.0,0.01239763107150793
64.0,0.012306343764066696
72.0,0.011126479133963585
80.0,0.01051682885736227
88.0,0.01093699038028717
96.0,0.01020017545670271
104.0,0.008740798570215702
112.0,0.007324468810111284
120.0,0.007436925545334816
128.0,0.006522000301629305
144.0,0.005312767811119556
160.0,0.006570921279489994
176.0,0.003929873928427696
192.0,0.0016787321073934436
208.0,0.0024517567362636328
224.0,0.0030719167552888393
240.0,0.003715574974194169
256.0,0.001024766475893557
288.0,0.0014109616167843342
320.0,-0.0010955611942335963
352.0,-0.0014945778530091047
384.0,-0.0016843794146552682
416.0,-0.002102859551087022
448.0,-0.002201169729232788
480.0,6.269009463721886e-05
512.0,-0.0010653187055140734
576.0,-0.002329398412257433
640.0,0.00048474589129909873
704.0,-0.0011797439074143767
768.0,0.002369402442127466
832.0,0.0008136176620610058
896.0,0.003787953406572342
960.0,0.003345395438373089
1024.0,-0.0008137188269756734
1152.0,-0.001019527786411345
1280.0,-0.0024600434117019176
1408.0,0.00033207531669177115
1536.0,-0.0011732509592548013
1664.0,0.0005690584657713771
1792.0,0.0017637715209275484
1920.0,0.003731110133230686
2048.0,-0.00043837830889970064
2304.0,-0.0021862564608454704
2560.0,0.0010468775872141123
2816.0,0.005032549146562815
3072.0,0.0021728919818997383
3328.0,0.0019558623898774385
3584.0,0.001886481768451631
3840.0,-0.0002895969373639673
4096.0,-0.0008734625298529863
4608.0,-0.0005004435079172254
5120.0,-0.0015047498745843768
5632.0,0.0001850797125371173
6144.0,0.000495097367092967
6656.0,-0.0008288890239782631
7168.0,0.0005935005028732121
7680.0,-0.0040392447263002396
8192.0,-0.003944250755012035
9216.0,-3.4575496101751924e-05
10240.0,-0.001607486279681325
11264.0,-0.00297754374332726
12288.0,-0.0007990301237441599
13312.0,0.0011375256581231952
14336.0,-0.0016289495397359133
end
