version,3.0
numOfCh,1
type,point
parent_name,1-cuts
ch_type,1_1
kcount,1
numberNandB,1
brightnessNandB,1
carpet pos,0
pc,0
Time (ms),CH1 Auto-Correlation
1.0,0.029181476682424545
2.0,0.027069026604294777
3.0,0.025273678824305534
4.0,0.023718545213341713
5.0,0.022371910512447357
6.0,0.0212022066116333
7.0,0.020086128264665604
8.0,0.019167320802807808
9.0,0.018263500183820724
10.0,0.01743854582309723
11.0,0.016726266592741013
12.0,0.01607820950448513
13.0,0.01552839856594801
14.0,0.015013404190540314
15.0,0.014499293640255928
16.0,0.014115330763161182
18.0,0.01346991490572691
20.0,0.01300983689725399
22.0,0.012557347305119038
24.0,0.012023004703223705
26.0,0.011496069841086864
28.0,0.010984132066369057
30.0,0.010412503033876419
32.0,0.009893985465168953
36.0,0.008741358295083046
40.0,0.007672978099435568
44.0,0.007073319051414728
48.0,0.006650145165622234
52.0,0.006093406118452549
56.0,0.005622761324048042
60.0,0.005232453811913729
64.0,0.00499269412830472
72.0,0.004510559607297182
80.0,0.004127955064177513
88.0,0.003369229147210717
96.0,0.0032587379682809114
104.0,0.003485156921669841
112.0,0.0032622378785163164
120.0,0.003290485357865691
128.0,0.0032542182598263025
144.0,0.002244838746264577
160.0,0.0017325729131698608
176.0,0.0008198033319786191
192.0,0.0005456336657516658
208.0,0.0015663814265280962
224.0,0.0016643054550513625
240.0,0.0024343153927475214
256.0,0.0024937947746366262
288.0,0.0028517800383269787
320.0,0.0022290695924311876
352.0,0.001352743711322546
384.0,0.0006447763298638165
416.0,-0.0001566069113323465
448.0,-9.799509280128404e-05
480.0,-0.0008493306231684983
512.0,-0.00018506297783460468
576.0,-0.0003532873233780265
640.0,1.4371073120855726e-05
704.0,0.0005373894819058478
768.0,0.00019737202092073858
832.0,-0.00017739688337314874
896.0,-0.0007962401723489165
960.0,-0.0005306369857862592
1024.0,0.0005227175424806774
1152.0,-0.0008469764143228531
1280.0,-0.0018026955658569932
1408.0,0.0007403588388115168
1536.0,-0.0003355212393216789
1664.0,-0.00012766591680701822
1792.0,0.0003786078013945371
1920.0,-0.0003015079419128597
2048.0,0.000336958997650072
2304.0,-0.0008911907207220793
2560.0,0.0004079025238752365
2816.0,0.00020329885592218488
3072.0,-0.00062679557595402
3328.0,-0.0007054635789245367
3584.0,0.001054231310263276
3840.0,0.00030116975540295243
4096.0,-0.0020215294789522886
4608.0,-0.00041655608220025897
5120.0,0.0003346462908666581
5632.0,-0.0007484617526642978
6144.0,-0.00153377337846905
6656.0,0.00017311822739429772
7168.0,0.0008579622372053564
7680.0,-0.0002429272426525131
8192.0,0.001680564135313034
9216.0,-6.250033038668334e-05
10240.0,0.00011229238589294255
11264.0,-0.0019020946929231286
12288.0,0.0012698147911578417
13312.0,-0.00317641394212842
14336.0,-0.001423169276677072
end
