version,3.0
numOfCh,1
type,point
parent_name,1-cuts
ch_type,1_1
kcount,1
numberNandB,1
brightnessNandB,1
carpet pos,0
pc,0
Time (ms),CH1 Auto-Correlation
1.0,0.02704661712050438
2.0,0.024852856993675232
3.0,0.023031223565340042
4.0,0.021370893344283104
5.0,0.019966263324022293
6.0,0.018729761242866516
7.0,0.017732324078679085
8.0,0.016815634444355965
9.0,0.016030441969633102
10.0,0.015321383252739906
11.0,0.014692071825265884
12.0,0.014103254303336143
13.0,0.013603110797703266
14.0,0.01312634814530611
15.0,0.012705701403319836
16.0,0.012312854640185833
18.0,0.011445531621575356
20.0,0.01059210766106844
22.0,0.009808809496462345
24.0,0.009154105558991432
26.0,0.008570794016122818
28.0,0.008056530728936195
30.0,0.007561995182186365
32.0,0.007004239596426487
36.0,0.006101861130446196
40.0,0.005260748788714409
44.0,0.004550086800009012
48.0,0.004188733175396919
52.0,0.0038524542469531298
56.0,0.0035342522896826267
60.0,0.00344353960826993
64.0,0.0033993434626609087
72.0,0.0027439750265330076
80.0,0.0024670425336807966
88.0,0.0024032145738601685
96.0,0.0021473595406860113
104.0,0.0014657313004136086
112.0,0.0011430983431637287
120.0,0.0008769856649450958
128.0,0.0008748897816985846
144.0,0.0014086251612752676
160.0,0.0007536857156082988
176.0,0.0003332893247716129
192.0,0.00034335782402195036
208.0,0.00021361472317948937
224.0,0.00011864957923535258
240.0,0.00022635386267211288
256.0,0.0002530014899093658
288.0,8.767030521994457e-05
320.0,8.977956895250827e-05
352.0,-0.0005328868282958865
384.0,-0.000657944823615253
416.0,-0.0010335512924939394
448.0,-0.0012435616226866841
480.0,-0.0013199858367443085
512.0,-0.0013766973279416561
576.0,-0.002328552072867751
640.0,-0.0015543772606179118
704.0,-0.0008219597511924803
768.0,-0.00026202271692454815
832.0,-1.5147466001508292e-05
896.0,-0.0010713081574067473
960.0,-3.120101609965786e-05
1024.0,0.0006455348338931799
1152.0,0.001154951867647469
1280.0,0.00028763539739884436
1408.0,-0.0015265005640685558
1536.0,-0.0010206283768638968
1664.0,-0.0002618885482661426
1792.0,-0.0003881323500536382
1920.0,0.0014550737105309963
2048.0,0.0008381230290979147
2304.0,0.0002949440968222916
2560.0,0.00024508649948984385
2816.0,0.0005779772764071822
3072.0,-0.0006583560607396066
3328.0,-0.0017415016191080213
3584.0,0.0005850011948496103
3840.0,0.0009296801872551441
4096.0,1.83800257218536e-05
4608.0,0.0002037405938608572
5120.0,-5.3411422413773835e-05
5632.0,-0.0007584642735309899
6144.0,0.0005040880059823394
6656.0,-0.00023763527860864997
7168.0,0.0005637509166263044
7680.0,-0.0009731407626532018
8192.0,-0.0006180938216857612
9216.0,0.00011754911975003779
10240.0,-0.0005622840253636241
11264.0,0.00011852655734401196
12288.0,-8.97244899533689e-05
13312.0,0.0001598123781150207
14336.0,0.0002612972166389227
end
