version,3.0
numOfCh,1
type,point
parent_name,1-cuts
ch_type,1_1
kcount,1
numberNandB,1
brightnessNandB,1
carpet pos,0
pc,0
Time (ms),CH1 Auto-Correlation
1.0,0.040020182728767395
2.0,0.03676608204841614
3.0,0.03396764025092125
4.0,0.03156797215342522
5.0,0.0294351689517498
6.0,0.02757439948618412
7.0,0.025923633947968483
8.0,0.024479100480675697
9.0,0.02307651750743389
10.0,0.021808577701449394
11.0,0.02070195972919464
12.0,0.0196230448782444
13.0,0.018687857314944267
14.0,0.017950937151908875
15.0,0.017419446259737015
16.0,0.016849294304847717
18.0,0.01581287942826748
20.0,0.01498226635158062
22.0,0.014208593405783176
24.0,0.013556144200265408
26.0,0.01294481847435236
28.0,0.012408411130309105
30.0,0.011781367473304272
32.0,0.01123100332915783
36.0,0.010018871165812016
40.0,0.008960917592048645
44.0,0.008216403424739838
48.0,0.007487399037927389
52.0,0.007192409131675959
56.0,0.007181055843830109
60.0,0.0067132338881492615
64.0,0.00593235669657588
72.0,0.0053128525614738464
80.0,0.0054427762515842915
88.0,0.005345707293599844
96.0,0.00460493890568614
104.0,0.00385177880525589
112.0,0.003384537994861603
120.0,0.003000378841534257
128.0,0.002722625620663166
144.0,0.0021141567267477512
160.0,0.001973462523892522
176.0,0.0021528182551264763
192.0,0.0020590140484273434
208.0,0.0018654422601684928
224.0,0.0012034039245918393
240.0,0.0011315105948597193
256.0,0.0004673615621868521
288.0,-0.0009321703109890223
320.0,-0.00120849150698632
352.0,-0.0006446145125664771
384.0,0.0009548991220071912
416.0,0.0017200363799929619
448.0,0.0017794149462133646
480.0,0.0011038817465305328
512.0,0.0010995272314175963
576.0,-0.0005115332896821201
640.0,0.00244315923191607
704.0,0.002216417109593749
768.0,0.0004790359234903008
832.0,-0.00033562167664058506
896.0,-0.00010541406663833186
960.0,-0.0008699809550307691
1024.0,0.0007476400933228433
1152.0,0.0012335657374933362
1280.0,0.0009850083151832223
1408.0,0.0008185898186638951
1536.0,6.128437235020101e-05
1664.0,0.0010953681776300073
1792.0,0.003090442158281803
1920.0,0.002642775420099497
2048.0,0.002090896014124155
2304.0,0.00026906109997071326
2560.0,0.0024838245008140802
2816.0,-0.00012025739852106199
3072.0,-0.00012428296031430364
3328.0,0.000229621262405999
3584.0,-0.00047899651690386236
3840.0,0.0010439952602609992
4096.0,-0.0006613904261030257
4608.0,-0.0004631011397577822
5120.0,0.00033194973366335034
5632.0,0.0006157459574751556
6144.0,-0.0016496498137712479
6656.0,-0.0009390799095854163
7168.0,0.00029397031175903976
7680.0,-5.3037663747090846e-05
8192.0,-0.0012957158032804728
9216.0,-0.0010112052550539374
10240.0,-0.0018147648079320788
11264.0,-0.0015240065986290574
12288.0,-0.001551430206745863
13312.0,-0.0014149326598271728
14336.0,-0.0010236355010420084
end
