version,3.0
numOfCh,1
type,point
parent_name,1-cuts
ch_type,1_1
kcount,1
numberNandB,1
brightnessNandB,1
carpet pos,0
pc,0
Time (ms),CH1 Auto-Correlation
1.0,0.027052806690335274
2.0,0.024923358112573624
3.0,0.023116501048207283
4.0,0.021514050662517548
5.0,0.0201488696038723
6.0,0.01892733760178089
7.0,0.017886314541101456
8.0,0.016980215907096863
9.0,0.016134468838572502
10.0,0.01538227591663599
11.0,0.014654818922281265
12.0,0.014014922082424164
13.0,0.013476279564201832
14.0,0.012975985184311867
15.0,0.012520352378487587
16.0,0.012095797806978226
18.0,0.011274069547653198
20.0,0.010667623020708561
22.0,0.010140668600797653
24.0,0.009703687392175198
26.0,0.009309574961662292
28.0,0.008970070630311966
30.0,0.008562350645661354
32.0,0.008064480498433113
36.0,0.00719187967479229
40.0,0.006708413828164339
44.0,0.006511293817311525
48.0,0.006177602335810661
52.0,0.005418567918241024
56.0,0.004823511000722647
60.0,0.004222199320793152
64.0,0.0037135302554816008
72.0,0.002849500859156251
80.0,0.0028731301426887512
88.0,0.003358607878908515
96.0,0.002487835241481662
104.0,0.001529861125163734
112.0,0.0009762453846633434
120.0,0.0011435840278863907
128.0,0.0012437008554115891
144.0,0.0011522868881002069
160.0,0.0010626678122207522
176.0,0.0015164930373430252
192.0,0.0016905105439946055
208.0,0.0019699647091329098
224.0,0.0023845850955694914
240.0,0.0024439652916043997
256.0,0.001984157133847475
288.0,0.0016731304349377751
320.0,0.0009760850807651877
352.0,0.0003444881003815681
384.0,0.0006621983484365046
416.0,0.001316708861850202
448.0,0.000607453053817153
480.0,-0.0005378752248361707
512.0,-0.0010570547310635448
576.0,-0.0010082570370286703
640.0,-0.000730421335902065
704.0,-0.0003295688657090068
768.0,0.00032677946728654206
832.0,0.0003633949672803283
896.0,-0.0006203388911671937
960.0,-0.0012928711948916316
1024.0,-0.00015215176972560585
1152.0,-7.396041473839432e-05
1280.0,6.932663382031024e-05
1408.0,-0.0006066668429411948
1536.0,-0.0006593798752874136
1664.0,-0.0010516475886106491
1792.0,-0.0024615996517241
1920.0,-0.0017319682519882917
2048.0,-0.0017734074499458075
2304.0,-0.0008127043838612735
2560.0,-0.00026680275914259255
2816.0,0.00036929885391145945
3072.0,0.0009790532058104873
3328.0,0.0009096811409108341
3584.0,-0.000487395329400897
3840.0,-0.0009012602386064827
4096.0,-0.000655062438454479
4608.0,0.0002495823136996478
5120.0,-0.0009135223226621747
5632.0,0.0011220008600503206
6144.0,0.00021342679974623024
6656.0,0.001302950782701373
7168.0,0.0006120235193520784
7680.0,-0.0005909204483032227
8192.0,-0.0013410275569185615
9216.0,-0.00027595661231316626
10240.0,0.0003055698471143842
11264.0,-7.308630301849917e-06
12288.0,7.248133624671027e-05
13312.0,0.0003475661505945027
14336.0,-3.216664117644541e-05
end
