version,3.0
numOfCh,1
type,point
parent_name,1-cuts
ch_type,1_1
kcount,1
numberNandB,1
brightnessNandB,1
carpet pos,0
pc,0
Time (ms),CH1 Auto-Correlation
1.0,0.02597629651427269
2.0,0.02390146441757679
3.0,0.02212974801659584
4.0,0.020572997629642487
5.0,0.019177649170160294
6.0,0.017953332513570786
7.0,0.016844509169459343
8.0,0.015836816281080246
9.0,0.014957968145608902
10.0,0.014151882380247116
11.0,0.013410256244242191
12.0,0.0126807214692235
13.0,0.011990386061370373
14.0,0.01136546116322279
15.0,0.010813964530825615
16.0,0.010341362096369267
18.0,0.00960466731339693
20.0,0.008917277678847313
22.0,0.008209381252527237
24.0,0.0075551229529082775
26.0,0.0069669377990067005
28.0,0.0063882567919790745
30.0,0.0059724776074290276
32.0,0.005562182050198317
36.0,0.004984454717487097
40.0,0.004265910945832729
44.0,0.0037304686848074198
48.0,0.0034186551347374916
52.0,0.003355293767526746
56.0,0.003479507751762867
60.0,0.0035316934809088707
64.0,0.003338403068482876
72.0,0.0032955901697278023
80.0,0.002650132868438959
88.0,0.0020152151118963957
96.0,0.0018173507414758205
104.0,0.001471238792873919
112.0,0.0008906294824555516
120.0,0.0008835986955091357
128.0,0.0010188721353188157
144.0,0.0015198081964626908
160.0,0.0012909065699204803
176.0,0.0011526645394042134
192.0,0.0009730563615448773
208.0,0.0011654566042125225
224.0,0.0003137957537546754
240.0,0.00032823203946463764
256.0,-0.001113331876695156
288.0,-0.0009405493037775159
320.0,-0.0011493010679259896
352.0,0.00048493093345314264
384.0,0.0006138919852674007
416.0,0.00015380889817606658
448.0,-0.00023884876281954348
480.0,-0.0004057247133459896
512.0,-0.0007126300479285419
576.0,-0.0006544830393977463
640.0,-0.0012609778204932809
704.0,-0.0004332249518483877
768.0,4.278375126887113e-05
832.0,0.00011854195327032357
896.0,0.00024570521782152355
960.0,0.00016410110401920974
1024.0,-0.0002754568704403937
1152.0,-4.2982923332601786e-05
1280.0,-0.00013539454084821045
1408.0,6.769671745132655e-05
1536.0,-0.00011498181993374601
1664.0,-0.0005312946159392595
1792.0,9.125508950091898e-05
1920.0,-2.2353255189955235e-05
2048.0,-0.000154693509102799
2304.0,-6.667960406048223e-06
2560.0,-0.0003388953919056803
2816.0,-0.0002546271134633571
3072.0,-0.00033634217106737196
3328.0,0.0001518429780844599
3584.0,0.0007346187485381961
3840.0,-0.00039172981632873416
4096.0,-0.0002626940549816936
4608.0,-0.0006037101848050952
5120.0,-8.087745663942769e-05
5632.0,0.0003696157655213028
6144.0,-0.00016127584967762232
6656.0,-0.0001677592081250623
7168.0,-0.000736344198230654
7680.0,0.0006272793980315328
8192.0,0.0003197818878106773
9216.0,-0.0001946933043655008
10240.0,-0.0001840669137891382
11264.0,0.0004025170346722007
12288.0,-0.0004037052276544273
13312.0,0.000402388017391786
14336.0,-0.00024269400455523282
end
