version,3.0
numOfCh,1
type,point
parent_name,1-cuts
ch_type,1_1
kcount,1
numberNandB,1
brightnessNandB,1
carpet pos,0
pc,0
Time (ms),CH1 Auto-Correlation
1.0,0.0836307629942894
2.0,0.07688456028699875
3.0,0.0709683746099472
4.0,0.06600932031869888
5.0,0.06173337623476982
6.0,0.05792400985956192
7.0,0.05460980907082558
8.0,0.05177891626954079
9.0,0.049103498458862305
10.0,0.04667322337627411
11.0,0.044645924121141434
12.0,0.04277019202709198
13.0,0.04137212783098221
14.0,0.03999248519539833
15.0,0.03862687572836876
16.0,0.03740610554814339
18.0,0.034782085567712784
20.0,0.0324101522564888
22.0,0.030201217159628868
24.0,0.028042428195476532
26.0,0.026091191917657852
28.0,0.025001803413033485
30.0,0.024181287735700607
32.0,0.023882705718278885
36.0,0.02337280474603176
40.0,0.021940425038337708
44.0,0.01995887979865074
48.0,0.018512561917304993
52.0,0.017135336995124817
56.0,0.01593218930065632
60.0,0.014413289725780487
64.0,0.012527390383183956
72.0,0.010745723731815815
80.0,0.010055797174572945
88.0,0.008264195173978806
96.0,0.008007828146219254
104.0,0.007659208029508591
112.0,0.006727874744683504
120.0,0.005747297778725624
128.0,0.003551431465893984
144.0,0.00043886221828870475
160.0,0.001262217410840094
176.0,0.0020300131291151047
192.0,0.003019625088199973
208.0,0.0031416560523211956
224.0,0.0013488121330738068
240.0,0.0019867189694195986
256.0,0.004099649842828512
288.0,0.005078443791717291
320.0,0.005257209297269583
352.0,0.004345170222222805
384.0,-5.79395673412364e-05
416.0,0.0006535997963510454
448.0,0.0009737915825098753
480.0,9.553123527439311e-05
512.0,-0.0018299968214705586
576.0,-0.0015128126833587885
640.0,-0.0017480116803199053
704.0,0.00030693155713379383
768.0,0.0008007133728824556
832.0,0.000922607141546905
896.0,0.0005338519113138318
960.0,0.0009189530392177403
1024.0,0.00306423706933856
1152.0,-0.00135909637901932
1280.0,-0.0003642392985057086
1408.0,-0.005632766056805849
1536.0,-0.0026393597945570946
1664.0,-0.005916120484471321
1792.0,-0.0035739154554903507
1920.0,-0.005783663131296635
2048.0,-0.00696317246183753
2304.0,-0.002667482476681471
2560.0,0.00171894661616534
2816.0,-0.00010458323959028348
3072.0,0.0008953508222475648
3328.0,0.003255668329074979
3584.0,0.0031502079218626022
3840.0,0.0024290173314511776
4096.0,-0.00112205371260643
4608.0,-0.002821977948769927
5120.0,-0.002534102415665984
5632.0,0.0005596145056188107
6144.0,0.0033683127257972956
6656.0,0.0015905118780210614
7168.0,-0.0014883833937346935
7680.0,-0.0012274528853595257
8192.0,-0.006475853268057108
9216.0,0.00596229312941432
10240.0,-0.001528408844023943
11264.0,-0.0045983134768903255
12288.0,0.002740936353802681
13312.0,0.0009134520660154521
14336.0,-0.002174968598410487
end
