version,3.0
numOfCh,1
type,point
parent_name,1-cuts
ch_type,1_1
kcount,1
numberNandB,1
brightnessNandB,1
carpet pos,0
pc,0
Time (ms),CH1 Auto-Correlation
1.0,0.08797725290060043
2.0,0.08115021139383316
3.0,0.07543466240167618
4.0,0.07054232060909271
5.0,0.06627388298511505
6.0,0.0625229999423027
7.0,0.05923697352409363
8.0,0.056333739310503006
9.0,0.053531840443611145
10.0,0.050951555371284485
11.0,0.04863202944397926
12.0,0.04650244489312172
13.0,0.04434517025947571
14.0,0.04256463050842285
15.0,0.041094716638326645
16.0,0.039537057280540466
18.0,0.03695867210626602
20.0,0.034621160477399826
22.0,0.0327121838927269
24.0,0.030935630202293396
26.0,0.029206102713942528
28.0,0.027282431721687317
30.0,0.025416018441319466
32.0,0.023934094235301018
36.0,0.02144026942551136
40.0,0.019799290224909782
44.0,0.01816851645708084
48.0,0.016662925481796265
52.0,0.015737606212496758
56.0,0.014508293941617012
60.0,0.012959450483322144
64.0,0.011235007084906101
72.0,0.009837687946856022
80.0,0.009151825681328773
88.0,0.007727771997451782
96.0,0.00634097820147872
104.0,0.003941013012081385
112.0,0.0025020483881235123
120.0,0.0026609909255057573
128.0,0.003437465988099575
144.0,0.0036874734796583652
160.0,0.003121740883216262
176.0,0.0017233662074431777
192.0,-0.0003878915449604392
208.0,-0.0015946351923048496
224.0,-0.0010295429965481162
240.0,0.0006532821571454406
256.0,-8.239169983426109e-05
288.0,-0.0011482361005619168
320.0,-0.002901801373809576
352.0,-0.002797562861815095
384.0,-0.0030385064892470837
416.0,-0.0044696033000946045
448.0,-0.002209677593782544
480.0,-0.0016914800507947803
512.0,0.00022533208539243788
576.0,-0.00010547179408604279
640.0,0.0002825456322170794
704.0,-0.0030192132107913494
768.0,-0.000413208530517295
832.0,0.002434790600091219
896.0,0.0017540707485750318
960.0,0.005676011089235544
1024.0,0.003225435968488455
1152.0,-0.004208045545965433
1280.0,-0.0014819123316556215
1408.0,-0.0013470143312588334
1536.0,0.0017142053693532944
1664.0,-0.002389867091551423
1792.0,-2.940743070212193e-05
1920.0,0.0012920215958729386
2048.0,-0.0003134190628770739
2304.0,-0.001459437538869679
2560.0,-0.0005365782999433577
2816.0,0.0007689775084145367
3072.0,0.0006454488611780107
3328.0,-0.0011199433356523514
3584.0,0.00211120187304914
3840.0,-0.0010957187041640282
4096.0,-0.003679092740640044
4608.0,0.0004419933829922229
5120.0,0.0028088116087019444
5632.0,0.0021490042563527822
6144.0,0.0006134479772299528
6656.0,-0.0006250302540138364
7168.0,-0.0018241145880892873
7680.0,-0.003027064958587289
8192.0,-0.0015559407183900476
9216.0,-0.001327475649304688
10240.0,-0.00018923853349406272
11264.0,4.840502151637338e-05
12288.0,-0.0011643966427072883
13312.0,-0.001418627449311316
14336.0,-0.0020370841957628727
end
