version,3.0
numOfCh,1
type,point
parent_name,1-cuts
ch_type,1_1
kcount,1
numberNandB,1
brightnessNandB,1
carpet pos,0
pc,0
Time (ms),CH1 Auto-Correlation
1.0,0.03861216455698013
2.0,0.03540899232029915
3.0,0.03268301486968994
4.0,0.030315201729536057
5.0,0.028272179886698723
6.0,0.026409760117530823
7.0,0.024784313514828682
8.0,0.023294100537896156
9.0,0.02192760817706585
10.0,0.020635826513171196
11.0,0.01949847675859928
12.0,0.018471160903573036
13.0,0.017446942627429962
14.0,0.01659388281404972
15.0,0.015780940651893616
16.0,0.014993453398346901
18.0,0.013684217818081379
20.0,0.012504642829298973
22.0,0.011510769836604595
24.0,0.010665666311979294
26.0,0.009730384685099125
28.0,0.00894112978130579
30.0,0.008253753185272217
32.0,0.007814117707312107
36.0,0.007178687956184149
40.0,0.006417024880647659
44.0,0.00612581055611372
48.0,0.006032432429492474
52.0,0.005887157283723354
56.0,0.005247295834124088
60.0,0.004699909593909979
64.0,0.004264471121132374
72.0,0.0034093456342816353
80.0,0.0030983479227870703
88.0,0.0026459521614015102
96.0,0.0020496617071330547
104.0,0.0017503115814179182
112.0,0.0017206640914082527
120.0,0.0017346725799143314
128.0,0.0017719018505886197
144.0,0.0009175084996968508
160.0,0.001653236453421414
176.0,0.0019996988121420145
192.0,0.00021247765107546002
208.0,-0.0005079348338767886
224.0,-0.0004631538758985698
240.0,-0.0012888228520751
256.0,-0.0008663036278448999
288.0,-0.0026878206990659237
320.0,-0.0014859967632219195
352.0,-0.0007899191696196795
384.0,0.0002760010538622737
416.0,0.0009127055527642369
448.0,-0.00011754839215427637
480.0,-0.0005617457209154963
512.0,-0.0009405736345797777
576.0,-0.00043901248136535287
640.0,-0.0018015161622315645
704.0,-0.0015106289647519588
768.0,-0.0013693405780941248
832.0,-0.0009244602406397462
896.0,-0.0006667798152193427
960.0,-0.00011132376675959677
1024.0,-0.00045725569361820817
1152.0,0.0013566402485594153
1280.0,0.0011636221315711737
1408.0,9.510532254353166e-05
1536.0,-0.0007733984384685755
1664.0,-0.0002494504733476788
1792.0,-0.001085760653950274
1920.0,-0.0011766160605475307
2048.0,0.0017046398716047406
2304.0,-0.00010832989937625825
2560.0,0.0008264583302661777
2816.0,-0.0008946874877437949
3072.0,0.00124534429050982
3328.0,-0.00011865355918416753
3584.0,0.0008984101004898548
3840.0,8.480982796754688e-05
4096.0,-0.0003853306407108903
4608.0,-0.0005050710751675069
5120.0,0.000561010732781142
5632.0,-0.0006722596008330584
6144.0,0.00041742835310287774
6656.0,0.0008301506168209016
7168.0,-0.0010796011192724109
7680.0,-0.00025737175019457936
8192.0,-0.0007160068489611149
9216.0,-5.0267895858269185e-05
10240.0,-0.001168731483630836
11264.0,0.0008482722914777696
12288.0,-0.0011257178848609328
13312.0,-0.0006141147459857166
14336.0,-0.0001952670863829553
end
