version,3.0
numOfCh,1
type,point
parent_name,1-cuts
ch_type,1_1
kcount,1
numberNandB,1
brightnessNandB,1
carpet pos,0
pc,0
Time (ms),CH1 Auto-Correlation
1.0,0.03927197307348251
2.0,0.03605859354138374
3.0,0.033318400382995605
4.0,0.031012464314699173
5.0,0.02902941219508648
6.0,0.027379276230931282
7.0,0.02585536055266857
8.0,0.024474870413541794
9.0,0.023254718631505966
10.0,0.022171778604388237
11.0,0.021129252389073372
12.0,0.020314427092671394
13.0,0.01955927535891533
14.0,0.018901092931628227
15.0,0.018136709928512573
16.0,0.017472881823778152
18.0,0.016052670776844025
20.0,0.014636833220720291
22.0,0.013379331678152084
24.0,0.012176577933132648
26.0,0.01129920594394207
28.0,0.010638088919222355
30.0,0.009849987924098969
32.0,0.009180677123367786
36.0,0.008352198638021946
40.0,0.007654762826859951
44.0,0.006884192582219839
48.0,0.006363996770232916
52.0,0.0061585549265146255
56.0,0.005901951342821121
60.0,0.005033804569393396
64.0,0.00432579917833209
72.0,0.003954775631427765
80.0,0.004173481371253729
88.0,0.004148687701672316
96.0,0.004384484142065048
104.0,0.0044943178072571754
112.0,0.0038968862500041723
120.0,0.003352816216647625
128.0,0.002809737576171756
144.0,0.0022593322210013866
160.0,0.00111929583363235
176.0,0.0008844144176691771
192.0,0.0016480244230479002
208.0,0.002881737658753991
224.0,0.00365613610483706
240.0,0.0047175344079732895
256.0,0.005000897217541933
288.0,0.0022845573257654905
320.0,0.00138961267657578
352.0,0.002027282491326332
384.0,0.002240827539935708
416.0,0.002418718533590436
448.0,0.002035924233496189
480.0,0.0017779211048036814
512.0,0.000651249720249325
576.0,-8.65666224854067e-05
640.0,0.00068669393658638
704.0,0.00036952507798559964
768.0,-0.0004057467740494758
832.0,0.0008994816453196108
896.0,-0.00031716859666630626
960.0,-0.0012996819568797946
1024.0,-0.0011258815648034215
1152.0,0.0006173865403980017
1280.0,-0.0019055233569815755
1408.0,-0.0008285978110507131
1536.0,-0.0012608300894498825
1664.0,-0.000284818175714463
1792.0,-0.0002869593445211649
1920.0,-0.0007134196348488331
2048.0,-0.0002525744494050741
2304.0,0.0006630787975154817
2560.0,0.00015646155225113034
2816.0,-0.0008266120566986501
3072.0,-0.001028176979161799
3328.0,-0.00020532574853859842
3584.0,-0.0006088154041208327
3840.0,0.00017927323642652482
4096.0,-0.0006965847569517791
4608.0,-0.0007800761377438903
5120.0,-0.00047734688268974423
5632.0,0.0009624729282222688
6144.0,0.000796182663179934
6656.0,-0.0019769652280956507
7168.0,-0.001518200384452939
7680.0,-0.0003776946396101266
8192.0,-0.0003856487455777824
9216.0,3.53623581759166e-05
10240.0,-0.0017872279277071357
11264.0,0.0025383790489286184
12288.0,0.0006823862786404788
13312.0,-0.00014699822349939495
14336.0,-0.0003131928388029337
end
