version,3.0
numOfCh,1
type,point
parent_name,1-cuts
ch_type,1_1
kcount,1
numberNandB,1
brightnessNandB,1
carpet pos,0
pc,0
Time (ms),CH1 Auto-Correlation
1.0,0.08364057540893555
2.0,0.07679888606071472
3.0,0.07100013643503189
4.0,0.0659027099609375
5.0,0.06148867309093475
6.0,0.05772330239415169
7.0,0.054348159581422806
8.0,0.051165226846933365
9.0,0.04817676916718483
10.0,0.04551905021071434
11.0,0.043043576180934906
12.0,0.04066238924860954
13.0,0.0384318009018898
14.0,0.036375824362039566
15.0,0.03471514210104942
16.0,0.03322873264551163
18.0,0.03035992756485939
20.0,0.027816973626613617
22.0,0.02577304095029831
24.0,0.024031933397054672
26.0,0.02243977226316929
28.0,0.020683528855443
30.0,0.018784373998641968
32.0,0.016944173723459244
36.0,0.01563664898276329
40.0,0.015351800248026848
44.0,0.014793509617447853
48.0,0.014336921274662018
52.0,0.013795516453683376
56.0,0.012696990743279457
60.0,0.012075647711753845
64.0,0.011339064687490463
72.0,0.009926180355250835
80.0,0.008795100264251232
88.0,0.008890831843018532
96.0,0.008332991972565651
104.0,0.008754023350775242
112.0,0.008025074377655983
120.0,0.007437875960022211
128.0,0.006799555383622646
144.0,0.005773416720330715
160.0,0.006151356268674135
176.0,0.005852377507835627
192.0,0.0044174399226903915
208.0,0.004005445167422295
224.0,0.0032127518206834793
240.0,0.001881416654214263
256.0,-0.0003947884833905846
288.0,0.0004888150142505765
320.0,0.000789870333392173
352.0,0.002294551581144333
384.0,0.00015018564590718597
416.0,-0.0005297730676829815
448.0,-0.004560756031423807
480.0,-0.002261857036501169
512.0,-0.0021251088473945856
576.0,0.0005132890655659139
640.0,0.0018671683501452208
704.0,0.0008125159074552357
768.0,-5.91134448768571e-05
832.0,6.208212289493531e-05
896.0,0.001512977760285139
960.0,-0.0015955978306010365
1024.0,0.00018085219198837876
1152.0,0.0003629529383033514
1280.0,-0.0007423012284561992
1408.0,-0.0018034998793154955
1536.0,-0.002804970135912299
1664.0,-0.0028669664170593023
1792.0,0.0005049869068898261
1920.0,0.0004966318374499679
2048.0,0.0007146085263229907
2304.0,-0.0009419609559699893
2560.0,-0.003129629185423255
2816.0,-0.0009198751649819314
3072.0,-0.0007473505684174597
3328.0,0.0011116667883470654
3584.0,0.0027572724502533674
3840.0,-0.0016477747121825814
4096.0,0.0017411797307431698
4608.0,0.0011882003163918853
5120.0,0.001987587194889784
5632.0,-0.0009678166825324297
6144.0,-0.0023982683196663857
6656.0,9.387150930706412e-05
7168.0,-0.0006130610127002001
7680.0,-0.003926833625882864
8192.0,-0.002708862302824855
9216.0,0.0005112233920954168
10240.0,-0.0001864961814135313
11264.0,0.00010132496390724555
12288.0,-0.0016592582687735558
13312.0,0.0013218458043411374
14336.0,-0.0014177389675751328
end
