version,3.0
numOfCh,1
type,point
parent_name,1-cuts
ch_type,1_1
kcount,1
numberNandB,1
brightnessNandB,1
carpet pos,0
pc,0
Time (ms),CH1 Auto-Correlation
1.0,0.09617828577756882
2.0,0.08921191841363907
3.0,0.08306870609521866
4.0,0.07773307710886002
5.0,0.07318525016307831
6.0,0.06900347769260406
7.0,0.06518061459064484
8.0,0.061842333525419235
9.0,0.058916833251714706
10.0,0.05615648627281189
11.0,0.05374933406710625
12.0,0.051556434482336044
13.0,0.04946475476026535
14.0,0.04757796227931976
15.0,0.04573845863342285
16.0,0.04408682882785797
18.0,0.041395798325538635
20.0,0.0386565737426281
22.0,0.035963572561740875
24.0,0.03397414833307266
26.0,0.03225003182888031
28.0,0.03066016547381878
30.0,0.029077669605612755
32.0,0.02746456116437912
36.0,0.024409132078289986
40.0,0.02201170288026333
44.0,0.020059654489159584
48.0,0.01864582858979702
52.0,0.01636679284274578
56.0,0.014905291609466076
60.0,0.013579496182501316
64.0,0.011564277112483978
72.0,0.0082761961966753
80.0,0.005374085158109665
88.0,0.0025729164481163025
96.0,0.0006019073771312833
104.0,-0.0016095630126073956
112.0,-0.002911972114816308
120.0,-0.0035685054026544094
128.0,-0.0041854409500956535
144.0,-0.003432824043557048
160.0,-0.00037181691732257605
176.0,0.00146558100823313
192.0,0.00037935670115984976
208.0,0.001366529962979257
224.0,0.002462978707626462
240.0,0.0016413553385064006
256.0,0.0015775824431329966
288.0,-0.0007467440445907414
320.0,-0.0011014738120138645
352.0,-0.0019062800565734506
384.0,0.0005408740835264325
416.0,0.0015100169694051147
448.0,0.0009467122727073729
480.0,-0.0020112283527851105
512.0,-0.0010122819803655148
576.0,0.0046422453597188
640.0,0.005476342514157295
704.0,0.0019192523322999477
768.0,-0.0007819472230039537
832.0,-0.0010493869194760919
896.0,0.0003178466868121177
960.0,0.0020527297165244818
1024.0,-0.0029723262414336205
1152.0,-0.001223145518451929
1280.0,0.0004250796337146312
1408.0,0.0013104542158544064
1536.0,-0.0027091761585325003
1664.0,-0.002268122509121895
1792.0,-0.0010471423156559467
1920.0,0.0014511868357658386
2048.0,-0.0003722512919921428
2304.0,0.0011815614998340607
2560.0,0.0009454912506043911
2816.0,0.0003301560936961323
3072.0,-0.002858584513887763
3328.0,0.0006445389590226114
3584.0,-0.0003114879655186087
3840.0,-0.002156630391255021
4096.0,-0.0004490671562962234
4608.0,-0.0013070424320176244
5120.0,-0.0006822657305747271
5632.0,-0.001711663557216525
6144.0,-0.0008592189406044781
6656.0,7.349086081376299e-05
7168.0,0.0019944084342569113
7680.0,0.0012638149783015251
8192.0,-0.000656485790386796
9216.0,2.1477490008692257e-05
10240.0,-0.004636961501091719
11264.0,0.001177373225800693
12288.0,-0.00039249841938726604
13312.0,-0.002014767611399293
14336.0,0.004238634370267391
end
