version,3.0
numOfCh,1
type,point
parent_name,1-cuts
ch_type,1_1
kcount,1
numberNandB,1
brightnessNandB,1
carpet pos,0
pc,0
Time (ms),CH1 Auto-Correlation
1.0,0.02716602385044098
2.0,0.02498714253306389
3.0,0.02310173772275448
4.0,0.021479975432157516
5.0,0.020138662308454514
6.0,0.018862776458263397
7.0,0.01773972436785698
8.0,0.016758495941758156
9.0,0.015855390578508377
10.0,0.01511947438120842
11.0,0.014465977437794209
12.0,0.013803832232952118
13.0,0.013180731795728207
14.0,0.012621521949768066
15.0,0.012044595554471016
16.0,0.011547617614269257
18.0,0.010662476532161236
20.0,0.009799567051231861
22.0,0.009061654098331928
24.0,0.008470011875033379
26.0,0.007858437485992908
28.0,0.007274981588125229
30.0,0.0068694548681378365
32.0,0.006459440570324659
36.0,0.005623358767479658
40.0,0.005049231927841902
44.0,0.004651243798434734
48.0,0.004363061394542456
52.0,0.004151978529989719
56.0,0.003876682836562395
60.0,0.0034498104359954596
64.0,0.0030917790718376637
72.0,0.0024470998905599117
80.0,0.001744717126712203
88.0,0.0014964179135859013
96.0,0.001718142069876194
104.0,0.00120096979662776
112.0,0.0010326822521165013
120.0,0.0011105254525318742
128.0,0.001049096928909421
144.0,0.00075281917816028
160.0,0.0007212411146610975
176.0,0.0007246729219332337
192.0,0.0006898915744386613
208.0,0.0007285004830919206
224.0,0.00042778029455803335
240.0,0.000514834828209132
256.0,-0.0001298853021580726
288.0,5.09370474901516e-05
320.0,-0.00040223723044618964
352.0,-0.0021712102461606264
384.0,-0.0023724581114947796
416.0,-0.002124674618244171
448.0,-0.0015474933898076415
480.0,-0.0016013527056202292
512.0,-0.0015704076504334807
576.0,-0.0006873928941786289
640.0,-7.940643990878016e-05
704.0,-0.0003024633915629238
768.0,-6.764279532944784e-05
832.0,-0.0017059145029634237
896.0,-0.0008978398982435465
960.0,-0.0008216044516302645
1024.0,-0.0008531744824722409
1152.0,-0.0003219863574486226
1280.0,2.5502497010165825e-05
1408.0,0.0011508959578350186
1536.0,0.0022576292976737022
1664.0,0.0019691770430654287
1792.0,0.0004450193664524704
1920.0,-0.00039429229218512774
2048.0,-0.002214697189629078
2304.0,-0.00018603909120429307
2560.0,0.000430971645982936
2816.0,-0.0004840321489609778
3072.0,0.0003502424224279821
3328.0,0.0006109185051172972
3584.0,-0.0013982260134071112
3840.0,0.00031706475419923663
4096.0,0.0005524139851331711
4608.0,-5.043818600825034e-05
5120.0,-0.00023523478012066334
5632.0,0.0003343544667586684
6144.0,0.0002535037638153881
6656.0,3.0117724236333743e-05
7168.0,6.5337658270436805e-06
7680.0,-0.0002546094765421003
8192.0,-0.00018908720812760293
9216.0,-0.00031494678114540875
10240.0,-0.00024140642199199647
11264.0,0.00022107783297542483
12288.0,-0.0005003294791094959
13312.0,0.00012022992450511083
14336.0,-8.48130184749607e-07
end
