version,3.0
numOfCh,1
type,point
parent_name,1-cuts
ch_type,1_1
kcount,1
numberNandB,1
brightnessNandB,1
carpet pos,0
pc,0
Time (ms),CH1 Auto-Correlation
1.0,0.03996503725647926
2.0,0.03683417662978172
3.0,0.03414434939622879
4.0,0.031659387052059174
5.0,0.029517879709601402
6.0,0.027643224224448204
7.0,0.02590600773692131
8.0,0.02439306117594242
9.0,0.022990113124251366
10.0,0.021722979843616486
11.0,0.02054823376238346
12.0,0.019534949213266373
13.0,0.018588783219456673
14.0,0.017741277813911438
15.0,0.016955524682998657
16.0,0.01616743765771389
18.0,0.014753468334674835
20.0,0.013694621622562408
22.0,0.012901593931019306
24.0,0.012220848351716995
26.0,0.011657238937914371
28.0,0.010963398963212967
30.0,0.010312621481716633
32.0,0.00970963854342699
36.0,0.00884834211319685
40.0,0.008779793046414852
44.0,0.00859598908573389
48.0,0.008145544677972794
52.0,0.008131652139127254
56.0,0.007764771115034819
60.0,0.007126158103346825
64.0,0.00630035949870944
72.0,0.00513340113684535
80.0,0.0039155567064881325
88.0,0.0029016712214797735
96.0,0.0020061435643583536
104.0,0.0013880346668884158
112.0,0.0006884468020871282
120.0,0.0012601413764059544
128.0,0.0010238058166578412
144.0,0.0014313862193375826
160.0,0.0005745977978222072
176.0,0.0007703989394940436
192.0,0.002268381416797638
208.0,0.0018423234578222036
224.0,0.0012882561422884464
240.0,-3.5575744732341263e-06
256.0,-0.0008168169297277927
288.0,-0.0019205810967832804
320.0,-0.00048074452206492424
352.0,-0.0020728029776364565
384.0,-0.00328367343172431
416.0,-0.002271694131195545
448.0,-0.003074078820645809
480.0,-0.00222646608017385
512.0,-0.0026092957705259323
576.0,-0.003015778725966811
640.0,-0.0015717091737315059
704.0,0.0010666275629773736
768.0,0.0022256853990256786
832.0,0.0022264563012868166
896.0,-0.00012529868399724364
960.0,0.000422127777710557
1024.0,0.0008027315489016473
1152.0,-0.001054580439813435
1280.0,-0.0021667862311005592
1408.0,-0.0016616202192381024
1536.0,-0.0006356528610922396
1664.0,-6.935153214726597e-05
1792.0,0.0006923362379893661
1920.0,0.0008758667972870171
2048.0,0.001066589611582458
2304.0,0.00045040345867164433
2560.0,-0.001262623816728592
2816.0,0.0009278888464905322
3072.0,0.0014115440426394343
3328.0,-0.0017242638859897852
3584.0,-0.0008503264980390668
3840.0,0.0006757199298590422
4096.0,9.11443930817768e-05
4608.0,-0.0010229875333607197
5120.0,0.0005005460698157549
5632.0,-0.0019255592487752438
6144.0,0.0014447468565776944
6656.0,-0.00033155648270621896
7168.0,0.0010365645866841078
7680.0,-0.001139144878834486
8192.0,0.0006620963104069233
9216.0,0.00013123449753038585
10240.0,8.082902058959007e-05
11264.0,-0.0007293829112313688
12288.0,0.0008676276193000376
13312.0,-0.002360346494242549
14336.0,0.0017536069499328732
end
