version,3.0
numOfCh,1
type,point
parent_name,1-cuts
ch_type,1_1
kcount,1
numberNandB,1
brightnessNandB,1
carpet pos,0
pc,0
Time (ms),CH1 Auto-Correlation
1.0,0.0958484560251236
2.0,0.08862072974443436
3.0,0.0823841392993927
4.0,0.07698781788349152
5.0,0.07228931784629822
6.0,0.0679764375090599
7.0,0.06397726386785507
8.0,0.0601375512778759
9.0,0.05667126551270485
10.0,0.0537005215883255
11.0,0.05109299346804619
12.0,0.04869377613067627
13.0,0.046277835965156555
14.0,0.0443592369556427
15.0,0.0425921231508255
16.0,0.04094861075282097
18.0,0.038037486374378204
20.0,0.03530586138367653
22.0,0.03292987123131752
24.0,0.030737532302737236
26.0,0.028879685327410698
28.0,0.02773595228791237
30.0,0.026576930657029152
32.0,0.025161273777484894
36.0,0.02273840270936489
40.0,0.02109045535326004
44.0,0.019642841070890427
48.0,0.017667856067419052
52.0,0.015399452298879623
56.0,0.014129824936389923
60.0,0.013039698824286461
64.0,0.011179826222360134
72.0,0.009223266504704952
80.0,0.008247568272054195
88.0,0.008055778220295906
96.0,0.00734931044280529
104.0,0.0063521782867610455
112.0,0.0051178219728171825
120.0,0.003843931248411536
128.0,0.0029939087107777596
144.0,0.005182608030736446
160.0,0.006785153411328793
176.0,0.005573625676333904
192.0,0.0036418999079614878
208.0,0.0010474930750206113
224.0,-0.0009323660633526742
240.0,-0.00031500839395448565
256.0,0.0002428759471513331
288.0,-0.003785471897572279
320.0,-0.0042974636889994144
352.0,0.0022854076232761145
384.0,0.004321233369410038
416.0,0.0009144193609245121
448.0,0.0036078006960451603
480.0,0.0018064697505906224
512.0,-0.0013404624769464135
576.0,-0.0023754541762173176
640.0,0.00037549578701145947
704.0,-0.0018247906118631363
768.0,-0.002611499046906829
832.0,0.0021813008934259415
896.0,0.0010864415671676397
960.0,-0.003991471603512764
1024.0,-0.000989297404885292
1152.0,-0.0029732303228229284
1280.0,-0.003339306218549609
1408.0,0.0005536575336009264
1536.0,0.003372281789779663
1664.0,0.006528981029987335
1792.0,0.0018732164753600955
1920.0,-0.001959834946319461
2048.0,0.003655381267890334
2304.0,0.0018974029226228595
2560.0,-0.005790322087705135
2816.0,-0.0031157841440290213
3072.0,0.0007486357353627682
3328.0,0.0030668447725474834
3584.0,-0.003716914914548397
3840.0,0.0035859141498804092
4096.0,0.0035014923196285963
4608.0,-0.00045198871521279216
5120.0,0.0008614283869974315
5632.0,-0.0029413397423923016
6144.0,0.0033038477413356304
6656.0,-0.0013762805610895157
7168.0,-0.0011049374006688595
7680.0,-0.0031335626263171434
8192.0,0.0033360160887241364
9216.0,-0.0015079855220392346
10240.0,-0.00014603545423597097
11264.0,-0.0020515997894108295
12288.0,-0.0038510020822286606
13312.0,-0.0018396400846540928
14336.0,-0.004107522312551737
end
