version,3.0
numOfCh,1
type,point
parent_name,1-cuts
ch_type,1_1
kcount,1
numberNandB,1
brightnessNandB,1
carpet pos,0
pc,0
Time (ms),CH1 Auto-Correlation
1.0,0.08785034716129303
2.0,0.0808219164609909
3.0,0.0747186690568924
4.0,0.06944282352924347
5.0,0.06485732644796371
6.0,0.0608716756105423
7.0,0.05739474669098854
8.0,0.05419785901904106
9.0,0.05135754868388176
10.0,0.048927050083875656
11.0,0.04662097990512848
12.0,0.044450338929891586
13.0,0.042329587042331696
14.0,0.04019531235098839
15.0,0.038178201764822006
16.0,0.03643292188644409
18.0,0.03325803205370903
20.0,0.03046783246099949
22.0,0.02763129584491253
24.0,0.024878134950995445
26.0,0.02253495343029499
28.0,0.020786965265870094
30.0,0.01931671053171158
32.0,0.017869718372821808
36.0,0.014932980760931969
40.0,0.012880269438028336
44.0,0.011196635663509369
48.0,0.009778786450624466
52.0,0.009119004011154175
56.0,0.007752680219709873
60.0,0.006303999572992325
64.0,0.006754025816917419
72.0,0.00715396786108613
80.0,0.006677236407995224
88.0,0.006359355058521032
96.0,0.00591543223708868
104.0,0.004942199215292931
112.0,0.004370361100882292
120.0,0.002745884470641613
128.0,0.002874386264011264
144.0,0.0020807376131415367
160.0,0.00030172397964634
176.0,0.00024926228797994554
192.0,0.0020781808998435736
208.0,0.004454807378351688
224.0,0.003913788590580225
240.0,0.002404486294835806
256.0,0.0021091357339173555
288.0,0.0020343689247965813
320.0,0.0005117764230817556
352.0,-0.0015732591273263097
384.0,0.00040741037810221314
416.0,0.0013324229512363672
448.0,0.0024589900858700275
480.0,-3.3975298720179126e-05
512.0,-0.003334498731419444
576.0,0.00035944514092989266
640.0,-0.00043795048259198666
704.0,-0.0012716320343315601
768.0,-0.0005819510552100837
832.0,-0.0008180061704479158
896.0,0.0017428266583010554
960.0,0.001946467556990683
1024.0,0.0005562697187997401
1152.0,-0.0023515319917351007
1280.0,0.003770415438339114
1408.0,-0.00045494624646380544
1536.0,0.0003579279291443527
1664.0,-0.001966019393876195
1792.0,-0.0011796726612374187
1920.0,-0.004949025344103575
2048.0,-0.005365682300180197
2304.0,-0.0019443432101979852
2560.0,-0.001388469710946083
2816.0,-0.0019077201141044497
3072.0,0.0010948540875688195
3328.0,0.00024392666819039732
3584.0,0.0024962513707578182
3840.0,-0.0006578239263035357
4096.0,-1.3053668226348236e-05
4608.0,-0.0010028514079749584
5120.0,0.0004935107426717877
5632.0,-0.0022554234601557255
6144.0,0.0018479499267414212
6656.0,-0.00048820083611644804
7168.0,-0.0006424141465686262
7680.0,-0.0001373094564769417
8192.0,-0.0037357062101364136
9216.0,0.0013634935021400452
10240.0,0.0029026558622717857
11264.0,-0.0014236243441700935
12288.0,-0.00028915354050695896
13312.0,0.0007626800797879696
14336.0,-0.0009043422760441899
end
