version,3.0
numOfCh,1
type,point
parent_name,1-cuts
ch_type,1_1
kcount,1
numberNandB,1
brightnessNandB,1
carpet pos,0
pc,0
Time (ms),CH1 Auto-Correlation
1.0,0.04136845842003822
2.0,0.0381494015455246
3.0,0.03535919636487961
4.0,0.03295641764998436
5.0,0.030903466045856476
6.0,0.029062438756227493
7.0,0.027376294136047363
8.0,0.025896839797496796
9.0,0.024517057463526726
10.0,0.023278960958123207
11.0,0.022190293297171593
12.0,0.021180838346481323
13.0,0.020159484818577766
14.0,0.01928698644042015
15.0,0.018484387546777725
16.0,0.01771114207804203
18.0,0.01629532314836979
20.0,0.015151465311646461
22.0,0.014228963293135166
24.0,0.013425810262560844
26.0,0.012812677770853043
28.0,0.012115361168980598
30.0,0.01124110072851181
32.0,0.01050002221018076
36.0,0.008746697567403316
40.0,0.007486693095415831
44.0,0.0068737235851585865
48.0,0.006448917090892792
52.0,0.006156984716653824
56.0,0.005883206147700548
60.0,0.005533643998205662
64.0,0.005191619973629713
72.0,0.004234215710312128
80.0,0.003044320270419121
88.0,0.0016580275259912014
96.0,0.0004595783248078078
104.0,0.0002448331215418875
112.0,0.00027527936617843807
120.0,1.4028065606908058e-06
128.0,0.0005103301955386996
144.0,0.0016587027348577976
160.0,0.0016578872455284
176.0,0.00034868906368501484
192.0,-0.0003556498559191823
208.0,-0.0010809205705299973
224.0,-0.000686417508404702
240.0,-0.0008735232404433191
256.0,-8.402815001318231e-05
288.0,0.0011213172692805529
320.0,0.0018199775367975235
352.0,0.001730524469166994
384.0,0.0008470265893265605
416.0,0.0008196663111448288
448.0,-7.456377352355048e-05
480.0,-0.001585939317010343
512.0,-0.0020709920208901167
576.0,-0.0023024543188512325
640.0,-0.001813820214010775
704.0,-6.613636651309207e-05
768.0,0.0009877654956653714
832.0,0.000998952193185687
896.0,-0.0010084982495754957
960.0,-0.0014006233541294932
1024.0,-0.003294816240668297
1152.0,-0.0011782355140894651
1280.0,-0.00019126530969515443
1408.0,0.00045147689525038004
1536.0,0.001679805456660688
1664.0,0.0010920300846919417
1792.0,0.0013667683815583587
1920.0,0.0008254363783635199
2048.0,-0.00035340755130164325
2304.0,-2.915161894634366e-05
2560.0,-0.0007025079103186727
2816.0,-0.0014943971764296293
3072.0,-0.0011290383990854025
3328.0,0.0009962751064449549
3584.0,0.0013588386354967952
3840.0,0.00037235597847029567
4096.0,4.557010470307432e-05
4608.0,-0.001664878916926682
5120.0,6.347694579744712e-05
5632.0,0.0014563314616680145
6144.0,-0.0019374025287106633
6656.0,0.00020972415222786367
7168.0,0.0014681272441521287
7680.0,-0.0011995664099231362
8192.0,-0.0015824645524844527
9216.0,-4.800678652827628e-05
10240.0,0.0009182981448248029
11264.0,-7.792297401465476e-05
12288.0,-7.66035882406868e-05
13312.0,-0.001528143067844212
14336.0,0.0007711675716564059
end
