version,3.0
numOfCh,1
type,point
parent_name,1-cuts
ch_type,1_1
kcount,1
numberNandB,1
brightnessNandB,1
carpet pos,0
pc,0
Time (ms),CH1 Auto-Correlation
1.0,0.028746502473950386
2.0,0.026564911007881165
3.0,0.02473505213856697
4.0,0.023139579221606255
5.0,0.021789081394672394
6.0,0.020561277866363525
7.0,0.01952272281050682
8.0,0.018562885001301765
9.0,0.0176757350564003
10.0,0.0168630238622427
11.0,0.01609860174357891
12.0,0.01534922793507576
13.0,0.014706999994814396
14.0,0.014088124968111515
15.0,0.01352241262793541
16.0,0.01295944582670927
18.0,0.011983298696577549
20.0,0.011247185058891773
22.0,0.010704787448048592
24.0,0.01024546567350626
26.0,0.009684471413493156
28.0,0.00909421406686306
30.0,0.008611258119344711
32.0,0.008229795843362808
36.0,0.007449554745107889
40.0,0.006789057515561581
44.0,0.006051060743629932
48.0,0.0053558493964374065
52.0,0.004792551510035992
56.0,0.004321375861763954
60.0,0.004044810310006142
64.0,0.0036903012078255415
72.0,0.0034658624790608883
80.0,0.0028170100413262844
88.0,0.001916834618896246
96.0,0.0014603332383558154
104.0,0.0012514598201960325
112.0,0.0011587787885218859
120.0,0.0009847423061728477
128.0,0.0006013410165905952
144.0,0.0007865582010708749
160.0,0.0005141770234331489
176.0,0.0006606471142731607
192.0,-0.0003832175862044096
208.0,-8.121837890939787e-05
224.0,0.0004319242143537849
240.0,0.0010267682373523712
256.0,0.0016971182776615024
288.0,0.0015605635708197951
320.0,0.0015322964172810316
352.0,0.0012998442398384213
384.0,0.0012933183461427689
416.0,0.001131795928813517
448.0,-0.0007579258526675403
480.0,-0.0010802603792399168
512.0,-0.001689556404016912
576.0,-0.0006547370576299727
640.0,0.00032939165248535573
704.0,0.0003323343407828361
768.0,-0.0006629631971009076
832.0,-0.0019928468391299248
896.0,-0.0009193053701892495
960.0,6.204960664035752e-05
1024.0,-0.00021256321633700281
1152.0,0.0001008212857414037
1280.0,-9.152141501544975e-06
1408.0,0.00047662033466622233
1536.0,0.0009979893220588565
1664.0,0.0011113949585705996
1792.0,-0.00030657602474093437
1920.0,0.00033401913242414594
2048.0,-0.00038526105345226824
2304.0,-0.0011833013268187642
2560.0,-0.0009239987120963633
2816.0,5.282995061861584e-06
3072.0,-0.0007276239339262247
3328.0,0.0004628281167242676
3584.0,-0.0009892007801681757
3840.0,-0.0008169023203663528
4096.0,-0.0008646212518215179
4608.0,0.00093096710043028
5120.0,0.0007572884787805378
5632.0,-0.0001595235662534833
6144.0,0.0004000996705144644
6656.0,0.001029090373776853
7168.0,-0.0014640677254647017
7680.0,7.942567026475444e-05
8192.0,-0.0007998560322448611
9216.0,-3.128604294033721e-05
10240.0,-0.00020051092724315822
11264.0,0.0006699031800962985
12288.0,5.419311946752714e-06
13312.0,-0.0009683646494522691
14336.0,-0.0013038389151915908
end
