version,3.0
numOfCh,1
type,point
parent_name,1-cuts
ch_type,1_1
kcount,1
numberNandB,1
brightnessNandB,1
carpet pos,0
pc,0
Time (ms),CH1 Auto-Correlation
1.0,0.10087651014328003
2.0,0.09373125433921814
3.0,0.0875479206442833
4.0,0.08233370631933212
5.0,0.07779011875391006
6.0,0.07375514507293701
7.0,0.07000196725130081
8.0,0.06671394407749176
9.0,0.06363466382026672
10.0,0.060944974422454834
11.0,0.058617983013391495
12.0,0.05655889958143234
13.0,0.05493661388754845
14.0,0.05358660966157913
15.0,0.051930684596300125
16.0,0.050190504640340805
18.0,0.047124192118644714
20.0,0.04442216455936432
22.0,0.04217381402850151
24.0,0.040060024708509445
26.0,0.03810685873031616
28.0,0.036102693527936935
30.0,0.03395107015967369
32.0,0.031787578016519547
36.0,0.028787098824977875
40.0,0.02648046426475048
44.0,0.02469624951481819
48.0,0.022476697340607643
52.0,0.02012692205607891
56.0,0.01803918555378914
60.0,0.01659039966762066
64.0,0.01532022561877966
72.0,0.013652101159095764
80.0,0.012487372383475304
88.0,0.0105564771220088
96.0,0.008820092305541039
104.0,0.008449171669781208
112.0,0.007497488986700773
120.0,0.0058934250846505165
128.0,0.004278460517525673
144.0,0.002877970924600959
160.0,0.0015012737130746245
176.0,0.0016719021368771791
192.0,0.003350394545122981
208.0,0.005237197503447533
224.0,0.006469183601438999
240.0,0.007055769674479961
256.0,0.006483775097876787
288.0,0.0017685937928035855
320.0,0.002427516272291541
352.0,0.0008383482927456498
384.0,-0.0028271626215428114
416.0,-0.0034405847545713186
448.0,-0.004026393871754408
480.0,-0.002829911420121789
512.0,-0.0029555149376392365
576.0,-0.005095318425446749
640.0,-0.003711770288646221
704.0,-0.0015962839825078845
768.0,0.0033321555238217115
832.0,0.00044058356434106827
896.0,-0.0007015145965851843
960.0,-0.00126754492521286
1024.0,0.0005405561532825232
1152.0,-0.001781456870958209
1280.0,-0.002829568227753043
1408.0,-0.00036235779407434165
1536.0,0.0011609538923949003
1664.0,0.001318863476626575
1792.0,0.00025554915191605687
1920.0,0.0003105467476416379
2048.0,-0.0010267487959936261
2304.0,0.0005455861683003604
2560.0,0.0029758622404187918
2816.0,-0.00035341756301932037
3072.0,-0.003081330331042409
3328.0,0.00014601211296394467
3584.0,0.005611000116914511
3840.0,0.0028455816209316254
4096.0,-0.0008958564139902592
4608.0,-0.00282073812559247
5120.0,-0.0011529182083904743
5632.0,0.0012025561882182956
6144.0,0.0019410160603001714
6656.0,0.002351426752284169
7168.0,-0.0009838122641667724
7680.0,-0.00229035597294569
8192.0,-0.0040636514313519
9216.0,0.0014696986181661487
10240.0,-0.003983282949775457
11264.0,-0.0006800470873713493
12288.0,-0.00401265500113368
13312.0,0.001843552221544087
14336.0,-0.00424306420609355
end
