version,3.0
numOfCh,1
type,point
parent_name,1-cuts
ch_type,1_1
kcount,1
numberNandB,1
brightnessNandB,1
carpet pos,0
pc,0
Time (ms),CH1 Auto-Correlation
1.0,0.04025302827358246
2.0,0.03699510172009468
3.0,0.03417317196726799
4.0,0.031820911914110184
5.0,0.029772968962788582
6.0,0.02793637104332447
7.0,0.026270011439919472
8.0,0.024759909138083458
9.0,0.0234382264316082
10.0,0.022199859842658043
11.0,0.021130036562681198
12.0,0.02021174319088459
13.0,0.019273636862635612
14.0,0.01842709444463253
15.0,0.017646795138716698
16.0,0.017008816823363304
18.0,0.015896370634436607
20.0,0.014820236712694168
22.0,0.013948685489594936
24.0,0.013189608231186867
26.0,0.012383399531245232
28.0,0.011655417270958424
30.0,0.010893804021179676
32.0,0.010112067684531212
36.0,0.008801796473562717
40.0,0.008123716339468956
44.0,0.007725139148533344
48.0,0.007297511678189039
52.0,0.006913631223142147
56.0,0.006406427826732397
60.0,0.006041673477739096
64.0,0.005632893647998571
72.0,0.004908335395157337
80.0,0.004092577379196882
88.0,0.003537440439686179
96.0,0.003045211313292384
104.0,0.0028187010902911425
112.0,0.0026590272318571806
120.0,0.002433587796986103
128.0,0.002387347398325801
144.0,0.00278251594863832
160.0,0.0026855438482016325
176.0,0.0014446493005380034
192.0,0.0006355149089358747
208.0,8.041657565627247e-05
224.0,-0.0007206700975075364
240.0,-0.001666178461164236
256.0,-0.0010844918433576822
288.0,-0.0007686864119023085
320.0,-1.7691816537990235e-05
352.0,-0.0007052892469801009
384.0,-0.0013408506056293845
416.0,-0.0006739345262758434
448.0,-0.000617989047896117
480.0,-0.0013151702005416155
512.0,-0.0017022250685840845
576.0,-0.0009709495934657753
640.0,0.0010095486650243402
704.0,0.0013472189893946052
768.0,0.00024694320745766163
832.0,-0.0009228000999428332
896.0,-0.001904136617667973
960.0,-0.0009520776220597327
1024.0,0.0004708360938820988
1152.0,-0.001821531797759235
1280.0,0.00028298216057009995
1408.0,0.000788290286436677
1536.0,-0.0001517192431492731
1664.0,-6.968998059164733e-05
1792.0,-0.0008435670752078295
1920.0,0.0006460674339905381
2048.0,0.0013739074347540736
2304.0,-0.0002395097544649616
2560.0,-0.0007895323215052485
2816.0,0.0005102980649098754
3072.0,0.00021127266518305987
3328.0,-3.2100309908855706e-05
3584.0,0.00025836226996034384
3840.0,0.00013104735990054905
4096.0,5.5979860917432234e-05
4608.0,-0.0004393057606648654
5120.0,2.6015481125796214e-05
5632.0,-0.0009178550099022686
6144.0,0.0002711553534027189
6656.0,0.00027577372384257615
7168.0,-0.0006896306877024472
7680.0,-7.411344267893583e-05
8192.0,0.0008701228071004152
9216.0,0.0010030911071226
10240.0,-0.0012136953882873058
11264.0,0.0005542028229683638
12288.0,-0.0005879189120605588
13312.0,-0.0012684029061347246
14336.0,-0.0017252190737053752
end
