version,3.0
numOfCh,1
type,point
parent_name,1-cuts
ch_type,1_1
kcount,1
numberNandB,1
brightnessNandB,1
carpet pos,0
pc,0
Time (ms),CH1 Auto-Correlation
1.0,0.024946028366684914
2.0,0.022757025435566902
3.0,0.02086596004664898
4.0,0.019204964861273766
5.0,0.017663300037384033
6.0,0.016368074342608452
7.0,0.01516583003103733
8.0,0.014082754962146282
9.0,0.013147889636456966
10.0,0.012271830812096596
11.0,0.01147168967872858
12.0,0.010740592144429684
13.0,0.010093134827911854
14.0,0.009537586942315102
15.0,0.009059539996087551
16.0,0.00868199486285448
18.0,0.008026093244552612
20.0,0.007453701924532652
22.0,0.006886401679366827
24.0,0.006406161468476057
26.0,0.006026157643646002
28.0,0.005678179208189249
30.0,0.00534253753721714
32.0,0.005057525355368853
36.0,0.004714611452072859
40.0,0.004131476394832134
44.0,0.0034974352456629276
48.0,0.0031113233417272568
52.0,0.0025306730531156063
56.0,0.002142817946150899
60.0,0.0017528109019622207
64.0,0.0015947279753163457
72.0,0.0016552277375012636
80.0,0.0015439654234796762
88.0,0.001244977000169456
96.0,0.0007971946615725756
104.0,0.0003327511658426374
112.0,0.000461089686723426
120.0,0.00039169087540358305
128.0,0.00041354354470968246
144.0,0.0005097087123431265
160.0,-0.0002877549850381911
176.0,-0.0009069662191905081
192.0,-0.0009089476661756635
208.0,-0.001051517785526812
224.0,-0.001401026383973658
240.0,-0.0010544811375439167
256.0,-0.0014065852155908942
288.0,-0.0011945826699957252
320.0,-0.00026182219153270125
352.0,0.00019456827430985868
384.0,-0.0001784410560503602
416.0,-0.0005879885866306722
448.0,-0.0003175149322487414
480.0,0.0008508625905960798
512.0,6.376428791554645e-05
576.0,8.652126780361868e-06
640.0,-0.0004741713928524405
704.0,0.00026267918292433023
768.0,-0.0003171103890053928
832.0,-0.00033423423883505166
896.0,-7.01380631653592e-05
960.0,0.0004476926114875823
1024.0,0.0008961762650869787
1152.0,-0.000545590475667268
1280.0,-0.0004888424300588667
1408.0,0.0007040988421067595
1536.0,-1.4358668522618245e-05
1664.0,-0.0004538309876807034
1792.0,-0.0005609209765680134
1920.0,-0.0009698774665594101
2048.0,0.0010772881796583533
2304.0,-5.684537973138504e-05
2560.0,-0.00037366634933277965
2816.0,-0.0008068114402703941
3072.0,0.0007741919253021479
3328.0,0.00022735647507943213
3584.0,0.0001736564008751884
3840.0,-0.00021958952129352838
4096.0,0.0005365706165321171
4608.0,-0.00026863039238378406
5120.0,-3.50700574927032e-05
5632.0,-7.809732778696343e-05
6144.0,-6.913676770636812e-05
6656.0,7.296598778339103e-05
7168.0,-0.0003352002240717411
7680.0,0.00012411834904924035
8192.0,-0.0001616799709154293
9216.0,0.0005027565639466047
10240.0,-0.00015778101806063205
11264.0,-0.0007345864432863891
12288.0,0.00027363814297132194
13312.0,0.00025075190933421254
14336.0,-0.0012326000723987818
end
