version,3.0
numOfCh,1
type,point
parent_name,1-cuts
ch_type,1_1
kcount,1
numberNandB,1
brightnessNandB,1
carpet pos,0
pc,0
Time (ms),CH1 Auto-Correlation
1.0,0.026756690815091133
2.0,0.024664340540766716
3.0,0.022869471460580826
4.0,0.021286003291606903
5.0,0.019835693761706352
6.0,0.018588168546557426
7.0,0.017483925446867943
8.0,0.016499022021889687
9.0,0.015602100640535355
10.0,0.014775443822145462
11.0,0.013948488049209118
12.0,0.013236402533948421
13.0,0.012584052048623562
14.0,0.011969586834311485
15.0,0.01141725480556488
16.0,0.010937133803963661
18.0,0.010102244094014168
20.0,0.009401846677064896
22.0,0.008810593746602535
24.0,0.008314584381878376
26.0,0.007778053171932697
28.0,0.0072595300152897835
30.0,0.0069218832068145275
32.0,0.006658388301730156
36.0,0.0061494954861700535
40.0,0.0060066827572882175
44.0,0.0057675219140946865
48.0,0.005390409845858812
52.0,0.004797792993485928
56.0,0.004318371415138245
60.0,0.0038781720213592052
64.0,0.003542501013725996
72.0,0.0029069818556308746
80.0,0.002187939826399088
88.0,0.0021094665862619877
96.0,0.002504796488210559
104.0,0.002485573058947921
112.0,0.0018110802629962564
120.0,0.0009614551090635359
128.0,0.0005118623957969248
144.0,0.0007032919675111771
160.0,0.000647213717456907
176.0,0.0007073623710311949
192.0,0.0013149521546438336
208.0,0.0011397519847378135
224.0,0.0004757866554427892
240.0,0.0005160165601409972
256.0,0.0003791393537539989
288.0,-0.00019698204414453357
320.0,-0.00014668592484667897
352.0,-0.000629355781711638
384.0,4.478882692637853e-05
416.0,0.0010043301153928041
448.0,0.0005807308480143547
480.0,-0.0002033986966125667
512.0,-0.00023660191800445318
576.0,0.0006769525352865458
640.0,0.0004918949562124908
704.0,0.0001284805912291631
768.0,0.0009020818397402763
832.0,0.0015048283385112882
896.0,0.0009095970308408141
960.0,2.8149350328021683e-05
1024.0,0.00015408404578920454
1152.0,-0.000145310812513344
1280.0,-0.0012086934875696898
1408.0,0.0004922911757603288
1536.0,0.0010053105652332306
1664.0,0.0014328730758279562
1792.0,0.0016307682963088155
1920.0,0.0009623240330256522
2048.0,0.0001185184737551026
2304.0,0.0008488440071232617
2560.0,0.0008237484144046903
2816.0,5.000770033802837e-05
3072.0,0.0005373616586439312
3328.0,0.0003526219225022942
3584.0,-0.00042917029350064695
3840.0,-0.00034922032500617206
4096.0,0.0005247140652500093
4608.0,-0.00020920182578265667
5120.0,-0.00013795301492791623
5632.0,-0.0005668944795615971
6144.0,-0.0009927345672622323
6656.0,-0.0011651403037831187
7168.0,-0.0011344630038365722
7680.0,0.00017747649690136313
8192.0,-0.0014096569502726197
9216.0,-0.0009872936643660069
10240.0,-0.00034032503026537597
11264.0,-0.000698024348821491
12288.0,0.0006083049811422825
13312.0,-0.00012998818419873714
14336.0,0.0006457708077505231
end
