version,3.0
numOfCh,1
type,point
parent_name,1-cuts
ch_type,1_1
kcount,1
numberNandB,1
brightnessNandB,1
carpet pos,0
pc,0
Time (ms),CH1 Auto-Correlation
1.0,0.08897621184587479
2.0,0.08206935971975327
3.0,0.07604704052209854
4.0,0.07086315006017685
5.0,0.06622201204299927
6.0,0.06245836988091469
7.0,0.059232618659734726
8.0,0.05626817047595978
9.0,0.05389781296253204
10.0,0.05165601149201393
11.0,0.04941592365503311
12.0,0.047408577054739
13.0,0.04528101161122322
14.0,0.04352474957704544
15.0,0.04166349396109581
16.0,0.03984486311674118
18.0,0.036944858729839325
20.0,0.03454987332224846
22.0,0.03235951066017151
24.0,0.030244087800383568
26.0,0.028455084189772606
28.0,0.026897400617599487
30.0,0.02525884285569191
32.0,0.023886846378445625
36.0,0.02218400128185749
40.0,0.021015185862779617
44.0,0.018020186573266983
48.0,0.014992482028901577
52.0,0.012384921312332153
56.0,0.010677431710064411
60.0,0.008925016969442368
64.0,0.0061799995601177216
72.0,0.003059020498767495
80.0,0.0011996389366686344
88.0,0.00023082054394762963
96.0,0.0002901472325902432
104.0,-0.000687378691509366
112.0,-0.0015090515371412039
120.0,-0.0016210576286539435
128.0,-0.0016663585556671023
144.0,-0.003129765158519149
160.0,-0.0029965555295348167
176.0,-0.0012707762653008103
192.0,0.0006353092030622065
208.0,0.00014213213580660522
224.0,0.0015035653486847878
240.0,0.0011691435938701034
256.0,0.0012302615214139223
288.0,-0.0011498375097289681
320.0,0.0012264250544831157
352.0,-0.0017260423628613353
384.0,-0.005098002962768078
416.0,-0.004482613876461983
448.0,-0.005891832523047924
480.0,-0.005222055595368147
512.0,-0.00392494210973382
576.0,0.0017959031974896789
640.0,0.0020118847023695707
704.0,0.0025164317339658737
768.0,-0.001240175566636026
832.0,0.0007510673021897674
896.0,0.0015823869034647942
960.0,0.0020479450467973948
1024.0,-0.001963578397408128
1152.0,0.0007521302904933691
1280.0,-0.002894055098295212
1408.0,0.0010142276296392083
1536.0,0.00020168298215139657
1664.0,-0.0035587649326771498
1792.0,-0.00017221744928974658
1920.0,-0.0028055948205292225
2048.0,0.0018086244817823172
2304.0,-0.0013583675026893616
2560.0,0.00036002378328703344
2816.0,0.0010198118397966027
3072.0,-0.0023393919691443443
3328.0,-0.002123696729540825
3584.0,0.003946398850530386
3840.0,0.0021937901619821787
4096.0,-0.0018936205888167024
4608.0,0.0013612678740173578
5120.0,-0.0017982905264943838
5632.0,0.0012082383036613464
6144.0,4.430922490428202e-05
6656.0,-0.002619329607114196
7168.0,0.00165395881049335
7680.0,-0.00029721061582677066
8192.0,0.0023500919342041016
9216.0,-0.0005379395443014801
10240.0,-0.0019009631359949708
11264.0,-0.0005983403534628451
12288.0,0.0014268356608226895
13312.0,0.0008839288493618369
14336.0,-0.00020308932289481163
end
