version,3.0
numOfCh,1
type,point
parent_name,1-cuts
ch_type,1_1
kcount,1
numberNandB,1
brightnessNandB,1
carpet pos,0
pc,0
Time (ms),CH1 Auto-Correlation
1.0,0.09401819109916687
2.0,0.08678548038005829
3.0,0.08036454766988754
4.0,0.07469010353088379
5.0,0.06955483555793762
6.0,0.06496194750070572
7.0,0.06098826974630356
8.0,0.057487886399030685
9.0,0.05439068377017975
10.0,0.05170663818717003
11.0,0.049378082156181335
12.0,0.04738849028944969
13.0,0.04558855667710304
14.0,0.04389897733926773
15.0,0.04232863709330559
16.0,0.040703315287828445
18.0,0.03825739398598671
20.0,0.03607552498579025
22.0,0.03430106118321419
24.0,0.03267144411802292
26.0,0.03130089119076729
28.0,0.029699135571718216
30.0,0.02817354165017605
32.0,0.026759402826428413
36.0,0.0254653412848711
40.0,0.02363547310233116
44.0,0.02194400317966938
48.0,0.019252771511673927
52.0,0.01695658452808857
56.0,0.015490611083805561
60.0,0.014414031989872456
64.0,0.012446224689483643
72.0,0.009012909606099129
80.0,0.006616853177547455
88.0,0.006491717416793108
96.0,0.005179157014936209
104.0,0.004168132320046425
112.0,0.003155974904075265
120.0,0.004523747134953737
128.0,0.004300319589674473
144.0,0.0005613828543573618
160.0,0.0012161359190940857
176.0,0.0015287402784451842
192.0,0.002764437347650528
208.0,0.005193483550101519
224.0,0.0050499215722084045
240.0,0.004759168718010187
256.0,0.006042987108230591
288.0,0.005335452035069466
320.0,0.003821862628683448
352.0,0.0033154990524053574
384.0,0.0015451799845322967
416.0,-0.00015862382133491337
448.0,0.0003326759906485677
480.0,0.002421407261863351
512.0,0.0019340177532285452
576.0,0.00013980345102027059
640.0,0.00495192501693964
704.0,0.0022025846410542727
768.0,0.0037223873659968376
832.0,0.004427967127412558
896.0,0.00525848800316453
960.0,0.0008492986089549959
1024.0,0.002027306007221341
1152.0,0.0020125883165746927
1280.0,0.0009080279269255698
1408.0,-0.0013923922087997198
1536.0,-0.0007672217325307429
1664.0,0.0005261467886157334
1792.0,-0.003453293349593878
1920.0,-0.0012075714766979218
2048.0,-0.0006850631907582283
2304.0,-0.0011242093751206994
2560.0,-0.0039145080372691154
2816.0,-0.005151941906660795
3072.0,-0.0022830257657915354
3328.0,-0.003305997932329774
3584.0,-0.005925661884248257
3840.0,-0.0034436339046806097
4096.0,-0.0021421159617602825
4608.0,-0.0009643058874644339
5120.0,0.00023110803158488125
5632.0,-0.0016262322897091508
6144.0,0.0016629608580842614
6656.0,0.0007787495269440114
7168.0,-0.0002292071731062606
7680.0,-0.0014929985627532005
8192.0,-0.0009881916921585798
9216.0,0.001813697861507535
10240.0,0.0023147352039813995
11264.0,0.002468423219397664
12288.0,-0.005596518516540527
13312.0,-0.002194190165027976
14336.0,0.0004249194753356278
end
