version,3.0
numOfCh,1
type,point
parent_name,1-cuts
ch_type,1_1
kcount,1
numberNandB,1
brightnessNandB,1
carpet pos,0
pc,0
Time (ms),CH1 Auto-Correlation
1.0,0.040136873722076416
2.0,0.03698740154504776
3.0,0.034216780215501785
4.0,0.03176390752196312
5.0,0.02964760549366474
6.0,0.027749905362725258
7.0,0.026109155267477036
8.0,0.024697499349713326
9.0,0.02345333807170391
10.0,0.022278189659118652
11.0,0.021245330572128296
12.0,0.02033395506441593
13.0,0.01951456069946289
14.0,0.018868321552872658
15.0,0.018181998282670975
16.0,0.017574239522218704
18.0,0.016446705907583237
20.0,0.015378686599433422
22.0,0.014389639720320702
24.0,0.013501821085810661
26.0,0.012635856866836548
28.0,0.011780216358602047
30.0,0.011074807494878769
32.0,0.010626841336488724
36.0,0.00999052170664072
40.0,0.008596020750701427
44.0,0.007622892037034035
48.0,0.007165897637605667
52.0,0.006590365897864103
56.0,0.0058396062813699245
60.0,0.005351482890546322
64.0,0.005100364796817303
72.0,0.0042853946797549725
80.0,0.003701653564348817
88.0,0.003663330804556608
96.0,0.003322306787595153
104.0,0.0029806094244122505
112.0,0.0024696611799299717
120.0,0.0026700450107455254
128.0,0.0027282992377877235
144.0,0.0034767859615385532
160.0,0.002276417799293995
176.0,0.001815697643905878
192.0,0.0002402619575150311
208.0,0.00010058549378300086
224.0,0.0008297776221297681
240.0,0.0009761270484887064
256.0,0.0005279633332975209
288.0,0.0012609766563400626
320.0,-0.00018937306595034897
352.0,-0.0010616387007758021
384.0,-0.0005389484576880932
416.0,-0.0009816871024668217
448.0,-0.002260782988741994
480.0,-0.0030443668365478516
512.0,-0.0037595375906676054
576.0,-0.0034266586881130934
640.0,-0.0029948747251182795
704.0,-0.0027178912423551083
768.0,-0.0020537690725177526
832.0,-0.0012481518788263202
896.0,-0.0005421928944997489
960.0,6.450418004533276e-05
1024.0,-0.0002826275594998151
1152.0,-0.0005592754459939897
1280.0,0.0014043657574802637
1408.0,0.000206022072234191
1536.0,-0.0001476571778766811
1664.0,0.0017529656179249287
1792.0,0.00013212051999289542
1920.0,0.0006407008040696383
2048.0,0.0015288417926058173
2304.0,-0.0007895245798863471
2560.0,-0.0027685293462127447
2816.0,-0.0008701887563802302
3072.0,0.0026460341177880764
3328.0,0.0006095521384850144
3584.0,0.00014652909885626286
3840.0,-0.0007000013720244169
4096.0,-0.0019635269418358803
4608.0,0.00012437252735253423
5120.0,-0.00027055892860516906
5632.0,-0.00011740669287974015
6144.0,0.0008083511493168771
6656.0,-0.0006149145774543285
7168.0,-0.0006939501035958529
7680.0,0.001940166694112122
8192.0,-0.002727626357227564
9216.0,0.0011719875037670135
10240.0,-0.0007016655872575939
11264.0,-0.001159700215794146
12288.0,0.0029405993409454823
13312.0,-9.194535232381895e-05
14336.0,-0.0022919431794434786
end
