version,3.0
numOfCh,1
type,point
parent_name,1-cuts
ch_type,1_1
kcount,1
numberNandB,1
brightnessNandB,1
carpet pos,0
pc,0
Time (ms),CH1 Auto-Correlation
1.0,0.04191753640770912
2.0,0.03868446871638298
3.0,0.035920996218919754
4.0,0.03348110243678093
5.0,0.031355537474155426
6.0,0.029456298798322678
7.0,0.027733800932765007
8.0,0.026128094643354416
9.0,0.024702750146389008
10.0,0.023435020819306374
11.0,0.022312844172120094
12.0,0.02135363593697548
13.0,0.020528512075543404
14.0,0.019724532961845398
15.0,0.019033968448638916
16.0,0.018406203016638756
18.0,0.017453795298933983
20.0,0.016553785651922226
22.0,0.01563175767660141
24.0,0.014543142169713974
26.0,0.013371190056204796
28.0,0.012475629337131977
30.0,0.011686958372592926
32.0,0.010980505496263504
36.0,0.00971621461212635
40.0,0.008694392628967762
44.0,0.007784590125083923
48.0,0.007238483522087336
52.0,0.0070919557474553585
56.0,0.006746585946530104
60.0,0.00624508410692215
64.0,0.00600834796205163
72.0,0.005431434139609337
80.0,0.004911540076136589
88.0,0.003917301073670387
96.0,0.003368302946910262
104.0,0.0034346578177064657
112.0,0.0033667583484202623
120.0,0.0029571703635156155
128.0,0.0037130729760974646
144.0,0.0034388217609375715
160.0,0.001635911874473095
176.0,0.0003770599723793566
192.0,0.0003439043939579278
208.0,0.00048319227062165737
224.0,0.0007531362352892756
240.0,0.0007258495897985995
256.0,0.00040957340388558805
288.0,0.0015460043214261532
320.0,0.0018641144270077348
352.0,0.0014936571242287755
384.0,0.0015814905054867268
416.0,0.00010884290531976148
448.0,-0.0004139714001212269
480.0,-0.001342391362413764
512.0,-0.0028114663437008858
576.0,-0.0017678763251751661
640.0,-0.002216094173491001
704.0,-0.00025056995218619704
768.0,-0.00044699100544676185
832.0,0.00021150392421986908
896.0,-0.0004289397329557687
960.0,-0.001716644037514925
1024.0,-0.0029169556219130754
1152.0,0.0009895588736981153
1280.0,0.0010877419263124466
1408.0,0.0006079577724449337
1536.0,0.002071517053991556
1664.0,0.0003515179851092398
1792.0,0.00023847432748880237
1920.0,-0.0003419615386519581
2048.0,-0.0022720859851688147
2304.0,-0.00015919959696475416
2560.0,0.001122820540331304
2816.0,-0.0006723080878145993
3072.0,-0.00023479887749999762
3328.0,-0.00012500467710196972
3584.0,-0.002183255273848772
3840.0,-0.001494519179686904
4096.0,-0.0004870764969382435
4608.0,0.000716710404958576
5120.0,0.0002850616292562336
5632.0,-0.0002541441936045885
6144.0,-0.00040349512710236013
6656.0,0.0004004662623628974
7168.0,0.0006976842414587736
7680.0,-0.0014541976852342486
8192.0,0.0008533610962331295
9216.0,-0.0008216896094381809
10240.0,-0.0003373656945768744
11264.0,-0.0004697652766481042
12288.0,-0.0009716596105135977
13312.0,0.0019505358068272471
14336.0,0.0012529852101579309
end
