version,3.0
numOfCh,1
type,point
parent_name,1-cuts
ch_type,1_1
kcount,1
numberNandB,1
brightnessNandB,1
carpet pos,0
pc,0
Time (ms),CH1 Auto-Correlation
1.0,0.026094485074281693
2.0,0.023960590362548828
3.0,0.022112136706709862
4.0,0.020479530096054077
5.0,0.019091172143816948
6.0,0.01783757098019123
7.0,0.016740499064326286
8.0,0.015752222388982773
9.0,0.014878344722092152
10.0,0.014138332568109035
11.0,0.013423202559351921
12.0,0.01274285651743412
13.0,0.012138823047280312
14.0,0.011582721956074238
15.0,0.011056154035031796
16.0,0.010587401688098907
18.0,0.009750991128385067
20.0,0.009089287370443344
22.0,0.00850545521825552
24.0,0.007939212024211884
26.0,0.007551484275609255
28.0,0.007283587008714676
30.0,0.007055309135466814
32.0,0.006769154686480761
36.0,0.006296534091234207
40.0,0.005936609581112862
44.0,0.005695888306945562
48.0,0.005463266745209694
52.0,0.005187506787478924
56.0,0.004866153467446566
60.0,0.004640638362616301
64.0,0.004405778832733631
72.0,0.0040615014731884
80.0,0.0037701530382037163
88.0,0.003877788782119751
96.0,0.0036446689628064632
104.0,0.0033214674331247807
112.0,0.003152543446049094
120.0,0.00307460012845695
128.0,0.0031937076710164547
144.0,0.002342567080631852
160.0,0.0014930047327652574
176.0,0.0011807528790086508
192.0,0.0016601835377514362
208.0,0.001309470389969647
224.0,0.0017623297171667218
240.0,0.0020762470085173845
256.0,0.0019212543265894055
288.0,0.0009485614718869328
320.0,0.0005088929319754243
352.0,0.0011779358610510826
384.0,0.0011409181170165539
416.0,0.0003041006566490978
448.0,0.0003100164467468858
480.0,0.0008934713550843298
512.0,0.0015987800434231758
576.0,0.0015480215661227703
640.0,0.001007731189019978
704.0,-0.00046584499068558216
768.0,0.0009896327974274755
832.0,0.00037380174035206437
896.0,0.0009456861298531294
960.0,-1.7419335563317873e-05
1024.0,0.00031624833354726434
1152.0,0.0010764814214780927
1280.0,-0.0004522174713201821
1408.0,0.0001359274028800428
1536.0,-0.0008219226147048175
1664.0,-0.0004596871149260551
1792.0,-0.0006253833416849375
1920.0,-0.0003825156600214541
2048.0,-3.538525561452843e-05
2304.0,0.0007003720966167748
2560.0,-0.00032196001848205924
2816.0,5.016584327677265e-05
3072.0,0.0008281805203296244
3328.0,0.000190708291484043
3584.0,-0.0014107957249507308
3840.0,-0.0016424512723460793
4096.0,-0.001119761262089014
4608.0,-0.001085746451281011
5120.0,-0.0006043603061698377
5632.0,-0.0006836883840151131
6144.0,1.3425056749838404e-05
6656.0,0.00015216173778753728
7168.0,-0.0010321910958737135
7680.0,0.0011734276777133346
8192.0,0.0018791758920997381
9216.0,0.000992162269540131
10240.0,0.0004501613730099052
11264.0,-0.0004076226323377341
12288.0,-0.0018532798858359456
13312.0,-0.00164428586140275
14336.0,-0.0021385857835412025
end
