version,3.0
numOfCh,1
type,point
parent_name,1-cuts
ch_type,1_1
kcount,1
numberNandB,1
brightnessNandB,1
carpet pos,0
pc,0
Time (ms),CH1 Auto-Correlation
1.0,0.10407595336437225
2.0,0.09714220464229584
3.0,0.09117243438959122
4.0,0.08602658659219742
5.0,0.08142389357089996
6.0,0.07714319974184036
7.0,0.07307769358158112
8.0,0.06954160332679749
9.0,0.06646905839443207
10.0,0.06353401392698288
11.0,0.060808274894952774
12.0,0.05834401398897171
13.0,0.055812764912843704
14.0,0.053541600704193115
15.0,0.05122237280011177
16.0,0.049215659499168396
18.0,0.04583875089883804
20.0,0.04294784739613533
22.0,0.040702953934669495
24.0,0.038505278527736664
26.0,0.03691815212368965
28.0,0.03569815307855606
30.0,0.03482961282134056
32.0,0.034008897840976715
36.0,0.03218253329396248
40.0,0.03084140457212925
44.0,0.029717644676566124
48.0,0.02872997522354126
52.0,0.02846967801451683
56.0,0.027646439149975777
60.0,0.026251226663589478
64.0,0.024615786969661713
72.0,0.023599637672305107
80.0,0.022644443437457085
88.0,0.020274175330996513
96.0,0.0179849062114954
104.0,0.014528477564454079
112.0,0.013387049548327923
120.0,0.013440340757369995
128.0,0.012797276489436626
144.0,0.009653925895690918
160.0,0.008481748402118683
176.0,0.00808239821344614
192.0,0.006119673606008291
208.0,0.004432410933077335
224.0,0.002816720400005579
240.0,0.005056168418377638
256.0,0.006788581144064665
288.0,0.00574029004201293
320.0,0.0094508221372962
352.0,0.008823774755001068
384.0,0.0070794313214719296
416.0,0.00930041540414095
448.0,0.009830445982515812
480.0,0.007441691122949123
512.0,0.0047677792608737946
576.0,0.003997307736426592
640.0,0.0012066722847521305
704.0,-0.0013510456774383783
768.0,-0.005967015400528908
832.0,-0.009536213241517544
896.0,-0.008445476181805134
960.0,-0.007075625471770763
1024.0,-0.004743895493447781
1152.0,-0.004538681358098984
1280.0,-0.001744321547448635
1408.0,0.0018829838372766972
1536.0,0.0032535004429519176
1664.0,0.005989639554172754
1792.0,0.006330440752208233
1920.0,0.002235048683360219
2048.0,0.0019638140220195055
2304.0,-0.0029181716963648796
2560.0,-0.008071907795965672
2816.0,-0.00666173966601491
3072.0,-0.0047240485437214375
3328.0,-0.002969601657241583
3584.0,0.0005868278676643968
3840.0,-0.0029648395720869303
4096.0,-0.004211828112602234
4608.0,-0.0035049698781222105
5120.0,-0.0018913679523393512
5632.0,0.004026127979159355
6144.0,0.005151251796633005
6656.0,0.006252882070839405
7168.0,0.0027313698083162308
7680.0,-0.004098294768482447
8192.0,0.003438580548390746
9216.0,-0.004301815759390593
10240.0,-0.006245233118534088
11264.0,-0.001482086256146431
12288.0,0.0026887962594628334
13312.0,0.0027028811164200306
14336.0,0.003964063711464405
end
