version,3.0
numOfCh,1
type,point
parent_name,19e3e_0dot2-0dot01
ch_type,1_1
kcount,1
numberNandB,1
brightnessNandB,1
carpet pos,0
pc,0
Time (ms),CH1 Auto-Correlation
1.0,0.0405464693903923
2.0,0.03995925933122635
3.0,0.03939979523420334
4.0,0.0388592928647995
5.0,0.03833131492137909
6.0,0.03782658651471138
7.0,0.03733805939555168
8.0,0.03686359524726868
9.0,0.03639727458357811
10.0,0.03592618554830551
11.0,0.03546328470110893
12.0,0.035004936158657074
13.0,0.034542281180620193
14.0,0.03410860896110535
15.0,0.03369993716478348
16.0,0.03331410884857178
18.0,0.032546523958444595
20.0,0.03178202360868454
22.0,0.030987907201051712
24.0,0.030231207609176636
26.0,0.02951585128903389
28.0,0.028786512091755867
30.0,0.02806362509727478
32.0,0.027412693947553635
36.0,0.026306014508008957
40.0,0.02520306408405304
44.0,0.024213705211877823
48.0,0.023244231939315796
52.0,0.022403044626116753
56.0,0.02168898656964302
60.0,0.020997002720832825
64.0,0.02028481662273407
72.0,0.01894969679415226
80.0,0.017827248200774193
88.0,0.016907962039113045
96.0,0.015983805060386658
104.0,0.01524413749575615
112.0,0.014652648009359837
120.0,0.014029675163328648
128.0,0.013188044540584087
144.0,0.011303303763270378
160.0,0.009912670589983463
176.0,0.008403733372688293
192.0,0.006672243122011423
208.0,0.005077602341771126
224.0,0.004108474124222994
240.0,0.003738743020221591
256.0,0.003575748996809125
288.0,0.00406644307076931
320.0,0.004409011919051409
352.0,0.004570540506392717
384.0,0.004368931986391544
416.0,0.003687117015942931
448.0,0.0032781243789941072
480.0,0.003452048869803548
512.0,0.0034040643367916346
576.0,0.0014580987626686692
640.0,0.0020956264343112707
704.0,0.0031183536630123854
768.0,0.004236417356878519
832.0,0.004424777813255787
896.0,0.0018820710247382522
960.0,-0.0015324556734412909
1024.0,-0.003341822884976864
1152.0,-0.0034348294138908386
1280.0,-0.002836198778823018
1408.0,-0.0036092514637857676
1536.0,-0.0023020098451524973
1664.0,0.0003016653936356306
1792.0,-0.0016130156582221389
1920.0,-0.0034949094988405704
2048.0,-0.002255296101793647
2304.0,-0.0023755012080073357
2560.0,0.002378948964178562
2816.0,-0.002350089605897665
3072.0,-0.00034128912375308573
3328.0,0.0013500263448804617
3584.0,-0.0014064492424950004
3840.0,0.001308505772612989
4096.0,0.0015234577003866434
4608.0,0.0011040031677111983
5120.0,-0.005578137468546629
5632.0,-0.0051975189708173275
6144.0,-0.0004847149830311537
6656.0,0.00559385959059
7168.0,0.006868822034448385
7680.0,-0.003382967785000801
8192.0,-0.0033084736205637455
end
