version,3.0
numOfCh,1
type,point
parent_name,19e3e_0dot2-0dot01
ch_type,1_1
kcount,1
numberNandB,1
brightnessNandB,1
carpet pos,0
pc,0
Time (ms),CH1 Auto-Correlation
1.0,0.03221195936203003
2.0,0.031612928956747055
3.0,0.03104628436267376
4.0,0.030485309660434723
5.0,0.029964370653033257
6.0,0.029462194070219994
7.0,0.02897213213145733
8.0,0.02848954126238823
9.0,0.02802528440952301
10.0,0.027569403871893883
11.0,0.027130236849188805
12.0,0.02670365199446678
13.0,0.026286642998456955
14.0,0.02588712051510811
15.0,0.025492679327726364
16.0,0.025077184662222862
18.0,0.02426719479262829
20.0,0.02351490780711174
22.0,0.022834695875644684
24.0,0.022228548303246498
26.0,0.02165997214615345
28.0,0.021145189180970192
30.0,0.0206516794860363
32.0,0.020162362605333328
36.0,0.019332576543092728
40.0,0.018615970388054848
44.0,0.017988774925470352
48.0,0.01745661534368992
52.0,0.016884708777070045
56.0,0.016345849260687828
60.0,0.0159209705889225
64.0,0.01557916309684515
72.0,0.014825861901044846
80.0,0.013967623934149742
88.0,0.013147502206265926
96.0,0.01225797738879919
104.0,0.011375179514288902
112.0,0.010506857186555862
120.0,0.009749842807650566
128.0,0.00922335498034954
144.0,0.008265828713774681
160.0,0.007789538707584143
176.0,0.007500975392758846
192.0,0.007319617085158825
208.0,0.007664849981665611
224.0,0.008176972158253193
240.0,0.008140668272972107
256.0,0.007767648436129093
288.0,0.007712723687291145
320.0,0.007688076701015234
352.0,0.007950901985168457
384.0,0.008043089881539345
416.0,0.007351739332079887
448.0,0.006123782601207495
480.0,0.005916875321418047
512.0,0.005852893460541964
576.0,0.005510973744094372
640.0,0.0043657016940414906
704.0,0.00287444400601089
768.0,0.0006520178867504001
832.0,-4.7156077926047146e-05
896.0,0.0002921582490671426
960.0,0.00012332358164712787
1024.0,-0.0020169606432318687
1152.0,-0.0024070243816822767
1280.0,-0.0017495540669187903
1408.0,-0.003942058887332678
1536.0,-0.0052620177157223225
1664.0,-0.005951423663645983
1792.0,-0.003607130143791437
1920.0,-0.0016541702207177877
2048.0,-0.004464281257241964
2304.0,-0.003382292343303561
2560.0,-0.0041575259529054165
2816.0,-0.0005155999097041786
3072.0,0.0011895045172423124
3328.0,0.0046309311874210835
3584.0,0.0040012551471591
3840.0,0.0036679920740425587
4096.0,0.0011906899744644761
4608.0,-1.674827217357233e-05
5120.0,-0.0020125743467360735
5632.0,-0.0023034082259982824
6144.0,-0.0013117978814989328
6656.0,0.0012398847611621022
7168.0,0.0032736724242568016
7680.0,0.002897077240049839
8192.0,-0.004327876027673483
end
