version,3.0
numOfCh,1
type,point
parent_name,19e3e_0dot2-0dot01
ch_type,1_1
kcount,1
numberNandB,1
brightnessNandB,1
carpet pos,0
pc,0
Time (ms),CH1 Auto-Correlation
1.0,0.040278851985931396
2.0,0.039674267172813416
3.0,0.03909283131361008
4.0,0.03852630779147148
5.0,0.03798700496554375
6.0,0.03746664151549339
7.0,0.03696133941411972
8.0,0.03647443279623985
9.0,0.0359950065612793
10.0,0.03554172441363335
11.0,0.03509534150362015
12.0,0.0346476212143898
13.0,0.03421834111213684
14.0,0.03380054607987404
15.0,0.033396754413843155
16.0,0.0330100953578949
18.0,0.0322592630982399
20.0,0.03154020756483078
22.0,0.030815254896879196
24.0,0.03008623793721199
26.0,0.0293784961104393
28.0,0.028702452778816223
30.0,0.02808629348874092
32.0,0.027510711923241615
36.0,0.026360800489783287
40.0,0.02520684525370598
44.0,0.024131154641509056
48.0,0.02308700606226921
52.0,0.022009754553437233
56.0,0.020931178703904152
60.0,0.019948575645685196
64.0,0.01910518668591976
72.0,0.017754333093762398
80.0,0.01678583025932312
88.0,0.016089467331767082
96.0,0.01546885073184967
104.0,0.01484167855232954
112.0,0.01425255462527275
120.0,0.01343578938394785
128.0,0.012770545668900013
144.0,0.011993778869509697
160.0,0.011260340921580791
176.0,0.010098617523908615
192.0,0.009233341552317142
208.0,0.008616571314632893
224.0,0.0074012745171785355
240.0,0.006620802450925112
256.0,0.006659327074885368
288.0,0.007686159107834101
320.0,0.007653651759028435
352.0,0.0058936807326972485
384.0,0.006165932398289442
416.0,0.006589112803339958
448.0,0.006423261482268572
480.0,0.005554285831749439
512.0,0.003379807574674487
576.0,0.0008912307093851268
640.0,0.00014906615251675248
704.0,-0.0007018210017122328
768.0,0.0003626201068982482
832.0,0.0017581988358870149
896.0,0.002703836653381586
960.0,0.005814479198306799
1024.0,0.006442010402679443
1152.0,0.006186092272400856
1280.0,0.003757630940526724
1408.0,0.002128907945007086
1536.0,0.0025690379552543163
1664.0,0.001551617169752717
1792.0,-0.0015006964094936848
1920.0,0.0020267637446522713
2048.0,0.004358386620879173
2304.0,0.0027688713744282722
2560.0,-0.0007112564635463059
2816.0,-0.00038002265500836074
3072.0,0.00038157784729264677
3328.0,0.005340784788131714
3584.0,0.0035285414196550846
3840.0,9.786116424947977e-05
4096.0,-0.0037163260858505964
4608.0,0.0004027009126730263
5120.0,-0.0035777383018285036
5632.0,-0.00496302405372262
6144.0,-0.0014932749327272177
6656.0,-0.0012553716078400612
7168.0,-0.00551140820607543
7680.0,-0.009666637517511845
8192.0,-0.005514903459697962
end
