version,3.0
numOfCh,1
type,point
parent_name,19e3e_0dot2-0dot01
ch_type,1_1
kcount,1
numberNandB,1
brightnessNandB,1
carpet pos,0
pc,0
Time (ms),CH1 Auto-Correlation
1.0,0.03256523609161377
2.0,0.0319514274597168
3.0,0.031359024345874786
4.0,0.030781857669353485
5.0,0.030230684205889702
6.0,0.029702896252274513
7.0,0.02921263314783573
8.0,0.028732318431138992
9.0,0.02824300527572632
10.0,0.027778487652540207
11.0,0.027330882847309113
12.0,0.026889396831393242
13.0,0.026453208178281784
14.0,0.02602771855890751
15.0,0.02561153657734394
16.0,0.025210874155163765
18.0,0.02442903071641922
20.0,0.023698151111602783
22.0,0.023016490042209625
24.0,0.02234826609492302
26.0,0.021696744486689568
28.0,0.02106427401304245
30.0,0.020454632118344307
32.0,0.01990930177271366
36.0,0.01890769600868225
40.0,0.017985166981816292
44.0,0.01713497005403042
48.0,0.01630588248372078
52.0,0.015554318204522133
56.0,0.01489353459328413
60.0,0.014354062266647816
64.0,0.013826906681060791
72.0,0.012971282936632633
80.0,0.012216223403811455
88.0,0.011553829535841942
96.0,0.010948406532406807
104.0,0.010417014360427856
112.0,0.009621139615774155
120.0,0.008677161298692226
128.0,0.007834957912564278
144.0,0.006283923517912626
160.0,0.0053268070332705975
176.0,0.005085171200335026
192.0,0.005066375248134136
208.0,0.005089682061225176
224.0,0.004805855918675661
240.0,0.0044347383081912994
256.0,0.004138558637350798
288.0,0.004428412765264511
320.0,0.004150916822254658
352.0,0.0032983869314193726
384.0,0.0030406899750232697
416.0,0.002367646200582385
448.0,0.0012520311865955591
480.0,0.001987758092582226
512.0,0.0034835480619221926
576.0,0.0022073055151849985
640.0,0.0014598930720239878
704.0,0.00010928761912509799
768.0,-0.00010410846152808517
832.0,0.0008739444310776889
896.0,-6.201428914209828e-05
960.0,0.0009101983741857111
1024.0,0.0010686524910852313
1152.0,-0.001714599085971713
1280.0,-0.00220581260509789
1408.0,-0.0032643545418977737
1536.0,-0.003007277613505721
1664.0,-0.0038483543321490288
1792.0,-0.0032980849500745535
1920.0,-0.002595354337245226
2048.0,-0.0008507003076374531
2304.0,-0.0014221527380868793
2560.0,-0.0015252791345119476
2816.0,-0.00032206493779085577
3072.0,-0.00279844063334167
3328.0,-0.002741313073784113
3584.0,-6.388725159922615e-05
3840.0,-0.002103053033351898
4096.0,-0.0036983743775635958
4608.0,-0.0005586911574937403
5120.0,0.000570434785913676
5632.0,0.0029418061021715403
6144.0,0.0036962951999157667
6656.0,0.004062524531036615
7168.0,-0.0026965574361383915
7680.0,-0.0009593423455953598
8192.0,-0.00019669132598210126
end
