version,3.0
numOfCh,1
type,point
parent_name,19e3e_0dot2-0dot01
ch_type,1_1
kcount,1
numberNandB,1
brightnessNandB,1
carpet pos,0
pc,0
Time (ms),CH1 Auto-Correlation
1.0,0.04189497232437134
2.0,0.0412236750125885
3.0,0.04057035595178604
4.0,0.039921604096889496
5.0,0.0392962321639061
6.0,0.0387076810002327
7.0,0.03813999518752098
8.0,0.03760608658194542
9.0,0.037092361599206924
10.0,0.03659679368138313
11.0,0.036132872104644775
12.0,0.03566290810704231
13.0,0.03516281768679619
14.0,0.03467296436429024
15.0,0.03418979421257973
16.0,0.033739425241947174
18.0,0.03286148980259895
20.0,0.03200727701187134
22.0,0.03114890120923519
24.0,0.030309628695249557
26.0,0.029392393305897713
28.0,0.028451306745409966
30.0,0.027534881606698036
32.0,0.026645375415682793
36.0,0.02493787184357643
40.0,0.023310726508498192
44.0,0.021945081651210785
48.0,0.020721882581710815
52.0,0.01953158527612686
56.0,0.01854979805648327
60.0,0.017703866586089134
64.0,0.01690310426056385
72.0,0.015480564907193184
80.0,0.01437194924801588
88.0,0.013382276520133018
96.0,0.012543314136564732
104.0,0.011804617941379547
112.0,0.01113094575703144
120.0,0.010441781021654606
128.0,0.00998104177415371
144.0,0.009257103316485882
160.0,0.008476261049509048
176.0,0.00751475477591157
192.0,0.006654076278209686
208.0,0.00539243733510375
224.0,0.0038492362946271896
240.0,0.002830554498359561
256.0,0.002467431826516986
288.0,0.002878802362829447
320.0,0.002268468029797077
352.0,0.0004753056273330003
384.0,-0.00036411528708413243
416.0,-0.00015954067930579185
448.0,0.001348503865301609
480.0,0.0013360448647290468
512.0,3.852562440442853e-05
576.0,-0.0042307814583182335
640.0,-0.006415100768208504
704.0,-0.007956178858876228
768.0,-0.006457418669015169
832.0,-0.0029914064798504114
896.0,-0.0006772765191271901
960.0,0.0005789760034531355
1024.0,-0.00042177533032372594
1152.0,-0.0046908496879041195
1280.0,-0.006308101583272219
1408.0,-0.006324315443634987
1536.0,-0.007987001910805702
1664.0,-0.006721906829625368
1792.0,-0.004061941523104906
1920.0,0.0023805713281035423
2048.0,0.0053560128435492516
2304.0,0.003859962336719036
2560.0,0.002311132848262787
2816.0,0.0008543828153051436
3072.0,0.0012733740732073784
3328.0,0.0009255005861632526
3584.0,0.00017664988990873098
3840.0,-0.0021948744542896748
4096.0,0.0007586581632494926
4608.0,-0.0011258656159043312
5120.0,0.0010685118613764644
5632.0,-0.0018815480871126056
6144.0,0.0005606080521829426
6656.0,0.00026363428332842886
7168.0,0.0021020411513745785
7680.0,0.0013924011727795005
8192.0,-0.001078588655218482
end
