version,3.0
numOfCh,1
type,point
parent_name,19e3e_0dot2-0dot01
ch_type,1_1
kcount,1
numberNandB,1
brightnessNandB,1
carpet pos,0
pc,0
Time (ms),CH1 Auto-Correlation
1.0,0.03452073782682419
2.0,0.033945951610803604
3.0,0.033390916883945465
4.0,0.0328519344329834
5.0,0.03234637901186943
6.0,0.03185739740729332
7.0,0.0314011424779892
8.0,0.030965549871325493
9.0,0.030544886365532875
10.0,0.030144140124320984
11.0,0.029751013964414597
12.0,0.029372548684477806
13.0,0.02900831773877144
14.0,0.02865517884492874
15.0,0.02831714041531086
16.0,0.02799116261303425
18.0,0.02732996642589569
20.0,0.026696717366576195
22.0,0.026109768077731133
24.0,0.02555879019200802
26.0,0.025039108470082283
28.0,0.024571558460593224
30.0,0.024161554872989655
32.0,0.02375934273004532
36.0,0.02300472930073738
40.0,0.022351672872900963
44.0,0.021763896569609642
48.0,0.021134665235877037
52.0,0.0204978846013546
56.0,0.01996995136141777
60.0,0.019477063789963722
64.0,0.01900644041597843
72.0,0.018121542409062386
80.0,0.017251797020435333
88.0,0.016288140788674355
96.0,0.015453604981303215
104.0,0.014675220474600792
112.0,0.013902241364121437
120.0,0.013057002797722816
128.0,0.01224997267127037
144.0,0.011340674944221973
160.0,0.010727818123996258
176.0,0.010238910093903542
192.0,0.009927158243954182
208.0,0.009362466633319855
224.0,0.008580711670219898
240.0,0.008151087909936905
256.0,0.00785738229751587
288.0,0.007589864078909159
320.0,0.005794084630906582
352.0,0.0044703311286866665
384.0,0.004098809324204922
416.0,0.003939714748412371
448.0,0.0034584926906973124
480.0,0.003656800137832761
512.0,0.0043222736567258835
576.0,0.004631360061466694
640.0,0.00548515422269702
704.0,0.005121033173054457
768.0,0.005142067559063435
832.0,0.006699786521494389
896.0,0.006914389785379171
960.0,0.00492895720526576
1024.0,0.0043091727420687675
1152.0,0.0024921302683651447
1280.0,6.492125248769298e-05
1408.0,0.00043424699106253684
1536.0,0.0032711606472730637
1664.0,0.004768577869981527
1792.0,0.005607175175100565
1920.0,0.004678689409047365
2048.0,0.002886819653213024
2304.0,0.0030187766533344984
2560.0,0.003637024899944663
2816.0,0.0056468164548277855
3072.0,0.003246481064707041
3328.0,0.0009378070244565606
3584.0,0.0007342869648709893
3840.0,0.0021321780513972044
4096.0,-0.001485425396822393
4608.0,-0.000631171278655529
5120.0,-0.0048591201193630695
5632.0,0.0006488504004664719
6144.0,-7.09767991793342e-05
6656.0,-0.004060626961290836
7168.0,-0.0024193511344492435
7680.0,-0.002448223065584898
8192.0,-0.002900088205933571
end
