version,3.0
numOfCh,1
type,point
parent_name,19e3e_0dot2-0dot01
ch_type,1_1
kcount,1
numberNandB,1
brightnessNandB,1
carpet pos,0
pc,0
Time (ms),CH1 Auto-Correlation
1.0,0.029746999964118004
2.0,0.029186440631747246
3.0,0.028646932914853096
4.0,0.02813970297574997
5.0,0.027658680453896523
6.0,0.02719206176698208
7.0,0.026758886873722076
8.0,0.026342637836933136
9.0,0.025918586179614067
10.0,0.025514444336295128
11.0,0.025124050676822662
12.0,0.024742398411035538
13.0,0.024379435926675797
14.0,0.024019839242100716
15.0,0.023676797747612
16.0,0.02334454655647278
18.0,0.022695187479257584
20.0,0.02205498144030571
22.0,0.021440723910927773
24.0,0.020861588418483734
26.0,0.020302578806877136
28.0,0.01974836364388466
30.0,0.019221751019358635
32.0,0.01872626505792141
36.0,0.017905015498399734
40.0,0.017179293558001518
44.0,0.016479991376399994
48.0,0.01581038534641266
52.0,0.015156815759837627
56.0,0.014525193721055984
60.0,0.01392748299986124
64.0,0.013372311368584633
72.0,0.012312883511185646
80.0,0.011385193094611168
88.0,0.010588271543383598
96.0,0.01000900100916624
104.0,0.009558703750371933
112.0,0.009294582530856133
120.0,0.008770853281021118
128.0,0.008191213011741638
144.0,0.007334728259593248
160.0,0.006461356300860643
176.0,0.005641406401991844
192.0,0.005045452155172825
208.0,0.004546754062175751
224.0,0.004468964412808418
240.0,0.004374158103018999
256.0,0.004218369722366333
288.0,0.003713654587045312
320.0,0.0035948040895164013
352.0,0.0038351723924279213
384.0,0.002922113984823227
416.0,0.0024498598650097847
448.0,0.0020134057849645615
480.0,0.002379027893766761
512.0,0.003152738092467189
576.0,0.0021685371175408363
640.0,0.0037542509380728006
704.0,0.005944789387285709
768.0,0.006387392058968544
832.0,0.003906361758708954
896.0,0.001549036824144423
960.0,0.00037236561183817685
1024.0,-0.0014406651025637984
1152.0,-0.002070726128295064
1280.0,-0.0008846434066072106
1408.0,0.0003022007877007127
1536.0,0.0013812518445774913
1664.0,0.0008955707307904959
1792.0,-0.00021519162692129612
1920.0,0.0004665349842980504
2048.0,0.0005769121344201267
2304.0,0.0024905912578105927
2560.0,0.001353207160718739
2816.0,0.0005127893527969718
3072.0,-0.0002447098959237337
3328.0,-0.002540039364248514
3584.0,-0.002199469367042184
3840.0,-0.0020723589695990086
4096.0,-0.001867525395937264
4608.0,-0.000496965367347002
5120.0,0.0004592720069922507
5632.0,-0.0019477613968774676
6144.0,-0.005042328964918852
6656.0,-0.0063153645023703575
7168.0,-0.0027448548935353756
7680.0,-0.0012197825126349926
8192.0,-0.001968910451978445
end
