version,3.0
numOfCh,1
type,point
parent_name,19e3e_0dot2-0dot01
ch_type,1_1
kcount,1
numberNandB,1
brightnessNandB,1
carpet pos,0
pc,0
Time (ms),CH1 Auto-Correlation
1.0,0.0434403195977211
2.0,0.04282187670469284
3.0,0.0422249399125576
4.0,0.04164879024028778
5.0,0.04109473526477814
6.0,0.04057440161705017
7.0,0.040074776858091354
8.0,0.03960614278912544
9.0,0.039164844900369644
10.0,0.03873763978481293
11.0,0.03831023722887039
12.0,0.03788929060101509
13.0,0.037463296204805374
14.0,0.03705635294318199
15.0,0.03666079416871071
16.0,0.03625812381505966
18.0,0.035520754754543304
20.0,0.034827135503292084
22.0,0.034133315086364746
24.0,0.033453769981861115
26.0,0.03280128911137581
28.0,0.03214757889509201
30.0,0.031474173069000244
32.0,0.03081623651087284
36.0,0.029629992321133614
40.0,0.028568899258971214
44.0,0.02762993797659874
48.0,0.026815010234713554
52.0,0.02608978934586048
56.0,0.025403715670108795
60.0,0.024766741320490837
64.0,0.024137312546372414
72.0,0.022938579320907593
80.0,0.02194501832127571
88.0,0.021233651787042618
96.0,0.020694218575954437
104.0,0.020251132547855377
112.0,0.019767234101891518
120.0,0.019191857427358627
128.0,0.018882133066654205
144.0,0.018716711550951004
160.0,0.01810549944639206
176.0,0.017082426697015762
192.0,0.016016237437725067
208.0,0.015353123657405376
224.0,0.014699557796120644
240.0,0.01411080826073885
256.0,0.013488901779055595
288.0,0.011896323412656784
320.0,0.01097152754664421
352.0,0.009872505441308022
384.0,0.009370841085910797
416.0,0.009536577388644218
448.0,0.008865272626280785
480.0,0.008587469346821308
512.0,0.007460323162376881
576.0,0.008000549860298634
640.0,0.007266901433467865
704.0,0.00608086446300149
768.0,0.003902951953932643
832.0,0.0028312774375081062
896.0,0.004090931266546249
960.0,0.005128160119056702
1024.0,0.00384092191234231
1152.0,0.003020985284820199
1280.0,0.0020008885767310858
1408.0,0.0031612610910087824
1536.0,0.0014276460278779268
1664.0,0.0005846646381542087
1792.0,0.00043499656021595
1920.0,0.0008734670118428767
2048.0,0.0011743440991267562
2304.0,-0.0030670887790620327
2560.0,-0.005476073361933231
2816.0,-0.0060035064816474915
3072.0,-0.0024384181015193462
3328.0,-0.004115184303373098
3584.0,-0.006694643758237362
3840.0,-0.006151477340608835
4096.0,-0.008061973378062248
4608.0,-0.005935376510024071
5120.0,0.002512690844014287
5632.0,0.0037200250662863255
6144.0,0.004315374419093132
6656.0,0.004108652472496033
7168.0,0.007089733146131039
7680.0,-0.001335563836619258
8192.0,0.0016349003417417407
end
