version,3.0
numOfCh,1
type,point
parent_name,19e3e_0dot2-0dot01
ch_type,1_1
kcount,1
numberNandB,1
brightnessNandB,1
carpet pos,0
pc,0
Time (ms),CH1 Auto-Correlation
1.0,0.028340604156255722
2.0,0.027759892866015434
3.0,0.02719764970242977
4.0,0.026649633422493935
5.0,0.026108291000127792
6.0,0.02557319588959217
7.0,0.025055909529328346
8.0,0.024559229612350464
9.0,0.024087077006697655
10.0,0.023632856085896492
11.0,0.023199589923024178
12.0,0.022785086184740067
13.0,0.02239154279232025
14.0,0.021998323500156403
15.0,0.02162424847483635
16.0,0.021247372031211853
18.0,0.0205036923289299
20.0,0.019794298335909843
22.0,0.019099745899438858
24.0,0.018434148281812668
26.0,0.01782277785241604
28.0,0.01722561940550804
30.0,0.01664881221950054
32.0,0.016099274158477783
36.0,0.015025049448013306
40.0,0.013961576856672764
44.0,0.012919359840452671
48.0,0.011972755193710327
52.0,0.011124094016849995
56.0,0.010358945466578007
60.0,0.009636864997446537
64.0,0.008948199450969696
72.0,0.007975916378200054
80.0,0.007079096976667643
88.0,0.006371576804667711
96.0,0.005816284101456404
104.0,0.0053630731999874115
112.0,0.004993315786123276
120.0,0.004665734246373177
128.0,0.0043529630638659
144.0,0.0028748149052262306
160.0,0.001430113916285336
176.0,0.00040940576582215726
192.0,-0.0003740150132216513
208.0,-0.0006084975902922451
224.0,-0.0008388449787162244
240.0,-0.0010447758249938488
256.0,-0.0011585269821807742
288.0,-0.0010333014652132988
320.0,-0.001613333122804761
352.0,-0.0013259865809231997
384.0,-0.00027181016048416495
416.0,0.001132982550188899
448.0,0.003681398695334792
480.0,0.004068641923367977
512.0,0.0038038904312998056
576.0,0.0013431297848001122
640.0,-0.0005226219655014575
704.0,0.00026689295191317797
768.0,-0.0004418753960635513
832.0,4.802348848897964e-05
896.0,0.0008507643360644579
960.0,0.0009084175108000636
1024.0,0.0006938621518202126
1152.0,-0.0008019108208827674
1280.0,0.0007173344492912292
1408.0,-0.0006842896109446883
1536.0,-0.000507707183714956
1664.0,0.00020939971727784723
1792.0,0.0016765546752139926
1920.0,0.0005461119581013918
2048.0,-0.0004341361054684967
2304.0,-0.003008439904078841
2560.0,-0.0016198119847103953
2816.0,-0.001515169395133853
3072.0,-0.0017135565867647529
3328.0,-0.0013833383563905954
3584.0,0.001204159576445818
3840.0,0.0003253834438510239
4096.0,0.002410226035863161
4608.0,0.002113906666636467
5120.0,0.0019162209937348962
5632.0,0.001110666897147894
6144.0,-0.0002455154899507761
6656.0,-0.0017234972910955548
7168.0,-0.005078609101474285
7680.0,-0.0012572723207995296
8192.0,-0.00036798417568206787
end
