version,3.0
numOfCh,1
type,point
parent_name,19e3e_0dot2-0dot01
ch_type,1_1
kcount,1
numberNandB,1
brightnessNandB,1
carpet pos,0
pc,0
Time (ms),CH1 Auto-Correlation
1.0,0.03472723439335823
2.0,0.0341666154563427
3.0,0.03361518308520317
4.0,0.033066026866436005
5.0,0.03253314271569252
6.0,0.032021407037973404
7.0,0.03152541071176529
8.0,0.03103097900748253
9.0,0.030533714219927788
10.0,0.030040644109249115
11.0,0.029561368748545647
12.0,0.02908969111740589
13.0,0.028620820492506027
14.0,0.028170885518193245
15.0,0.02773958258330822
16.0,0.027335885912179947
18.0,0.02655944414436817
20.0,0.025810210034251213
22.0,0.025084316730499268
24.0,0.02436748892068863
26.0,0.023703649640083313
28.0,0.02307695522904396
30.0,0.022474193945527077
32.0,0.021859705448150635
36.0,0.020759493112564087
40.0,0.019743559882044792
44.0,0.018791206181049347
48.0,0.01790262572467327
52.0,0.017054995521903038
56.0,0.01620202139019966
60.0,0.015484347939491272
64.0,0.014873994514346123
72.0,0.014011792838573456
80.0,0.013328917324543
88.0,0.012598291039466858
96.0,0.011852781288325787
104.0,0.011134400963783264
112.0,0.010274295695126057
120.0,0.009471336379647255
128.0,0.0087822824716568
144.0,0.007997769862413406
160.0,0.007141951005905867
176.0,0.007034380454570055
192.0,0.006688946392387152
208.0,0.00579376146197319
224.0,0.005159458145499229
240.0,0.0048187654465436935
256.0,0.004439528565853834
288.0,0.00448969891294837
320.0,0.0034979747142642736
352.0,0.0019957104232162237
384.0,0.0005913847708143294
416.0,0.0007085892139002681
448.0,0.0011096881935372949
480.0,0.0004962411476299167
512.0,0.0002586946066003293
576.0,-0.0005460458341985941
640.0,0.00015662210353184491
704.0,-0.0026404820382595062
768.0,-0.004855467937886715
832.0,-0.005313912872225046
896.0,-0.0047954414039850235
960.0,-0.003331804880872369
1024.0,-0.0038918829523026943
1152.0,-0.0036861582193523645
1280.0,-0.0033692868892103434
1408.0,-0.0005505552981048822
1536.0,0.0003265996347181499
1664.0,-0.0008011542377062142
1792.0,0.0017322442727163434
1920.0,0.002868113573640585
2048.0,0.0014975095400586724
2304.0,0.00020566291641443968
2560.0,0.0005889396998099983
2816.0,-0.002590910531580448
3072.0,-0.004438063595443964
3328.0,-0.0030515091493725777
3584.0,-0.0021052274387329817
3840.0,-0.0031673312187194824
4096.0,-0.0012798745883628726
4608.0,0.0009567297529429197
5120.0,0.00025994059978984296
5632.0,-0.002889990108087659
6144.0,0.0032101967372000217
6656.0,0.004592724144458771
7168.0,-2.8184014809085056e-05
7680.0,0.0008639246807433665
8192.0,0.0003053302934858948
end
