version,3.0
numOfCh,1
type,point
parent_name,19e3e_0dot2-0dot01
ch_type,1_1
kcount,1
numberNandB,1
brightnessNandB,1
carpet pos,0
pc,0
Time (ms),CH1 Auto-Correlation
1.0,0.027123553678393364
2.0,0.02655683271586895
3.0,0.026032580062747
4.0,0.025533132255077362
5.0,0.025041649118065834
6.0,0.024571191519498825
7.0,0.024115411564707756
8.0,0.0236738920211792
9.0,0.02323189191520214
10.0,0.022794974967837334
11.0,0.022386053577065468
12.0,0.021980617195367813
13.0,0.021590610966086388
14.0,0.021209046244621277
15.0,0.02081693708896637
16.0,0.020448023453354836
18.0,0.019762825220823288
20.0,0.019089892506599426
22.0,0.018437035381793976
24.0,0.017819492146372795
26.0,0.017221493646502495
28.0,0.016630517318844795
30.0,0.016048332676291466
32.0,0.015480720438063145
36.0,0.014378763735294342
40.0,0.01335167232900858
44.0,0.01240844652056694
48.0,0.01155880093574524
52.0,0.010892810299992561
56.0,0.010315551422536373
60.0,0.009829869493842125
64.0,0.009358963929116726
72.0,0.008445024490356445
80.0,0.007624561432749033
88.0,0.00699047464877367
96.0,0.006464460864663124
104.0,0.006038066931068897
112.0,0.005661721806973219
120.0,0.005323339719325304
128.0,0.004897687584161758
144.0,0.0044870018027722836
160.0,0.003937480505555868
176.0,0.003494772594422102
192.0,0.0029698414728045464
208.0,0.0023600675631314516
224.0,0.0018875879468396306
240.0,0.0020564927253872156
256.0,0.0026263257022947073
288.0,0.002809597412124276
320.0,0.0025848732329905033
352.0,0.0023290778044611216
384.0,0.0015564549248665571
416.0,0.0014778039185330272
448.0,0.002000038977712393
480.0,0.0024306168779730797
512.0,0.001743461936712265
576.0,-1.8775866919895634e-05
640.0,-8.664783672429621e-05
704.0,-0.00107020593713969
768.0,0.0008046337752602994
832.0,0.001091842306777835
896.0,-0.00018865488527808338
960.0,-0.0010814053239300847
1024.0,-0.0006136770825833082
1152.0,-0.00105266273021698
1280.0,-0.002320466097444296
1408.0,-0.002060456434264779
1536.0,-0.0018552957335487008
1664.0,-0.0015610228292644024
1792.0,-0.004233384504914284
1920.0,-0.0012991591356694698
2048.0,0.0019571627490222454
2304.0,0.0005524083389900625
2560.0,-0.002348583657294512
2816.0,-0.002586152870208025
3072.0,-0.00013587383728008717
3328.0,-0.000759161775931716
3584.0,-0.001635697204619646
3840.0,0.0004430366097949445
4096.0,0.0010497235925868154
4608.0,0.0026324018836021423
5120.0,0.0018479112768545747
5632.0,-8.936227823141962e-05
6144.0,-0.0016031339764595032
6656.0,-0.002786481287330389
7168.0,-0.0038431291468441486
7680.0,-0.000693242996931076
8192.0,0.0020960133988410234
end
