version,3.0
numOfCh,1
type,point
parent_name,19e3e_0dot2-0dot01
ch_type,1_1
kcount,1
numberNandB,1
brightnessNandB,1
carpet pos,0
pc,0
Time (ms),CH1 Auto-Correlation
1.0,0.03018859773874283
2.0,0.02959604188799858
3.0,0.029034288600087166
4.0,0.028468294069170952
5.0,0.02791944518685341
6.0,0.02740400657057762
7.0,0.026913519948720932
8.0,0.026438046246767044
9.0,0.025988744571805
10.0,0.02554572932422161
11.0,0.025107918307185173
12.0,0.024691520258784294
13.0,0.02428169921040535
14.0,0.023874182254076004
15.0,0.023473501205444336
16.0,0.023086337372660637
18.0,0.022348415106534958
20.0,0.02165561355650425
22.0,0.021000711247324944
24.0,0.02035488933324814
26.0,0.019754700362682343
28.0,0.01916692964732647
30.0,0.018584197387099266
32.0,0.018026817589998245
36.0,0.017016630619764328
40.0,0.016037292778491974
44.0,0.015055857598781586
48.0,0.014186644926667213
52.0,0.01340559870004654
56.0,0.012692798860371113
60.0,0.011996783316135406
64.0,0.01127012912184
72.0,0.010128457099199295
80.0,0.009218031540513039
88.0,0.008405105210840702
96.0,0.007618560455739498
104.0,0.00675069959834218
112.0,0.0059401425532996655
120.0,0.005528422072529793
128.0,0.00532459607347846
144.0,0.004431243520230055
160.0,0.003551511326804757
176.0,0.0030985199846327305
192.0,0.0029408708214759827
208.0,0.002612812677398324
224.0,0.002231115708127618
240.0,0.002203951356932521
256.0,0.0022697397507727146
288.0,0.0029638672713190317
320.0,0.00326935644261539
352.0,0.002972190035507083
384.0,0.002263018162921071
416.0,0.001362898270599544
448.0,0.0009033327223733068
480.0,0.00046512900735251606
512.0,0.00013811442477162927
576.0,0.0005239545716904104
640.0,0.0012365310685709119
704.0,0.0023312580306082964
768.0,0.0014638957800343633
832.0,0.001376779517158866
896.0,0.000317952421028167
960.0,0.0003524779458530247
1024.0,0.0006952845142222941
1152.0,-0.0019596884958446026
1280.0,0.0010258707916364074
1408.0,0.0034159328788518906
1536.0,0.0030600614845752716
1664.0,0.00222349027171731
1792.0,0.001015883288346231
1920.0,-0.0017725685611367226
2048.0,-0.0008690172107890248
2304.0,-0.0007982133538462222
2560.0,0.00036389994784258306
2816.0,0.0008416965138167143
3072.0,0.0013060348574072123
3328.0,-0.0015151205006986856
3584.0,-0.002209446392953396
3840.0,-0.0017665657214820385
4096.0,7.064442615956068e-05
4608.0,-0.0019662808626890182
5120.0,-0.0018714219331741333
5632.0,-0.00352342682890594
6144.0,-0.0026788089890033007
6656.0,0.0010470608249306679
7168.0,-9.52888949541375e-05
7680.0,-0.0005666491924785078
8192.0,-0.0013444393407553434
end
