version,3.0
numOfCh,1
type,point
parent_name,19e3e_0dot2-0dot01
ch_type,1_1
kcount,1
numberNandB,1
brightnessNandB,1
carpet pos,0
pc,0
Time (ms),CH1 Auto-Correlation
1.0,0.08242203295230865
2.0,0.08059422671794891
3.0,0.07876260578632355
4.0,0.07680580019950867
5.0,0.07484616339206696
6.0,0.07288361340761185
7.0,0.07098788768053055
8.0,0.06909622997045517
9.0,0.06711648404598236
10.0,0.06516876071691513
11.0,0.06321162730455399
12.0,0.061259519308805466
13.0,0.05930143967270851
14.0,0.057317785918712616
15.0,0.05541396886110306
16.0,0.053558349609375
18.0,0.049986302852630615
20.0,0.046673353761434555
22.0,0.04353053867816925
24.0,0.042482174932956696
26.0,0.04155266657471657
28.0,0.04081049934029579
30.0,0.04007188230752945
32.0,0.039372771978378296
36.0,0.038305237889289856
40.0,0.037275467067956924
44.0,0.03608855605125427
48.0,0.03514348343014717
52.0,0.03408024460077286
56.0,0.033046599477529526
60.0,0.03194976598024368
64.0,0.030825220048427582
72.0,0.028554659336805344
80.0,0.02638162299990654
88.0,0.024807274341583252
96.0,0.02451983653008938
104.0,0.024003947153687477
112.0,0.023176955059170723
120.0,0.021699173375964165
128.0,0.019962454214692116
144.0,0.01755414344370365
160.0,0.0158340185880661
176.0,0.01413596048951149
192.0,0.011316732503473759
208.0,0.007749977055937052
224.0,0.005753471050411463
240.0,0.006373204756528139
256.0,0.0057821511290967464
288.0,0.004595363046973944
320.0,0.002617472317069769
352.0,0.00221063825301826
384.0,0.005076443776488304
416.0,0.007181703113019466
448.0,0.006103323306888342
480.0,0.0054651848040521145
512.0,0.005290041211992502
576.0,0.0034916310105472803
640.0,0.004565623588860035
704.0,0.0025789299979805946
768.0,0.0012328086886554956
832.0,0.0018232333241030574
896.0,0.0029599289409816265
960.0,-0.00037124918890185654
1024.0,-0.0005730800912715495
1152.0,6.372451753122732e-05
1280.0,-0.004128203261643648
1408.0,-0.0023819003254175186
1536.0,0.0027404327411204576
1664.0,0.002465491183102131
1792.0,-0.008017153479158878
1920.0,-0.0011194051476195455
2048.0,0.003369247540831566
2304.0,-0.0007691756472922862
2560.0,0.003649328835308552
2816.0,-2.044787379418267e-06
3072.0,-0.0003015727561432868
3328.0,-0.0020721438340842724
3584.0,-0.00783118512481451
3840.0,-0.00014422454114537686
4096.0,0.004276518244296312
4608.0,-0.005708606913685799
5120.0,-0.0011523853754624724
5632.0,0.002778981113806367
6144.0,-0.0011107414029538631
6656.0,-0.0015670106513425708
7168.0,-0.0033306058030575514
7680.0,0.0014741920167580247
8192.0,0.02583307772874832
end
