version,3.0
numOfCh,1
type,point
parent_name,19e3e_0dot2-0dot01
ch_type,1_1
kcount,1
numberNandB,1
brightnessNandB,1
carpet pos,0
pc,0
Time (ms),CH1 Auto-Correlation
1.0,0.030330980196595192
2.0,0.02976883575320244
3.0,0.02922026440501213
4.0,0.028683718293905258
5.0,0.028156640008091927
6.0,0.02765788696706295
7.0,0.027178989723324776
8.0,0.02671223133802414
9.0,0.026267986744642258
10.0,0.025841716676950455
11.0,0.025431571528315544
12.0,0.025030728429555893
13.0,0.02463585138320923
14.0,0.0242608655244112
15.0,0.0238873939961195
16.0,0.023532934486865997
18.0,0.022802073508501053
20.0,0.02208510786294937
22.0,0.021416733041405678
24.0,0.020815471187233925
26.0,0.02027546614408493
28.0,0.019771071150898933
30.0,0.019289936870336533
32.0,0.018838295713067055
36.0,0.017976166680455208
40.0,0.01714409328997135
44.0,0.016336211934685707
48.0,0.015521676279604435
52.0,0.014819668605923653
56.0,0.014144658111035824
60.0,0.013532062992453575
64.0,0.012935981154441833
72.0,0.011860611848533154
80.0,0.010967285372316837
88.0,0.010379546321928501
96.0,0.009864093735814095
104.0,0.009426051750779152
112.0,0.008950640447437763
120.0,0.008546737022697926
128.0,0.008204213343560696
144.0,0.007338812109082937
160.0,0.0066120135597884655
176.0,0.0060384757816791534
192.0,0.005653998348861933
208.0,0.005224219523370266
224.0,0.004554894752800465
240.0,0.0044484129175543785
256.0,0.004180771764367819
288.0,0.0035105582792311907
320.0,0.003604969009757042
352.0,0.004062811844050884
384.0,0.004259263165295124
416.0,0.0036955117247998714
448.0,0.002186521654948592
480.0,0.0009533425327390432
512.0,-0.0009665598627179861
576.0,-0.0008498515235260129
640.0,0.0007517531630583107
704.0,0.0007451165583916008
768.0,0.0005402781534940004
832.0,0.0007450843695551157
896.0,-0.0004909816198050976
960.0,-0.002040720544755459
1024.0,-0.0024432239588350058
1152.0,-0.0015411191852763295
1280.0,-0.001011938089504838
1408.0,-0.002570035634562373
1536.0,-0.0009183124639093876
1664.0,-0.0009776592487469316
1792.0,-8.150112262228504e-05
1920.0,-1.8670020835998002e-06
2048.0,-0.0010019371984526515
2304.0,-0.0024347291328012943
2560.0,-0.0002791647566482425
2816.0,-0.0007897280156612396
3072.0,-0.00350888236425817
3328.0,-0.0016088781412690878
3584.0,0.0016620077658444643
3840.0,0.0023010659497231245
4096.0,-0.0004977862699888647
4608.0,-0.00011253689444856718
5120.0,-0.0036370838060975075
5632.0,0.0005012599285691977
6144.0,-0.0011021052487194538
6656.0,-0.001639108406379819
7168.0,0.005403046030551195
7680.0,0.0024683396331965923
8192.0,0.0010524275712668896
end
