version,3.0
numOfCh,1
type,point
parent_name,19e3e_0dot2-0dot01
ch_type,1_1
kcount,1
numberNandB,1
brightnessNandB,1
carpet pos,0
pc,0
Time (ms),CH1 Auto-Correlation
1.0,0.030879955738782883
2.0,0.030302613973617554
3.0,0.029725823551416397
4.0,0.029156934469938278
5.0,0.02860734611749649
6.0,0.028079917654395103
7.0,0.027563752606511116
8.0,0.027064306661486626
9.0,0.026587888598442078
10.0,0.026126455515623093
11.0,0.025690637528896332
12.0,0.02525596134364605
13.0,0.02483939938247204
14.0,0.02443336695432663
15.0,0.024033473804593086
16.0,0.02363424189388752
18.0,0.022844703868031502
20.0,0.022088365629315376
22.0,0.021350957453250885
24.0,0.020648162811994553
26.0,0.019989579916000366
28.0,0.01932287961244583
30.0,0.018664903938770294
32.0,0.018028542399406433
36.0,0.01679116301238537
40.0,0.015621175058186054
44.0,0.014622586779296398
48.0,0.013766659423708916
52.0,0.01296317484229803
56.0,0.01227094978094101
60.0,0.011607006192207336
64.0,0.010970194824039936
72.0,0.009757730178534985
80.0,0.008684348315000534
88.0,0.0077036721631884575
96.0,0.006826241500675678
104.0,0.006066977046430111
112.0,0.005400894209742546
120.0,0.004747974220663309
128.0,0.004153646063059568
144.0,0.0035553809721022844
160.0,0.0033217202872037888
176.0,0.0033051185309886932
192.0,0.0030937909614294767
208.0,0.0028564755339175463
224.0,0.0028986597899347544
240.0,0.002929131733253598
256.0,0.003139506559818983
288.0,0.002939915284514427
320.0,0.003431143006309867
352.0,0.004324267618358135
384.0,0.0033059632405638695
416.0,0.0017209292855113745
448.0,0.0012276722118258476
480.0,0.0014775844756513834
512.0,0.0013829097151756287
576.0,0.00014329192345030606
640.0,0.00013011520786676556
704.0,0.00022200931562110782
768.0,-0.00035047062556259334
832.0,-0.0005913469940423965
896.0,-0.0015785222640261054
960.0,-0.0005587544292211533
1024.0,2.2835081836092286e-05
1152.0,-0.0007662360440008342
1280.0,-0.001389260753057897
1408.0,0.0020558645483106375
1536.0,0.0003649441641755402
1664.0,0.00033878558315336704
1792.0,0.0022027811501175165
1920.0,0.0002262760535813868
2048.0,-0.000984999118372798
2304.0,-0.002681763144209981
2560.0,-0.001966356998309493
2816.0,-0.0005028255982324481
3072.0,-0.00014452268078457564
3328.0,0.0006682001985609531
3584.0,-0.0006861346191726625
3840.0,-1.4815522263234016e-05
4096.0,9.077184586203657e-06
4608.0,-0.0006000917637720704
5120.0,-0.0013690266059711576
5632.0,0.0005985673051327467
6144.0,-0.0023126909509301186
6656.0,-0.002554815961048007
7168.0,0.0005890671163797379
7680.0,-0.0008411986636929214
8192.0,-0.0038627912290394306
end
