version,3.0
numOfCh,1
type,point
parent_name,19e3e_0dot2-0dot01
ch_type,1_1
kcount,1
numberNandB,1
brightnessNandB,1
carpet pos,0
pc,0
Time (ms),CH1 Auto-Correlation
1.0,0.03184085339307785
2.0,0.0312635712325573
3.0,0.030721429735422134
4.0,0.030179684981703758
5.0,0.029654111713171005
6.0,0.029172616079449654
7.0,0.02871006354689598
8.0,0.02825462445616722
9.0,0.02782285399734974
10.0,0.027413124218583107
11.0,0.027026638388633728
12.0,0.026641931384801865
13.0,0.026270154863595963
14.0,0.02591559663414955
15.0,0.025562705472111702
16.0,0.02522037737071514
18.0,0.024565041065216064
20.0,0.02397356927394867
22.0,0.02345394343137741
24.0,0.022954940795898438
26.0,0.022449837997555733
28.0,0.02197103016078472
30.0,0.021505001932382584
32.0,0.02103048749268055
36.0,0.02014005370438099
40.0,0.01939857192337513
44.0,0.018742384389042854
48.0,0.018222633749246597
52.0,0.017705056816339493
56.0,0.017253488302230835
60.0,0.01676798053085804
64.0,0.01621052250266075
72.0,0.015348956920206547
80.0,0.014724129810929298
88.0,0.0140606090426445
96.0,0.013108252547681332
104.0,0.012292206287384033
112.0,0.011681410484015942
120.0,0.01127796433866024
128.0,0.010895655490458012
144.0,0.010458672419190407
160.0,0.010356082580983639
176.0,0.010099482722580433
192.0,0.009413394145667553
208.0,0.008644690737128258
224.0,0.008250133134424686
240.0,0.008060610853135586
256.0,0.00775094935670495
288.0,0.007861282676458359
320.0,0.007688215002417564
352.0,0.006859332788735628
384.0,0.006516110617667437
416.0,0.0073217651806771755
448.0,0.007694327272474766
480.0,0.007272898219525814
512.0,0.0071578798815608025
576.0,0.006639443337917328
640.0,0.004152333829551935
704.0,0.0017987021710723639
768.0,0.0027740064542740583
832.0,0.0031907926313579082
896.0,0.002672868547961116
960.0,0.0022936256136745214
1024.0,0.002785362768918276
1152.0,0.0008913801284506917
1280.0,-0.0016580438241362572
1408.0,-9.367192978970706e-05
1536.0,0.0015098711010068655
1664.0,-0.001446237089112401
1792.0,-0.0026775426231324673
1920.0,-0.0008985009044408798
2048.0,0.0006321666296571493
2304.0,0.00024378766829613596
2560.0,0.0014502144185826182
2816.0,-0.0002901386469602585
3072.0,-0.0003443312889430672
3328.0,-0.0012390834745019674
3584.0,0.001632251893170178
3840.0,0.0008471226319670677
4096.0,0.0004400316975079477
4608.0,-0.00015684783284086734
5120.0,-0.0030865324661135674
5632.0,-0.005066098645329475
6144.0,-0.005396304652094841
6656.0,-0.006196403410285711
7168.0,-0.003390972036868334
7680.0,-0.004303630441427231
8192.0,-0.005295235197991133
end
