version,3.0
numOfCh,1
type,point
parent_name,19e3e_0dot2-0dot01
ch_type,1_1
kcount,1
numberNandB,1
brightnessNandB,1
carpet pos,0
pc,0
Time (ms),CH1 Auto-Correlation
1.0,0.039350204169750214
2.0,0.038655269891023636
3.0,0.03798703849315643
4.0,0.03732585906982422
5.0,0.03669768571853638
6.0,0.036076150834560394
7.0,0.03545895963907242
8.0,0.034863922744989395
9.0,0.034282222390174866
10.0,0.033712904900312424
11.0,0.03316086158156395
12.0,0.032635096460580826
13.0,0.032119281589984894
14.0,0.031606148928403854
15.0,0.03111504204571247
16.0,0.030640611425042152
18.0,0.029713507741689682
20.0,0.028769368305802345
22.0,0.02791808545589447
24.0,0.02711499109864235
26.0,0.02640044502913952
28.0,0.025771552696824074
30.0,0.025229373946785927
32.0,0.024678979068994522
36.0,0.023729825392365456
40.0,0.022997183725237846
44.0,0.022407906129956245
48.0,0.02192489244043827
52.0,0.021470878273248672
56.0,0.020873047411441803
60.0,0.020254293456673622
64.0,0.019696207717061043
72.0,0.018652616068720818
80.0,0.017453042790293694
88.0,0.016415681689977646
96.0,0.015408995561301708
104.0,0.014840641058981419
112.0,0.014659523963928223
120.0,0.014643892645835876
128.0,0.014753722585737705
144.0,0.014173362404108047
160.0,0.01341989729553461
176.0,0.012564525939524174
192.0,0.011606409214437008
208.0,0.010572425089776516
224.0,0.009858456440269947
240.0,0.00983858946710825
256.0,0.009385212324559689
288.0,0.008467286825180054
320.0,0.0076399436220526695
352.0,0.006353139411658049
384.0,0.007159598637372255
416.0,0.0059295110404491425
448.0,0.005577899515628815
480.0,0.004529690369963646
512.0,0.003712117439135909
576.0,0.0022052719723433256
640.0,0.00017854757606983185
704.0,0.0004407222440931946
768.0,-0.0007879369077272713
832.0,-0.0014941248809918761
896.0,-0.0003897360875271261
960.0,-0.0001412523997714743
1024.0,-0.00029651980730704963
1152.0,-0.000918327015824616
1280.0,-0.0014921450056135654
1408.0,0.0011987729230895638
1536.0,-0.0011408417485654354
1664.0,-0.004373934585601091
1792.0,-0.0037068291567265987
1920.0,-0.004301902838051319
2048.0,-0.0061037661507725716
2304.0,-0.003997124265879393
2560.0,-0.0018093832768499851
2816.0,-0.0012063408503308892
3072.0,-0.0008207466453313828
3328.0,-0.0017247148789465427
3584.0,-0.0025519130285829306
3840.0,-0.0030529340729117393
4096.0,-0.0031023218762129545
4608.0,-0.0013769867364317179
5120.0,-0.006353865377604961
5632.0,-0.006438061129301786
6144.0,0.0006118107703514397
6656.0,0.008008013479411602
7168.0,0.013462458737194538
7680.0,0.009964372031390667
8192.0,-0.0050238496623933315
end
