version,3.0
numOfCh,1
type,point
parent_name,19e3e_0dot2-0dot01
ch_type,1_1
kcount,1
numberNandB,1
brightnessNandB,1
carpet pos,0
pc,0
Time (ms),CH1 Auto-Correlation
1.0,0.035228729248046875
2.0,0.03465411812067032
3.0,0.03409240022301674
4.0,0.033551376312971115
5.0,0.033017728477716446
6.0,0.032490089535713196
7.0,0.03198079764842987
8.0,0.03149833157658577
9.0,0.03102824091911316
10.0,0.030557570978999138
11.0,0.030117686837911606
12.0,0.02969120815396309
13.0,0.02927999012172222
14.0,0.028859322890639305
15.0,0.028476323932409286
16.0,0.0280910637229681
18.0,0.027338573709130287
20.0,0.02662554197013378
22.0,0.0259455107152462
24.0,0.025288298726081848
26.0,0.024661248549818993
28.0,0.024110130965709686
30.0,0.023597585037350655
32.0,0.023118706420063972
36.0,0.022193292155861855
40.0,0.02128337137401104
44.0,0.020471610128879547
48.0,0.019742043688893318
52.0,0.019100459292531013
56.0,0.0185649823397398
60.0,0.018121426925063133
64.0,0.01768839918076992
72.0,0.016696613281965256
80.0,0.015731021761894226
88.0,0.014919712208211422
96.0,0.014321879483759403
104.0,0.013999511487782001
112.0,0.013655519112944603
120.0,0.01328133326023817
128.0,0.012976099736988544
144.0,0.012707109563052654
160.0,0.012349055148661137
176.0,0.012021319940686226
192.0,0.011751783080399036
208.0,0.011518383398652077
224.0,0.011156901717185974
240.0,0.00991237722337246
256.0,0.008193543180823326
288.0,0.0056513212621212006
320.0,0.0036105613689869642
352.0,0.003414926351979375
384.0,0.0036473048385232687
416.0,0.0045468769967556
448.0,0.005434607621282339
480.0,0.0054230340756475925
512.0,0.005344821140170097
576.0,0.006428394000977278
640.0,0.00675214221701026
704.0,0.008172107860445976
768.0,0.009556272998452187
832.0,0.008183776400983334
896.0,0.0064953044056892395
960.0,0.004289902281016111
1024.0,0.002521487884223461
1152.0,-0.0003014332032762468
1280.0,0.0001610518229426816
1408.0,0.004281970206648111
1536.0,0.00684842374175787
1664.0,0.0055047497153282166
1792.0,0.0003525049251038581
1920.0,-0.0016611694591119885
2048.0,0.0004953620955348015
2304.0,0.0021732039749622345
2560.0,-0.0008046747534535825
2816.0,-0.002431037835776806
3072.0,0.0016881456831470132
3328.0,-0.002143595367670059
3584.0,-0.001463122433051467
3840.0,0.002661581616848707
4096.0,-0.0004489509738050401
4608.0,-0.004882656037807465
5120.0,-0.0060425312258303165
5632.0,-0.004700119607150555
6144.0,-0.005050839856266975
6656.0,-0.003635381581261754
7168.0,-0.0024576890282332897
7680.0,0.0002993519010487944
8192.0,-0.0014004420954734087
end
