version,3.0
numOfCh,1
type,point
parent_name,19e3e_0dot2-0dot01
ch_type,1_1
kcount,1
numberNandB,1
brightnessNandB,1
carpet pos,0
pc,0
Time (ms),CH1 Auto-Correlation
1.0,0.032597851008176804
2.0,0.03203846514225006
3.0,0.03149702399969101
4.0,0.030965978279709816
5.0,0.030463187023997307
6.0,0.02998032607138157
7.0,0.02951611764729023
8.0,0.029059866443276405
9.0,0.028623124584555626
10.0,0.028204118832945824
11.0,0.027805091813206673
12.0,0.027414673939347267
13.0,0.027029696851968765
14.0,0.0266472976654768
15.0,0.026276398450136185
16.0,0.025926288217306137
18.0,0.025241900235414505
20.0,0.024648603051900864
22.0,0.024092603474855423
24.0,0.023542338982224464
26.0,0.023011375218629837
28.0,0.02244882471859455
30.0,0.021905114874243736
32.0,0.02137947455048561
36.0,0.020431721583008766
40.0,0.01957639865577221
44.0,0.01883167400956154
48.0,0.01802305318415165
52.0,0.01719711534678936
56.0,0.016447586938738823
60.0,0.015770919620990753
64.0,0.015107374638319016
72.0,0.013791091740131378
80.0,0.012537346221506596
88.0,0.011551742441952229
96.0,0.010681628249585629
104.0,0.00989996176213026
112.0,0.009240802377462387
120.0,0.008746962063014507
128.0,0.008320129476487637
144.0,0.007209862116724253
160.0,0.006567728240042925
176.0,0.006255117245018482
192.0,0.006118683610111475
208.0,0.005748933646827936
224.0,0.0052275569178164005
240.0,0.005052105523645878
256.0,0.004796900786459446
288.0,0.0041683814488351345
320.0,0.003581276163458824
352.0,0.0028493364807218313
384.0,0.0022542010992765427
416.0,0.0017746469238772988
448.0,0.001716469181701541
480.0,0.002053720410913229
512.0,0.002665503416210413
576.0,0.0036146449856460094
640.0,0.0034492327831685543
704.0,0.0018069790676236153
768.0,0.0006423275917768478
832.0,-0.00033764305408112705
896.0,-0.0019243498099967837
960.0,-0.002492536325007677
1024.0,-0.001703982474282384
1152.0,-0.000452040956588462
1280.0,0.00024196093727368861
1408.0,-0.0007992428145371377
1536.0,-0.002023386536166072
1664.0,-0.0030419735703617334
1792.0,-0.0026473901234567165
1920.0,-0.001664622570388019
2048.0,-0.0010039624758064747
2304.0,-0.002061684848740697
2560.0,-0.004341199062764645
2816.0,-0.0014530644984915853
3072.0,-0.0028682565316557884
3328.0,-0.000975924136582762
3584.0,-0.0023067304864525795
3840.0,-0.0003940657479688525
4096.0,0.00161071983166039
4608.0,0.003386035794392228
5120.0,0.0034345753956586123
5632.0,0.0025838306173682213
6144.0,-0.00025742469006218016
6656.0,-0.001850059605203569
7168.0,-0.005489645060151815
7680.0,-0.0017556243110448122
8192.0,-0.0008133252849802375
end
