version,3.0
numOfCh,1
type,point
parent_name,19e3e_0dot2-0dot01
ch_type,1_1
kcount,1
numberNandB,1
brightnessNandB,1
carpet pos,0
pc,0
Time (ms),CH1 Auto-Correlation
1.0,0.03761845827102661
2.0,0.03705304116010666
3.0,0.03651498630642891
4.0,0.03597912937402725
5.0,0.03545653447508812
6.0,0.03494154289364815
7.0,0.034443050622940063
8.0,0.03394940868020058
9.0,0.03345656022429466
10.0,0.03297268971800804
11.0,0.032493606209754944
12.0,0.03202030062675476
13.0,0.031558699905872345
14.0,0.031100522726774216
15.0,0.030660830438137054
16.0,0.030225925147533417
18.0,0.029391620308160782
20.0,0.028609545901417732
22.0,0.027860824018716812
24.0,0.027135120704770088
26.0,0.02646968513727188
28.0,0.02581631764769554
30.0,0.02518731728196144
32.0,0.02458333782851696
36.0,0.02354254014790058
40.0,0.02260124310851097
44.0,0.02170608378946781
48.0,0.020919950678944588
52.0,0.02022784762084484
56.0,0.01962343230843544
60.0,0.01908605732023716
64.0,0.018629034981131554
72.0,0.017870843410491943
80.0,0.017098931595683098
88.0,0.016487721353769302
96.0,0.01604773849248886
104.0,0.015691818669438362
112.0,0.015408960171043873
120.0,0.015097309835255146
128.0,0.014736596494913101
144.0,0.013568642549216747
160.0,0.012645676732063293
176.0,0.011987822130322456
192.0,0.011516029015183449
208.0,0.010771920904517174
224.0,0.00962391123175621
240.0,0.009431316517293453
256.0,0.009506076574325562
288.0,0.009527766145765781
320.0,0.007753046229481697
352.0,0.006622218992561102
384.0,0.006066054571419954
416.0,0.005403309594839811
448.0,0.004687836393713951
480.0,0.004035891033709049
512.0,0.001682522939518094
576.0,-0.001072498271241784
640.0,-0.0018930097576230764
704.0,-0.0030042841099202633
768.0,-0.0038679803255945444
832.0,-0.006146435625851154
896.0,-0.007603310979902744
960.0,-0.005355877336114645
1024.0,-0.00440614577382803
1152.0,-0.004161082673817873
1280.0,-0.0020050390157848597
1408.0,-0.0006888472707942128
1536.0,0.0024656211026012897
1664.0,0.005128002259880304
1792.0,0.006161607801914215
1920.0,0.0077713713981211185
2048.0,0.0077803474850952625
2304.0,0.00878516398370266
2560.0,0.004563459660857916
2816.0,-0.0027012766804546118
3072.0,-0.0065265982411801815
3328.0,-0.003188536735251546
3584.0,-0.00031987682450562716
3840.0,0.0019969476852566004
4096.0,0.006568759214133024
4608.0,0.004734203685075045
5120.0,-0.006002647336572409
5632.0,-0.006262980401515961
6144.0,-0.0008279450703412294
6656.0,0.0015328864101320505
7168.0,-0.006201769225299358
7680.0,-0.00941857323050499
8192.0,-0.0018500504083931446
end
