version,3.0
numOfCh,1
type,point
parent_name,0cd20_0dot1-0dot01
ch_type,1_1
kcount,1
numberNandB,1
brightnessNandB,1
carpet pos,0
pc,0
Time (ms),CH1 Auto-Correlation
1.0,0.015766143798828125
2.0,0.015575974248349667
3.0,0.015390879474580288
4.0,0.015210975892841816
5.0,0.015039786696434021
6.0,0.014871090650558472
7.0,0.014706411398947239
8.0,0.014538544230163097
9.0,0.014369341544806957
10.0,0.01420751865953207
11.0,0.014055438339710236
12.0,0.013902549631893635
13.0,0.013747932389378548
14.0,0.013595842756330967
15.0,0.013441805727779865
16.0,0.013292454183101654
18.0,0.01299731433391571
20.0,0.01271205022931099
22.0,0.012440838851034641
24.0,0.012178529985249043
26.0,0.011912796646356583
28.0,0.01165503729134798
30.0,0.011412828229367733
32.0,0.011182811111211777
36.0,0.010753575712442398
40.0,0.010340911336243153
44.0,0.009956883266568184
48.0,0.009593957103788853
52.0,0.009247745387256145
56.0,0.008919257670640945
60.0,0.008614573627710342
64.0,0.008326679468154907
72.0,0.007857146672904491
80.0,0.007410856895148754
88.0,0.007005336228758097
96.0,0.006606151815503836
104.0,0.006190902553498745
112.0,0.005802609492093325
120.0,0.005464500747621059
128.0,0.00517268618568778
144.0,0.004585969261825085
160.0,0.0039398944936692715
176.0,0.0032500745728611946
192.0,0.00250524515286088
208.0,0.001752477721311152
224.0,0.0010153180919587612
240.0,0.0004032411379739642
256.0,-7.27834485587664e-05
288.0,-0.0009759940439835191
320.0,-0.001711058896034956
352.0,-0.0020512575283646584
384.0,-0.0021389576140791178
416.0,-0.0026365737430751324
448.0,-0.0031015786807984114
480.0,-0.0030595248099416494
512.0,-0.0029232061933726072
576.0,-0.002789003774523735
640.0,-0.0023145556915551424
704.0,-0.0019353288225829601
768.0,-0.0011303378269076347
832.0,0.0001538276846986264
896.0,0.0012138780439272523
960.0,0.001580188050866127
1024.0,0.001729435520246625
1152.0,0.0007955828332342207
1280.0,0.00016245373990386724
1408.0,-0.0015080907614901662
1536.0,-0.0021385252475738525
1664.0,-0.00043108826503157616
1792.0,0.000599738210439682
1920.0,0.0002078524266835302
2048.0,6.919317820575088e-05
2304.0,-0.0013316117692738771
2560.0,-0.0008085384615696967
2816.0,-0.0009566611843183637
3072.0,-0.0003424601163715124
3328.0,0.0020955593790858984
3584.0,0.0007339970907196403
3840.0,-0.0007376598659902811
4096.0,-0.0008452906040474772
4608.0,0.0005915456567890942
5120.0,-0.0009546186192892492
5632.0,-0.0007372600957751274
6144.0,-3.667668715934269e-05
6656.0,0.001672298414632678
7168.0,-0.0003076651191804558
7680.0,0.0017324950313195586
8192.0,-0.0006101063336245716
end
