version,3.0
numOfCh,1
type,point
parent_name,0cd20_0dot1-0dot01
ch_type,1_1
kcount,1
numberNandB,1
brightnessNandB,1
carpet pos,0
pc,0
Time (ms),CH1 Auto-Correlation
1.0,0.0202813521027565
2.0,0.02009705640375614
3.0,0.01991673931479454
4.0,0.0197420883923769
5.0,0.01957155391573906
6.0,0.01940382644534111
7.0,0.019240569323301315
8.0,0.019082704558968544
9.0,0.01892228052020073
10.0,0.01876465044915676
11.0,0.01860988885164261
12.0,0.018456455320119858
13.0,0.018305407837033272
14.0,0.018159864470362663
15.0,0.018010452389717102
16.0,0.017866000533103943
18.0,0.01757592149078846
20.0,0.01729932241141796
22.0,0.017040958628058434
24.0,0.016788285225629807
26.0,0.01654084213078022
28.0,0.016296260058879852
30.0,0.016054995357990265
32.0,0.015825312584638596
36.0,0.01537743117660284
40.0,0.014921469613909721
44.0,0.014506066218018532
48.0,0.014133324846625328
52.0,0.013772759586572647
56.0,0.013415712863206863
60.0,0.01307295635342598
64.0,0.012726277112960815
72.0,0.01209417637437582
80.0,0.01151621900498867
88.0,0.010981407947838306
96.0,0.010475672781467438
104.0,0.010015120729804039
112.0,0.009585903026163578
120.0,0.009219310246407986
128.0,0.00890522450208664
144.0,0.008397565223276615
160.0,0.007988454774022102
176.0,0.007646797224879265
192.0,0.0073686703108251095
208.0,0.007000403944402933
224.0,0.006569054909050465
240.0,0.006185002159327269
256.0,0.0058264159597456455
288.0,0.005073862615972757
320.0,0.0043096113950014114
352.0,0.003924316260963678
384.0,0.003733712714165449
416.0,0.0031220638193190098
448.0,0.002301702741533518
480.0,0.002032545628026128
512.0,0.0020703524351119995
576.0,0.00188772426918149
640.0,0.0018691520672291517
704.0,0.0024565928615629673
768.0,0.0031864428892731667
832.0,0.0035150470212101936
896.0,0.0037604202516376972
960.0,0.0027322666719555855
1024.0,0.0016852879198268056
1152.0,0.0019491234561428428
1280.0,0.0018348298035562038
1408.0,0.0007972750463522971
1536.0,0.0010206432780250907
1664.0,0.001307286904193461
1792.0,0.0006673586321994662
1920.0,0.0002655678254086524
2048.0,0.0008618588326498866
2304.0,-0.00040597893530502915
2560.0,-0.002767316298559308
2816.0,-0.0032959056552499533
3072.0,-0.00043247779831290245
3328.0,-0.0004910834832116961
3584.0,-0.000906708010006696
3840.0,-0.00034911659895442426
4096.0,-0.0014593881787732244
4608.0,1.3393789231486153e-05
5120.0,0.0002456742222420871
5632.0,0.0018010481726378202
6144.0,-0.0016847198130562901
6656.0,-0.002983475336804986
7168.0,-0.0031047973316162825
7680.0,-0.0034464725758880377
8192.0,-0.005507802590727806
end
