version,3.0
numOfCh,1
type,point
parent_name,0cd20_0dot1-0dot01
ch_type,1_1
kcount,1
numberNandB,1
brightnessNandB,1
carpet pos,0
pc,0
Time (ms),CH1 Auto-Correlation
1.0,0.018338961526751518
2.0,0.018154198303818703
3.0,0.01797259971499443
4.0,0.017795158550143242
5.0,0.0176230501383543
6.0,0.017455928027629852
7.0,0.01729351468384266
8.0,0.017133932560682297
9.0,0.016979658976197243
10.0,0.016823749989271164
11.0,0.016675641760230064
12.0,0.01652858592569828
13.0,0.01638695038855076
14.0,0.016247276216745377
15.0,0.01610836759209633
16.0,0.015979260206222534
18.0,0.01572558283805847
20.0,0.015492350794374943
22.0,0.015270939096808434
24.0,0.015048428438603878
26.0,0.014823973178863525
28.0,0.014606575481593609
30.0,0.01439648773521185
32.0,0.014207748696208
36.0,0.013838646933436394
40.0,0.013470593839883804
44.0,0.013099555857479572
48.0,0.012732776813209057
52.0,0.01239259634166956
56.0,0.012082681059837341
60.0,0.011788682080805302
64.0,0.011491700075566769
72.0,0.01095209177583456
80.0,0.010470381937921047
88.0,0.01001830119639635
96.0,0.009578436613082886
104.0,0.009208021685481071
112.0,0.008851056918501854
120.0,0.008457020856440067
128.0,0.008042391389608383
144.0,0.007230871357023716
160.0,0.006532129365950823
176.0,0.006025164853781462
192.0,0.00567587511613965
208.0,0.005489010363817215
224.0,0.005320827476680279
240.0,0.005152741447091103
256.0,0.004964957945048809
288.0,0.0047026765532791615
320.0,0.004693707451224327
352.0,0.004499747417867184
384.0,0.004209971986711025
416.0,0.003968445584177971
448.0,0.003653211984783411
480.0,0.002993952017277479
512.0,0.002114784438163042
576.0,0.0016195634379982948
640.0,0.001790195587091148
704.0,0.0018632770515978336
768.0,0.0015999827301129699
832.0,0.0010738103883340955
896.0,0.000694603833835572
960.0,0.0014820771757513285
1024.0,0.0023496642243117094
1152.0,0.0015964144840836525
1280.0,0.0017304409993812442
1408.0,0.0012321302201598883
1536.0,0.00019477719615679234
1664.0,0.00014189396461006254
1792.0,0.0023453410249203444
1920.0,0.0025125129614025354
2048.0,0.0015056203119456768
2304.0,0.0008419510559178889
2560.0,-0.0009084320045076311
2816.0,-0.0018026645993813872
3072.0,-0.001642884104512632
3328.0,-0.001571961329318583
3584.0,-0.001098977169021964
3840.0,-0.0004700317804235965
4096.0,-0.002062802668660879
4608.0,-0.004272947087883949
5120.0,-0.0017458880320191383
5632.0,-0.0024665812961757183
6144.0,-0.0017175088869407773
6656.0,-0.0017994712106883526
7168.0,0.000988054322078824
7680.0,-0.0003819825069513172
8192.0,-0.0007710239151492715
end
