version,3.0
numOfCh,1
type,point
parent_name,0cd20_0dot1-0dot01
ch_type,1_1
kcount,1
numberNandB,1
brightnessNandB,1
carpet pos,0
pc,0
Time (ms),CH1 Auto-Correlation
1.0,0.016119835898280144
2.0,0.015937618911266327
3.0,0.015760226175189018
4.0,0.015589982271194458
5.0,0.015424748882651329
6.0,0.015263811685144901
7.0,0.015109454281628132
8.0,0.01495994720607996
9.0,0.014808153733611107
10.0,0.014659223146736622
11.0,0.01450837217271328
12.0,0.014360855333507061
13.0,0.014215023256838322
14.0,0.014073866419494152
15.0,0.013933089561760426
16.0,0.01379831600934267
18.0,0.013529064133763313
20.0,0.013273603282868862
22.0,0.013033146969974041
24.0,0.012806110084056854
26.0,0.012588374316692352
28.0,0.012372581288218498
30.0,0.012156011536717415
32.0,0.011951344087719917
36.0,0.011552990414202213
40.0,0.011174187064170837
44.0,0.01085424143821001
48.0,0.010599544271826744
52.0,0.010377362370491028
56.0,0.010165517218410969
60.0,0.009909257292747498
64.0,0.009639241732656956
72.0,0.009171504527330399
80.0,0.00878914538770914
88.0,0.008433935232460499
96.0,0.008056570775806904
104.0,0.0077658179216086864
112.0,0.007476294878870249
120.0,0.007120507303625345
128.0,0.006821868475526571
144.0,0.006289997138082981
160.0,0.005772139877080917
176.0,0.005404622294008732
192.0,0.004941129591315985
208.0,0.004359707236289978
224.0,0.0037547654937952757
240.0,0.0033250770065933466
256.0,0.003047280479222536
288.0,0.0028489476535469294
320.0,0.002691250294446945
352.0,0.0025841130409389734
384.0,0.002656776225194335
416.0,0.0028152624145150185
448.0,0.0026511482428759336
480.0,0.0023934892378747463
512.0,0.0021953650284558535
576.0,0.001426517846994102
640.0,0.001645022421143949
704.0,0.001829602406360209
768.0,0.0018717374186962843
832.0,0.0022715525701642036
896.0,0.002238623099401593
960.0,0.0013217739760875702
1024.0,3.0203224014258012e-05
1152.0,-0.0004414823779370636
1280.0,0.0008113030926324427
1408.0,0.0014709597453474998
1536.0,0.0010300546418875456
1664.0,0.00019887846428900957
1792.0,-0.0011855443008244038
1920.0,-0.0012968259397894144
2048.0,-0.000643223465885967
2304.0,0.0005487398593686521
2560.0,0.0010648699244484305
2816.0,0.0010051827412098646
3072.0,0.000425038393586874
3328.0,0.0014255930436775088
3584.0,0.000603249529376626
3840.0,-0.0007646831218153238
4096.0,-0.0004260682035237551
4608.0,-0.0020817567128688097
5120.0,-0.0001719864521874115
5632.0,-0.0002838149666786194
6144.0,-0.001504038111306727
6656.0,0.00015948056534398347
7168.0,0.0010134020121768117
7680.0,0.0022217819932848215
8192.0,0.0015476695261895657
end
