version,3.0
numOfCh,1
type,point
parent_name,0cd20_0dot1-0dot01
ch_type,1_1
kcount,1
numberNandB,1
brightnessNandB,1
carpet pos,0
pc,0
Time (ms),CH1 Auto-Correlation
1.0,0.024242738261818886
2.0,0.024055829271674156
3.0,0.02387312613427639
4.0,0.023692375048995018
5.0,0.02351335994899273
6.0,0.02333611249923706
7.0,0.02316228486597538
8.0,0.02298862673342228
9.0,0.022817784920334816
10.0,0.022649552673101425
11.0,0.022487403824925423
12.0,0.022329015657305717
13.0,0.022173471748828888
14.0,0.022014616057276726
15.0,0.02185993269085884
16.0,0.021713053807616234
18.0,0.02140960842370987
20.0,0.021102091297507286
22.0,0.020810220390558243
24.0,0.020523838698863983
26.0,0.020252449437975883
28.0,0.019987676292657852
30.0,0.019736874848604202
32.0,0.019507670775055885
36.0,0.01907465234398842
40.0,0.01865719072520733
44.0,0.018274614587426186
48.0,0.017927315086126328
52.0,0.01762918010354042
56.0,0.017364125698804855
60.0,0.01713084802031517
64.0,0.01691901497542858
72.0,0.016584882512688637
80.0,0.016215886920690536
88.0,0.015843156725168228
96.0,0.015490042045712471
104.0,0.015101096592843533
112.0,0.014686932787299156
120.0,0.014237973839044571
128.0,0.013778653927147388
144.0,0.012921437621116638
160.0,0.012202292680740356
176.0,0.011625664308667183
192.0,0.011186671443283558
208.0,0.010696705430746078
224.0,0.0101808812469244
240.0,0.009755641222000122
256.0,0.009228150360286236
288.0,0.008509356528520584
320.0,0.00811761524528265
352.0,0.007691666018217802
384.0,0.0072003817185759544
416.0,0.0072924853302538395
448.0,0.0074188075959682465
480.0,0.007549645844846964
512.0,0.007758407387882471
576.0,0.0077680000104010105
640.0,0.007080565672367811
704.0,0.006749419961124659
768.0,0.006284003145992756
832.0,0.00531518692150712
896.0,0.004001331049948931
960.0,0.0033222557976841927
1024.0,0.0017566505121067166
1152.0,-0.0009360143449157476
1280.0,-0.0007313666865229607
1408.0,-0.0009329612948931754
1536.0,-0.0013258305843919516
1664.0,-0.0015898712445050478
1792.0,-0.001598907052539289
1920.0,-0.001107128569856286
2048.0,-0.0007425869116559625
2304.0,0.0006886262563057244
2560.0,0.0004400998877827078
2816.0,0.0005050818435847759
3072.0,0.0004997897776775062
3328.0,-0.0018030073260888457
3584.0,-0.0023754683788865805
3840.0,-0.0035750865936279297
4096.0,-0.0036561647430062294
4608.0,-0.002949486020952463
5120.0,-0.002844922011718154
5632.0,-0.005126110278069973
6144.0,-0.0061120521277189255
6656.0,-0.003809445770457387
7168.0,-0.0026838742196559906
7680.0,-0.002179728588089347
8192.0,-0.0030422136187553406
end
