version,3.0
numOfCh,1
type,point
parent_name,0cd20_0dot1-0dot01
ch_type,1_1
kcount,1
numberNandB,1
brightnessNandB,1
carpet pos,0
pc,0
Time (ms),CH1 Auto-Correlation
1.0,0.10632964223623276
2.0,0.10598050057888031
3.0,0.10563521832227707
4.0,0.10531380772590637
5.0,0.10501556098461151
6.0,0.10470199584960938
7.0,0.10441137105226517
8.0,0.10413829982280731
9.0,0.10386969149112701
10.0,0.10356781631708145
11.0,0.10328830033540726
12.0,0.10301849991083145
13.0,0.10272163152694702
14.0,0.10243409872055054
15.0,0.10212209075689316
16.0,0.1018238365650177
18.0,0.10124927014112473
20.0,0.10066977143287659
22.0,0.1000913605093956
24.0,0.09952731430530548
26.0,0.09893956780433655
28.0,0.09829866141080856
30.0,0.09767528623342514
32.0,0.09707392752170563
36.0,0.09584496170282364
40.0,0.09441693127155304
44.0,0.09287574142217636
48.0,0.09130004048347473
52.0,0.08962506055831909
56.0,0.08808121830224991
60.0,0.0865626409649849
64.0,0.08492530882358551
72.0,0.08131143450737
80.0,0.07720150053501129
88.0,0.07306477427482605
96.0,0.06912721693515778
104.0,0.06551436334848404
112.0,0.061984241008758545
120.0,0.05861722677946091
128.0,0.055342745035886765
144.0,0.04911128804087639
160.0,0.04287545755505562
176.0,0.03764089569449425
192.0,0.033055633306503296
208.0,0.029042990878224373
224.0,0.02528052031993866
240.0,0.021914534270763397
256.0,0.019785508513450623
288.0,0.01891593635082245
320.0,0.02091948688030243
352.0,0.025412939488887787
384.0,0.02953217178583145
416.0,0.031503692269325256
448.0,0.03098689578473568
480.0,0.027480948716402054
512.0,0.02321477234363556
576.0,0.01860220916569233
640.0,0.01838521845638752
704.0,0.020784664899110794
768.0,0.02478652447462082
832.0,0.027503613382577896
896.0,0.025810953229665756
960.0,0.0211739931255579
1024.0,0.014527191407978535
1152.0,0.0050364164635539055
1280.0,-0.0005880329408682883
1408.0,-0.006089752074331045
1536.0,-0.005703382659703493
1664.0,-0.0039011656772345304
1792.0,-0.011284040287137032
1920.0,-0.02117488905787468
2048.0,-0.01983107067644596
2304.0,-0.026475224643945694
2560.0,-0.024362215772271156
2816.0,-0.025660092011094093
3072.0,-0.01246593613177538
3328.0,-0.037653613835573196
3584.0,-0.03590671718120575
3840.0,-0.02774675004184246
4096.0,0.0019226898439228535
end
