version,3.0
numOfCh,1
type,point
parent_name,0cd20_0dot1-0dot01
ch_type,1_1
kcount,1
numberNandB,1
brightnessNandB,1
carpet pos,0
pc,0
Time (ms),CH1 Auto-Correlation
1.0,0.026470491662621498
2.0,0.026229610666632652
3.0,0.025991300120949745
4.0,0.02575577236711979
5.0,0.025525879114866257
6.0,0.02530454844236374
7.0,0.025090526789426804
8.0,0.024877790361642838
9.0,0.024679748341441154
10.0,0.024490566924214363
11.0,0.024309610947966576
12.0,0.024133065715432167
13.0,0.023960649967193604
14.0,0.023789912462234497
15.0,0.023622088134288788
16.0,0.023449622094631195
18.0,0.023107128217816353
20.0,0.02277577482163906
22.0,0.02246597222983837
24.0,0.022170064970850945
26.0,0.02190043218433857
28.0,0.021640818566083908
30.0,0.021400298923254013
32.0,0.02116178162395954
36.0,0.020707473158836365
40.0,0.020302146673202515
44.0,0.019936975091695786
48.0,0.01959907077252865
52.0,0.019260350614786148
56.0,0.018918223679065704
60.0,0.01857035607099533
64.0,0.018221337348222733
72.0,0.017532911151647568
80.0,0.016865994781255722
88.0,0.01634548418223858
96.0,0.0158369317650795
104.0,0.015307622030377388
112.0,0.014748710207641125
120.0,0.01416842732578516
128.0,0.0136187095195055
144.0,0.012880128808319569
160.0,0.01240956224501133
176.0,0.012003889307379723
192.0,0.011301039718091488
208.0,0.010647885501384735
224.0,0.010041898116469383
240.0,0.009467380121350288
256.0,0.008949321694672108
288.0,0.007616078481078148
320.0,0.006753644905984402
352.0,0.0066584027372300625
384.0,0.006821934133768082
416.0,0.006815171334892511
448.0,0.00636059045791626
480.0,0.00607022549957037
512.0,0.005429631099104881
576.0,0.005133779253810644
640.0,0.006057028658688068
704.0,0.005522406194359064
768.0,0.005032115150243044
832.0,0.005513716023415327
896.0,0.0057676807045936584
960.0,0.005231394898146391
1024.0,0.005701725836843252
1152.0,0.003668573684990406
1280.0,0.003538437420502305
1408.0,0.003384465118870139
1536.0,0.0015118338633328676
1664.0,0.0005332394503057003
1792.0,0.0006936336867511272
1920.0,0.00257718819193542
2048.0,0.0014253775589168072
2304.0,0.000382641184842214
2560.0,0.0033794620539993048
2816.0,0.0022439328022301197
3072.0,-0.0001101376983569935
3328.0,-0.0003384236479178071
3584.0,-0.0015775979263707995
3840.0,-0.0023963579442352057
4096.0,-0.00041901308577507734
4608.0,0.0010785136837512255
5120.0,0.0006071273819543421
5632.0,9.242612577509135e-05
6144.0,-0.0029133567586541176
6656.0,-0.0035837406758219004
7168.0,-0.0016155382618308067
7680.0,-0.003660556161776185
8192.0,-0.0033001808915287256
end
