version,3.0
numOfCh,1
type,point
parent_name,0cd20_0dot1-0dot01
ch_type,1_1
kcount,1
numberNandB,1
brightnessNandB,1
carpet pos,0
pc,0
Time (ms),CH1 Auto-Correlation
1.0,0.07190437614917755
2.0,0.07149569690227509
3.0,0.0710943266749382
4.0,0.07071565091609955
5.0,0.07032936811447144
6.0,0.06997109204530716
7.0,0.0696275383234024
8.0,0.0692986473441124
9.0,0.06896169483661652
10.0,0.06863697618246078
11.0,0.06832707673311234
12.0,0.06801822781562805
13.0,0.0677027702331543
14.0,0.06740530580282211
15.0,0.06709116697311401
16.0,0.06677722930908203
18.0,0.06615983694791794
20.0,0.065575510263443
22.0,0.06499829888343811
24.0,0.06444648653268814
26.0,0.06387624144554138
28.0,0.06340637803077698
30.0,0.06298092007637024
32.0,0.06255265325307846
36.0,0.06166969612240791
40.0,0.060863833874464035
44.0,0.059961337596178055
48.0,0.05905319005250931
52.0,0.05826689302921295
56.0,0.05759298801422119
60.0,0.0570279024541378
64.0,0.05650409683585167
72.0,0.05461452156305313
80.0,0.053255386650562286
88.0,0.052034892141819
96.0,0.0511314682662487
104.0,0.050105899572372437
112.0,0.04897843301296234
120.0,0.04783244431018829
128.0,0.04662366956472397
144.0,0.04295865818858147
160.0,0.041592132300138474
176.0,0.040528763085603714
192.0,0.039814773947000504
208.0,0.03883027657866478
224.0,0.03701482340693474
240.0,0.03516213223338127
256.0,0.03376052901148796
288.0,0.030171198770403862
320.0,0.02676723338663578
352.0,0.02420705184340477
384.0,0.022762209177017212
416.0,0.020441481843590736
448.0,0.016913529485464096
480.0,0.015888867899775505
512.0,0.014426766894757748
576.0,0.014282734133303165
640.0,0.0151959965005517
704.0,0.013308259658515453
768.0,0.011184826493263245
832.0,0.0105417650192976
896.0,0.010637589730322361
960.0,0.013077355921268463
1024.0,0.014279392547905445
1152.0,0.008100434206426144
1280.0,0.005385506432503462
1408.0,0.0017383869271725416
1536.0,0.0020490228198468685
1664.0,0.005870281718671322
1792.0,0.006540872622281313
1920.0,0.004072380717843771
2048.0,0.004167579580098391
2304.0,0.0025899356696754694
2560.0,-0.00014777563046664
2816.0,-0.0039545223116874695
3072.0,-0.007863089442253113
3328.0,-0.009879776276648045
3584.0,-0.0079001160338521
3840.0,-0.0006424146704375744
4096.0,0.0020290540996938944
4608.0,0.0018557667499408126
5120.0,0.006502464413642883
5632.0,0.005106384865939617
6144.0,0.003339583519846201
6656.0,0.0030031867790967226
7168.0,-0.0026506222784519196
7680.0,-0.01386774517595768
8192.0,-0.016748370602726936
end
