version,3.0
numOfCh,1
type,point
parent_name,0cd20_0dot1-0dot01
ch_type,1_1
kcount,1
numberNandB,1
brightnessNandB,1
carpet pos,0
pc,0
Time (ms),CH1 Auto-Correlation
1.0,0.06397811323404312
2.0,0.06347194314002991
3.0,0.06301872432231903
4.0,0.06255041062831879
5.0,0.062158744782209396
6.0,0.06178637593984604
7.0,0.06139973923563957
8.0,0.06102515757083893
9.0,0.06062324345111847
10.0,0.060210712254047394
11.0,0.059802982956171036
12.0,0.059410642832517624
13.0,0.05902919918298721
14.0,0.05869629234075546
15.0,0.05837925523519516
16.0,0.058068107813596725
18.0,0.057072240859270096
20.0,0.05629611387848854
22.0,0.055475641041994095
24.0,0.0547374002635479
26.0,0.05409307777881622
28.0,0.05347864329814911
30.0,0.05291549488902092
32.0,0.05242474004626274
36.0,0.05154440179467201
40.0,0.05090572312474251
44.0,0.05049164593219757
48.0,0.04999059811234474
52.0,0.049284931272268295
56.0,0.048436909914016724
60.0,0.04767666384577751
64.0,0.04690193012356758
72.0,0.04366272687911987
80.0,0.04173921421170235
88.0,0.039772119373083115
96.0,0.03762142360210419
104.0,0.03578304871916771
112.0,0.033998701721429825
120.0,0.03206111118197441
128.0,0.030359657481312752
144.0,0.026457294821739197
160.0,0.023153193295001984
176.0,0.020092817023396492
192.0,0.018044758588075638
208.0,0.016526078805327415
224.0,0.015544379130005836
240.0,0.013470673933625221
256.0,0.01062195748090744
288.0,0.008896427229046822
320.0,0.007412032689899206
352.0,0.006337371654808521
384.0,0.005767658352851868
416.0,0.005466001108288765
448.0,0.005703326314687729
480.0,0.0050547486171126366
512.0,0.004945951513946056
576.0,0.0021647929679602385
640.0,-0.0007562041282653809
704.0,-0.00325990398414433
768.0,-0.00199689669534564
832.0,-0.0007173849735409021
896.0,-0.0014925285940989852
960.0,-0.0023634557146579027
1024.0,-0.00244755856692791
1152.0,0.001863045385107398
1280.0,0.00445945467799902
1408.0,0.005188069771975279
1536.0,0.0031954562291502953
1664.0,0.0010011210106313229
1792.0,-0.002936714328825474
1920.0,-0.0036217221058905125
2048.0,-0.005363723263144493
2304.0,2.4525390472263098e-05
2560.0,-0.0010765132028609514
2816.0,-0.000512718572281301
3072.0,0.0018544227350503206
3328.0,0.00019483070354908705
3584.0,-0.006414402741938829
3840.0,-0.004971273709088564
4096.0,0.0024447524920105934
end
