version,3.0
numOfCh,1
type,point
parent_name,0cd20_0dot1-0dot01
ch_type,1_1
kcount,1
numberNandB,1
brightnessNandB,1
carpet pos,0
pc,0
Time (ms),CH1 Auto-Correlation
1.0,0.014764092862606049
2.0,0.014580088667571545
3.0,0.014398239552974701
4.0,0.014219671487808228
5.0,0.014042855240404606
6.0,0.013863279484212399
7.0,0.013682053424417973
8.0,0.013498835265636444
9.0,0.013319953344762325
10.0,0.01314513012766838
11.0,0.012965670786798
12.0,0.012792952358722687
13.0,0.012621383182704449
14.0,0.012454092502593994
15.0,0.012286441400647163
16.0,0.012122318148612976
18.0,0.011812769807875156
20.0,0.01152809988707304
22.0,0.011264420114457607
24.0,0.011021916754543781
26.0,0.010801647789776325
28.0,0.010591592639684677
30.0,0.010380142368376255
32.0,0.010173366405069828
36.0,0.009795011021196842
40.0,0.009444513358175755
44.0,0.009112811647355556
48.0,0.008792780339717865
52.0,0.008506866171956062
56.0,0.008264509961009026
60.0,0.00801011174917221
64.0,0.007743536960333586
72.0,0.007207883987575769
80.0,0.0066907573491334915
88.0,0.006177518982440233
96.0,0.005694878753274679
104.0,0.005259369499981403
112.0,0.004871473181992769
120.0,0.004548580385744572
128.0,0.004298299551010132
144.0,0.0038915621116757393
160.0,0.003777927253395319
176.0,0.003806505585089326
192.0,0.0035958888474851847
208.0,0.0031669882591813803
224.0,0.002916923025622964
240.0,0.002742102602496743
256.0,0.002672494389116764
288.0,0.0026907557621598244
320.0,0.003041301155462861
352.0,0.0032085729762911797
384.0,0.0028613426256924868
416.0,0.0021056542173027992
448.0,0.0017838870408013463
480.0,0.001458364655263722
512.0,0.0009714603656902909
576.0,0.0009519438608549535
640.0,0.0013834807323291898
704.0,0.0010455207666382194
768.0,0.00018237413314636797
832.0,8.871971658663824e-05
896.0,-0.00020915624918416142
960.0,-0.0013226884184405208
1024.0,-0.0017212472157552838
1152.0,-0.002157022710889578
1280.0,-0.0027507119812071323
1408.0,-0.003298625349998474
1536.0,-0.0025667622685432434
1664.0,-0.0010984080145135522
1792.0,-0.0017125100130215287
1920.0,-0.0017897047800943255
2048.0,-0.0016127985436469316
2304.0,-0.00043016482959501445
2560.0,0.0009219313506036997
2816.0,0.0015520291635766625
3072.0,-0.0002086263702949509
3328.0,0.000844690715894103
3584.0,-0.0005155582912266254
3840.0,-0.0016522842925041914
4096.0,-0.0011247002985328436
4608.0,-0.0022073222789913416
5120.0,-7.4472504820732865e-06
5632.0,0.001459424733184278
6144.0,0.0007974625914357603
6656.0,0.0003716125211212784
7168.0,0.0005094163934700191
7680.0,0.0010188871528953314
8192.0,0.0028028995729982853
end
