version,3.0
numOfCh,1
type,point
parent_name,0cd20_0dot1-0dot01
ch_type,1_1
kcount,1
numberNandB,1
brightnessNandB,1
carpet pos,0
pc,0
Time (ms),CH1 Auto-Correlation
1.0,0.021895717829465866
2.0,0.021700382232666016
3.0,0.021510766819119453
4.0,0.0213229488581419
5.0,0.02113942801952362
6.0,0.020962519571185112
7.0,0.02078731544315815
8.0,0.020614957436919212
9.0,0.020441897213459015
10.0,0.020273225381970406
11.0,0.02010609209537506
12.0,0.019939763471484184
13.0,0.019776519387960434
14.0,0.019614657387137413
15.0,0.019455794245004654
16.0,0.019306251779198647
18.0,0.019026659429073334
20.0,0.018749048933386803
22.0,0.01847183331847191
24.0,0.0181930772960186
26.0,0.017917122691869736
28.0,0.017659809440374374
30.0,0.017417365685105324
32.0,0.017180340364575386
36.0,0.016706768423318863
40.0,0.016273872926831245
44.0,0.01584606245160103
48.0,0.015437151305377483
52.0,0.015045288018882275
56.0,0.01467442698776722
60.0,0.01431928388774395
64.0,0.01397570688277483
72.0,0.01334117166697979
80.0,0.01278738770633936
88.0,0.012291191145777702
96.0,0.01186402142047882
104.0,0.011539086699485779
112.0,0.011268267408013344
120.0,0.011111505329608917
128.0,0.011023270897567272
144.0,0.010918432846665382
160.0,0.010726912878453732
176.0,0.010421769693493843
192.0,0.01009801123291254
208.0,0.009621022269129753
224.0,0.009124408476054668
240.0,0.008575648069381714
256.0,0.007896401919424534
288.0,0.006569661200046539
320.0,0.005730940029025078
352.0,0.005229078698903322
384.0,0.005059676244854927
416.0,0.004981238394975662
448.0,0.0049417163245379925
480.0,0.004711979068815708
512.0,0.004311114549636841
576.0,0.004381065722554922
640.0,0.004108748398721218
704.0,0.00399517547339201
768.0,0.0044835517182946205
832.0,0.0050214179791510105
896.0,0.005590993911027908
960.0,0.005555137526243925
1024.0,0.005595591384917498
1152.0,0.004345935303717852
1280.0,0.0025695201475173235
1408.0,0.002109179273247719
1536.0,0.0026800238993018866
1664.0,0.002482360228896141
1792.0,0.0013248008908703923
1920.0,0.001010608160868287
2048.0,0.00022656421060673892
2304.0,-0.001157665392383933
2560.0,-0.0017384159145876765
2816.0,-0.005852262955158949
3072.0,-0.004788849037140608
3328.0,-0.0030262910295277834
3584.0,-0.0040134247392416
3840.0,-0.006878066807985306
4096.0,-0.005920381750911474
4608.0,-0.004438902251422405
5120.0,-0.004229117184877396
5632.0,-0.001574337133206427
6144.0,-0.0009531055111438036
6656.0,0.0011489457683637738
7168.0,-0.00021287958952598274
7680.0,0.003554754192009568
8192.0,0.002463205484673381
end
