version,3.0
numOfCh,1
type,point
parent_name,0cd20_0dot1-0dot01
ch_type,1_1
kcount,1
numberNandB,1
brightnessNandB,1
carpet pos,0
pc,0
Time (ms),CH1 Auto-Correlation
1.0,0.016494639217853546
2.0,0.016320034861564636
3.0,0.01614997163414955
4.0,0.015981458127498627
5.0,0.015818234533071518
6.0,0.01566174253821373
7.0,0.015508719719946384
8.0,0.015357887372374535
9.0,0.015210505574941635
10.0,0.015062396414577961
11.0,0.01491920929402113
12.0,0.014783472754061222
13.0,0.01464973296970129
14.0,0.014514781534671783
15.0,0.01438517402857542
16.0,0.014258417300879955
18.0,0.01401782687753439
20.0,0.013783806003630161
22.0,0.013558774255216122
24.0,0.013334679417312145
26.0,0.01311515923589468
28.0,0.012902479618787766
30.0,0.012698439881205559
32.0,0.012502615340054035
36.0,0.0121155371889472
40.0,0.011737968772649765
44.0,0.011395707726478577
48.0,0.011083529330790043
52.0,0.010801130905747414
56.0,0.01053133700042963
60.0,0.010277005843818188
64.0,0.010038926266133785
72.0,0.009662581607699394
80.0,0.009337813593447208
88.0,0.009055284783244133
96.0,0.008836072869598866
104.0,0.008676359429955482
112.0,0.00846476387232542
120.0,0.008200744166970253
128.0,0.007944491691887379
144.0,0.007527833338826895
160.0,0.007096016779541969
176.0,0.006722951773554087
192.0,0.006554232910275459
208.0,0.006478228140622377
224.0,0.00645648455247283
240.0,0.0062414370477199554
256.0,0.005713238846510649
288.0,0.004676962271332741
320.0,0.004022321198135614
352.0,0.0035896538756787777
384.0,0.0031381906010210514
416.0,0.002906566485762596
448.0,0.0031878643203526735
480.0,0.0036161800380796194
512.0,0.0032675403635948896
576.0,0.0034861506428569555
640.0,0.003108776407316327
704.0,0.002896097721531987
768.0,0.0025261600967496634
832.0,0.0023056771606206894
896.0,0.0015400159172713757
960.0,0.0007686485769227147
1024.0,0.0006627157563343644
1152.0,3.089009987888858e-05
1280.0,-0.0004162483965046704
1408.0,-0.0010894907172769308
1536.0,-0.0017070929752662778
1664.0,-0.0023136287927627563
1792.0,-0.0018972598481923342
1920.0,-0.0012969060335308313
2048.0,-0.0011395039036870003
2304.0,-0.0012617319589480758
2560.0,-0.0006077600410208106
2816.0,0.0005729035474359989
3072.0,0.0006789550534449518
3328.0,0.001494369120337069
3584.0,-0.0005403568502515554
3840.0,0.0004969527362845838
4096.0,0.0012383477296680212
4608.0,-0.0009568766108714044
5120.0,-0.0014670753153041005
5632.0,-0.0024461050052195787
6144.0,-0.0018560058670118451
6656.0,0.0002899497631005943
7168.0,0.0023225932382047176
7680.0,0.002475192304700613
8192.0,0.0007982049719430506
end
