version,3.0
numOfCh,1
type,point
parent_name,0cd20_0dot1-0dot01
ch_type,1_1
kcount,1
numberNandB,1
brightnessNandB,1
carpet pos,0
pc,0
Time (ms),CH1 Auto-Correlation
1.0,0.014049357734620571
2.0,0.013856764882802963
3.0,0.013667280785739422
4.0,0.01347906980663538
5.0,0.013292304240167141
6.0,0.01311174500733614
7.0,0.012935979291796684
8.0,0.01276030670851469
9.0,0.012585473246872425
10.0,0.012417319230735302
11.0,0.012253797613084316
12.0,0.012092589400708675
13.0,0.011936904862523079
14.0,0.011792977340519428
15.0,0.011653845198452473
16.0,0.011518649756908417
18.0,0.011253180913627148
20.0,0.011001793667674065
22.0,0.010770278051495552
24.0,0.010542702861130238
26.0,0.010319297201931477
28.0,0.010102473199367523
30.0,0.009885352104902267
32.0,0.009672491811215878
36.0,0.00925734918564558
40.0,0.008892630226910114
44.0,0.008562225848436356
48.0,0.00826241821050644
52.0,0.007996903732419014
56.0,0.007747258525341749
60.0,0.00749680120497942
64.0,0.007234027609229088
72.0,0.006723402068018913
80.0,0.006296361330896616
88.0,0.0059513975866138935
96.0,0.005634281784296036
104.0,0.005362005904316902
112.0,0.005133513826876879
120.0,0.004923553671687841
128.0,0.004710593726485968
144.0,0.0043507409282028675
160.0,0.0038852842990309
176.0,0.003421433735638857
192.0,0.0030176020227372646
208.0,0.0029176794923841953
224.0,0.002810000441968441
240.0,0.002599417231976986
256.0,0.0023455601185560226
288.0,0.0018674508901312947
320.0,0.001594751374796033
352.0,0.0016328622587025166
384.0,0.0019608710426837206
416.0,0.002042739652097225
448.0,0.0021703741513192654
480.0,0.0022120147477835417
512.0,0.002011018106713891
576.0,0.0014009909937158227
640.0,0.000727150880265981
704.0,0.0008995445678010583
768.0,0.0003496820863801986
832.0,-1.6905376469367184e-05
896.0,-0.0002078076940961182
960.0,-0.000661958591081202
1024.0,-0.0009500200976617634
1152.0,-0.0014038331573829055
1280.0,-0.0015042885206639767
1408.0,-0.0008065174333751202
1536.0,-0.0012444598833099008
1664.0,-0.0012980549363419414
1792.0,-0.001677216379903257
1920.0,-0.0007911826833151281
2048.0,-0.00046947397640906274
2304.0,0.0004222358111292124
2560.0,0.0006866176845505834
2816.0,-4.8208214138867334e-05
3072.0,-0.0009150286205112934
3328.0,-0.0012908449862152338
3584.0,-0.0016055891755968332
3840.0,-0.0035617107059806585
4096.0,-0.003716853214427829
4608.0,-0.0005830746376886964
5120.0,0.0024327849969267845
5632.0,0.0018144564237445593
6144.0,-0.00014201368321664631
6656.0,-0.0005375584005378187
7168.0,0.000636959623079747
7680.0,0.0012805400183424354
8192.0,0.0011607783380895853
end
