version,3.0
numOfCh,1
type,point
parent_name,0cd20_0dot1-0dot01
ch_type,1_1
kcount,1
numberNandB,1
brightnessNandB,1
carpet pos,0
pc,0
Time (ms),CH1 Auto-Correlation
1.0,0.023359190672636032
2.0,0.023150937631726265
3.0,0.02294781431555748
4.0,0.02274920791387558
5.0,0.02255573682487011
6.0,0.02236170507967472
7.0,0.022172285243868828
8.0,0.021979156881570816
9.0,0.02179059386253357
10.0,0.021608522161841393
11.0,0.021434476599097252
12.0,0.02126944251358509
13.0,0.02111058682203293
14.0,0.020958570763468742
15.0,0.020804423838853836
16.0,0.020650658756494522
18.0,0.020345304161310196
20.0,0.020054074004292488
22.0,0.019776109606027603
24.0,0.019512983039021492
26.0,0.019242795184254646
28.0,0.018970906734466553
30.0,0.018699325621128082
32.0,0.018439335748553276
36.0,0.01790650002658367
40.0,0.017396604642271996
44.0,0.016903355717658997
48.0,0.016433103010058403
52.0,0.015973754227161407
56.0,0.01552879810333252
60.0,0.015106618404388428
64.0,0.014688074588775635
72.0,0.01385673601180315
80.0,0.013098349794745445
88.0,0.012400256469845772
96.0,0.011730857193470001
104.0,0.011210830882191658
112.0,0.010743804275989532
120.0,0.0103147616609931
128.0,0.009926896542310715
144.0,0.009131287224590778
160.0,0.00837770476937294
176.0,0.007720758207142353
192.0,0.0071138483472168446
208.0,0.006387391127645969
224.0,0.005744922906160355
240.0,0.00512135261669755
256.0,0.0046658688224852085
288.0,0.003958718851208687
320.0,0.0034052529372274876
352.0,0.0032597538083791733
384.0,0.0032806084491312504
416.0,0.003749468829482794
448.0,0.004218375310301781
480.0,0.004122507758438587
512.0,0.0036362106911838055
576.0,0.0032013477757573128
640.0,0.0025524282827973366
704.0,0.0021245554089546204
768.0,0.0019001523032784462
832.0,0.001711011747829616
896.0,0.00247367681004107
960.0,0.002822136040776968
1024.0,0.0019488424295559525
1152.0,0.002937910845503211
1280.0,0.002746949438005686
1408.0,0.002570720622316003
1536.0,0.003149608848616481
1664.0,0.0012372793862596154
1792.0,-8.937335223890841e-06
1920.0,-0.0010504528181627393
2048.0,-0.0015356632648035884
2304.0,0.0014452942414209247
2560.0,0.0013787560164928436
2816.0,0.0027391414623707533
3072.0,0.00022408233780879527
3328.0,-0.00208745407871902
3584.0,-0.00010429719986859709
3840.0,-0.001370205543935299
4096.0,-0.0008962248684838414
4608.0,-0.001907593454234302
5120.0,0.000891452596988529
5632.0,-0.00024183443747460842
6144.0,-0.002647482557222247
6656.0,-0.0004004592774435878
7168.0,-0.0038990858010947704
7680.0,-0.0020641933660954237
8192.0,0.0007295180112123489
end
