version,3.0
numOfCh,1
type,point
parent_name,0cd20_0dot1-0dot01
ch_type,1_1
kcount,1
numberNandB,1
brightnessNandB,1
carpet pos,0
pc,0
Time (ms),CH1 Auto-Correlation
1.0,0.016603825613856316
2.0,0.0164228156208992
3.0,0.016247060149908066
4.0,0.016072727739810944
5.0,0.01590089686214924
6.0,0.015727907419204712
7.0,0.015550907701253891
8.0,0.015376796945929527
9.0,0.015202374197542667
10.0,0.015035378746688366
11.0,0.014870593324303627
12.0,0.014708483591675758
13.0,0.014548934064805508
14.0,0.014393324963748455
15.0,0.014234618283808231
16.0,0.014077890664339066
18.0,0.013749166391789913
20.0,0.013428444974124432
22.0,0.01311224140226841
24.0,0.012807645834982395
26.0,0.012505789287388325
28.0,0.012221775017678738
30.0,0.011956091970205307
32.0,0.011708521284162998
36.0,0.011254696175456047
40.0,0.010836372151970863
44.0,0.01045297272503376
48.0,0.010084087029099464
52.0,0.00973287783563137
56.0,0.009370995685458183
60.0,0.009014788083732128
64.0,0.008673766627907753
72.0,0.008054542355239391
80.0,0.007522138301283121
88.0,0.007036586292088032
96.0,0.006635823752731085
104.0,0.006373260635882616
112.0,0.006058072205632925
120.0,0.0057157776318490505
128.0,0.005296234507113695
144.0,0.004425647668540478
160.0,0.003781963372603059
176.0,0.003301053075119853
192.0,0.0030703600496053696
208.0,0.0028953503351658583
224.0,0.0025668537709861994
240.0,0.00209546135738492
256.0,0.0016426153015345335
288.0,0.0012251819716766477
320.0,0.0005737511091865599
352.0,-0.00032449254649691284
384.0,-0.0005209909286350012
416.0,-0.00025414867559447885
448.0,0.0005550465430133045
480.0,0.0012130325194448233
512.0,0.0016141653759405017
576.0,0.0018847753526642919
640.0,0.0012965023051947355
704.0,0.0012739034136757255
768.0,0.0013028174871578813
832.0,0.001054197084158659
896.0,0.00030126076308079064
960.0,5.2171577408444136e-05
1024.0,0.0009269908769056201
1152.0,0.001262878067791462
1280.0,0.0005746629321947694
1408.0,-0.0008594832033850253
1536.0,-0.0019218247616663575
1664.0,-0.0007196631631813943
1792.0,0.0003344002179801464
1920.0,0.0009141558548435569
2048.0,-0.0007930723950266838
2304.0,-0.0020526275038719177
2560.0,-0.0013211191399022937
2816.0,-0.0003174316370859742
3072.0,-0.0021654022857546806
3328.0,-0.0007771887467242777
3584.0,0.0006476498092524707
3840.0,-0.0010573636973276734
4096.0,-0.0006601971690542996
4608.0,0.0014941495610401034
5120.0,0.0020508889574557543
5632.0,8.30533608677797e-05
6144.0,0.0010596556821838021
6656.0,0.0003981447371188551
7168.0,-0.0021385475993156433
7680.0,-0.0021934357937425375
8192.0,-0.00104721006937325
end
