version,3.0
numOfCh,1
type,point
parent_name,0cd20_0dot1-0dot01
ch_type,1_1
kcount,1
numberNandB,1
brightnessNandB,1
carpet pos,0
pc,0
Time (ms),CH1 Auto-Correlation
1.0,0.018396645784378052
2.0,0.0182037390768528
3.0,0.018012918531894684
4.0,0.017826825380325317
5.0,0.017646802589297295
6.0,0.017473112791776657
7.0,0.01730952039361
8.0,0.017154686152935028
9.0,0.017002960667014122
10.0,0.016850857064127922
11.0,0.016700653359293938
12.0,0.01654839515686035
13.0,0.01640053652226925
14.0,0.01625344343483448
15.0,0.016113009303808212
16.0,0.01597003825008869
18.0,0.015684623271226883
20.0,0.015403375029563904
22.0,0.015132530592381954
24.0,0.014866931363940239
26.0,0.014614149928092957
28.0,0.01437852717936039
30.0,0.014150083996355534
32.0,0.013918408192694187
36.0,0.013471860438585281
40.0,0.01305280439555645
44.0,0.012668924406170845
48.0,0.012304740957915783
52.0,0.011941986158490181
56.0,0.011591725051403046
60.0,0.011247103102505207
64.0,0.010918131098151207
72.0,0.010314783081412315
80.0,0.009785670787096024
88.0,0.009368307888507843
96.0,0.009015664458274841
104.0,0.00865077506750822
112.0,0.008280747570097446
120.0,0.007927428930997849
128.0,0.00764094665646553
144.0,0.007223010528832674
160.0,0.006743835750967264
176.0,0.006136032752692699
192.0,0.005600251257419586
208.0,0.004953049123287201
224.0,0.004420943558216095
240.0,0.003968770150095224
256.0,0.0036380935925990343
288.0,0.0031296913512051105
320.0,0.002636073622852564
352.0,0.002741771750152111
384.0,0.002885978203266859
416.0,0.002738242270424962
448.0,0.002629314549267292
480.0,0.0025737001560628414
512.0,0.0025977904442697763
576.0,0.0023287800140678883
640.0,0.0021967182401567698
704.0,0.0022733670193701982
768.0,0.002275224309414625
832.0,0.0018532779067754745
896.0,0.0013194067869335413
960.0,0.0012288788566365838
1024.0,0.0012566667282953858
1152.0,0.002066639019176364
1280.0,0.002738297451287508
1408.0,0.0025891298428177834
1536.0,0.0010792678222060204
1664.0,0.0006905900663696229
1792.0,0.0011874695774167776
1920.0,0.0014090936165302992
2048.0,0.0007049728883430362
2304.0,0.002208700869232416
2560.0,0.0042542750015854836
2816.0,0.003985931631177664
3072.0,0.0028288031462579966
3328.0,0.002039619255810976
3584.0,0.0009137344313785434
3840.0,0.0009207572438754141
4096.0,0.0015815718797966838
4608.0,-0.0012777333613485098
5120.0,-0.0005645386991091073
5632.0,-4.757613623951329e-06
6144.0,-0.001194204669445753
6656.0,-0.0014586435863748193
7168.0,-0.002092392649501562
7680.0,-0.0053218649700284
8192.0,-0.0028777504339814186
end
