version,3.0
numOfCh,1
type,point
parent_name,0cd20_0dot1-0dot01
ch_type,1_1
kcount,1
numberNandB,1
brightnessNandB,1
carpet pos,0
pc,0
Time (ms),CH1 Auto-Correlation
1.0,0.02358347736299038
2.0,0.023408083245158195
3.0,0.023234564810991287
4.0,0.023070968687534332
5.0,0.02291489765048027
6.0,0.02276017516851425
7.0,0.022611750289797783
8.0,0.0224677175283432
9.0,0.022325735539197922
10.0,0.022183051332831383
11.0,0.02204451709985733
12.0,0.0219130776822567
13.0,0.021786587312817574
14.0,0.021665677428245544
15.0,0.021550878882408142
16.0,0.02143627591431141
18.0,0.021212730556726456
20.0,0.02099386788904667
22.0,0.02077675797045231
24.0,0.02056063711643219
26.0,0.020348569378256798
28.0,0.020132677629590034
30.0,0.019916819408535957
32.0,0.01970304735004902
36.0,0.019315669313073158
40.0,0.01898246817290783
44.0,0.018674153834581375
48.0,0.01839609257876873
52.0,0.018127979710698128
56.0,0.01788262650370598
60.0,0.017626183107495308
64.0,0.01740548573434353
72.0,0.017038904130458832
80.0,0.016764292493462563
88.0,0.016497431322932243
96.0,0.01626083254814148
104.0,0.016064651310443878
112.0,0.015815822407603264
120.0,0.015533818863332272
128.0,0.015187554061412811
144.0,0.014646366238594055
160.0,0.014300685375928879
176.0,0.014041420072317123
192.0,0.013813551515340805
208.0,0.013545205816626549
224.0,0.013158797286450863
240.0,0.012688464485108852
256.0,0.012300469912588596
288.0,0.01178403664380312
320.0,0.011125647462904453
352.0,0.01042268518358469
384.0,0.00991298072040081
416.0,0.00911643449217081
448.0,0.008661175146698952
480.0,0.008585554547607899
512.0,0.008735062554478645
576.0,0.008283563889563084
640.0,0.008472444489598274
704.0,0.0081323916092515
768.0,0.007742239162325859
832.0,0.007761424407362938
896.0,0.008314047940075397
960.0,0.00842881016433239
1024.0,0.008017523214221
1152.0,0.006415377836674452
1280.0,0.0049230800941586494
1408.0,0.0036506776232272387
1536.0,0.0031560587231069803
1664.0,0.002801541704684496
1792.0,0.0017043560510501266
1920.0,0.002165941521525383
2048.0,0.002583178458735347
2304.0,0.0009316505747847259
2560.0,-0.00010041097266366705
2816.0,-0.0006758325616829097
3072.0,-0.0009184540249407291
3328.0,-0.002303238259628415
3584.0,-0.004057462327182293
3840.0,-0.0037980966735631227
4096.0,-0.0014273840934038162
4608.0,0.0019642559345811605
5120.0,0.0022622309625148773
5632.0,0.0004334420955274254
6144.0,-0.0002928580215666443
6656.0,-0.002076634904369712
7168.0,-0.0029274013359099627
7680.0,-0.005437382031232119
8192.0,-0.0064858924597501755
end
