version,3.0
numOfCh,1
type,point
parent_name,0cd20_0dot1-0dot01
ch_type,1_1
kcount,1
numberNandB,1
brightnessNandB,1
carpet pos,0
pc,0
Time (ms),CH1 Auto-Correlation
1.0,0.020475711673498154
2.0,0.0202777162194252
3.0,0.020085148513317108
4.0,0.01989245042204857
5.0,0.0196965541690588
6.0,0.01949678547680378
7.0,0.019302992150187492
8.0,0.019111759960651398
9.0,0.018918661400675774
10.0,0.01872948929667473
11.0,0.018543703481554985
12.0,0.018363239243626595
13.0,0.018185026943683624
14.0,0.018005898222327232
15.0,0.01783393695950508
16.0,0.017664100974798203
18.0,0.01733226701617241
20.0,0.01700076460838318
22.0,0.016667786985635757
24.0,0.01633698120713234
26.0,0.016012078151106834
28.0,0.015682149678468704
30.0,0.015362569130957127
32.0,0.015057818032801151
36.0,0.014468234032392502
40.0,0.013903751038014889
44.0,0.013365534134209156
48.0,0.012850098311901093
52.0,0.012364528141915798
56.0,0.01190877240151167
60.0,0.01150325033813715
64.0,0.011136986315250397
72.0,0.010422199964523315
80.0,0.009768090210855007
88.0,0.009230618365108967
96.0,0.00876421295106411
104.0,0.008282428607344627
112.0,0.007795863319188356
120.0,0.007270191330462694
128.0,0.006798155605792999
144.0,0.005937700625509024
160.0,0.0051663159392774105
176.0,0.0046609872952103615
192.0,0.0042953649535775185
208.0,0.003983227536082268
224.0,0.003588922554627061
240.0,0.0032667715568095446
256.0,0.003038730239495635
288.0,0.00250743655487895
320.0,0.0019474462606012821
352.0,0.001483068335801363
384.0,0.0012232315493747592
416.0,0.0011113063665106893
448.0,0.0010000410256907344
480.0,0.0009125809883698821
512.0,0.0012584385694935918
576.0,0.0015424611046910286
640.0,0.0014184149913489819
704.0,0.0003500078455545008
768.0,-0.001438570092432201
832.0,-0.0024752721656113863
896.0,-0.003985228948295116
960.0,-0.004821645095944405
1024.0,-0.0037970147095620632
1152.0,-0.001983456313610077
1280.0,0.0008811551379039884
1408.0,0.001718056038953364
1536.0,-0.0006060160230845213
1664.0,-0.0006010587676428258
1792.0,0.000610710121691227
1920.0,0.0005157546838745475
2048.0,-0.00026918662479147315
2304.0,-0.000677963369525969
2560.0,0.0010517747141420841
2816.0,0.001787318498827517
3072.0,0.0005180147127248347
3328.0,0.001003519631922245
3584.0,0.0008896304061636329
3840.0,0.0009586380911059678
4096.0,0.00108789699152112
4608.0,-0.0009502756292931736
5120.0,-0.0023425070103257895
5632.0,-0.0018011064967140555
6144.0,-0.001493465737439692
6656.0,-0.001871794112958014
7168.0,0.00021114877017680556
7680.0,-4.724323662230745e-05
8192.0,-0.0011180350556969643
end
