version,3.0
numOfCh,1
type,point
parent_name,0cd20_0dot1-0dot01
ch_type,1_1
kcount,1
numberNandB,1
brightnessNandB,1
carpet pos,0
pc,0
Time (ms),CH1 Auto-Correlation
1.0,0.013989883475005627
2.0,0.01380897406488657
3.0,0.013628697954118252
4.0,0.013453892432153225
5.0,0.013283414766192436
6.0,0.013117507100105286
7.0,0.01295280922204256
8.0,0.012793585658073425
9.0,0.012628850527107716
10.0,0.012470321729779243
11.0,0.012308409437537193
12.0,0.012146828696131706
13.0,0.011987850069999695
14.0,0.01183437928557396
15.0,0.011678186245262623
16.0,0.011524382047355175
18.0,0.011233995668590069
20.0,0.010956589132547379
22.0,0.010688750073313713
24.0,0.010420742444694042
26.0,0.010158737190067768
28.0,0.009915183298289776
30.0,0.009681102819740772
32.0,0.009459830820560455
36.0,0.009039963595569134
40.0,0.008643009699881077
44.0,0.00826714001595974
48.0,0.007893259637057781
52.0,0.007524716202169657
56.0,0.007146323565393686
60.0,0.006794528104364872
64.0,0.006449353881180286
72.0,0.0058412933722138405
80.0,0.005329750012606382
88.0,0.004858889617025852
96.0,0.004429379012435675
104.0,0.004091480281203985
112.0,0.003870848100632429
120.0,0.0037026971112936735
128.0,0.003520228201523423
144.0,0.0031466635409742594
160.0,0.0027131042443215847
176.0,0.0023032445460557938
192.0,0.0019848565571010113
208.0,0.0016365208430215716
224.0,0.001113660167902708
240.0,0.0005730784614570439
256.0,0.0001665048039285466
288.0,-0.0004573875921778381
320.0,-0.0009455699473619461
352.0,-0.0012613199651241302
384.0,-0.001537380157969892
416.0,-0.0021683599334210157
448.0,-0.002741703297942877
480.0,-0.0025662758853286505
512.0,-0.0018843659199774265
576.0,-0.0011665059719234705
640.0,-0.0015522310277447104
704.0,-0.0007919641211628914
768.0,-0.0002564097521826625
832.0,-0.0005667275981977582
896.0,-0.00013166463759262115
960.0,-0.0006620086496695876
1024.0,-0.0007415523868985474
1152.0,0.0010421342449262738
1280.0,-1.0732003829616588e-05
1408.0,-0.0009922244353219867
1536.0,-0.0022061069030314684
1664.0,-0.0017492135521024466
1792.0,-0.0004746634513139725
1920.0,0.00033813799382187426
2048.0,0.001507461303845048
2304.0,0.0018040862632915378
2560.0,0.0012467565247789025
2816.0,-0.00039828181616030633
3072.0,-0.0009695063345134258
3328.0,-0.000986253609880805
3584.0,0.00023242199677042663
3840.0,-0.00032758983434177935
4096.0,-0.0010333762038499117
4608.0,-0.00011543417349457741
5120.0,0.0008460442186333239
5632.0,-0.0017174610402435064
6144.0,-0.00019279705884400755
6656.0,-0.0007373110274784267
7168.0,0.00233846646733582
7680.0,-0.000703389523550868
8192.0,-0.0020094173960387707
end
