version,3.0
numOfCh,1
type,point
parent_name,0cd20_0dot1-0dot01
ch_type,1_1
kcount,1
numberNandB,1
brightnessNandB,1
carpet pos,0
pc,0
Time (ms),CH1 Auto-Correlation
1.0,0.017242927104234695
2.0,0.017049631103873253
3.0,0.016860269010066986
4.0,0.016676263883709908
5.0,0.01650114357471466
6.0,0.01632745750248432
7.0,0.01618894562125206
8.0,0.0160154327750206
9.0,0.01584768109023571
10.0,0.015673598274588585
11.0,0.015511192381381989
12.0,0.015350915491580963
13.0,0.015194851905107498
14.0,0.015037101693451405
15.0,0.014875897206366062
16.0,0.014736220240592957
18.0,0.014417489990592003
20.0,0.014152216725051403
22.0,0.01389160193502903
24.0,0.01363149844110012
26.0,0.013370677828788757
28.0,0.013118610717356205
30.0,0.012886538170278072
32.0,0.01265700999647379
36.0,0.01219781395047903
40.0,0.011755098588764668
44.0,0.011357665993273258
48.0,0.011009428650140762
52.0,0.010663265362381935
56.0,0.010296027176082134
60.0,0.00992495846003294
64.0,0.009567820467054844
72.0,0.008969920687377453
80.0,0.008492963388562202
88.0,0.00811429601162672
96.0,0.0077997478656470776
104.0,0.007486761547625065
112.0,0.007134515326470137
120.0,0.0067582884803414345
128.0,0.006394635420292616
144.0,0.006003458518534899
160.0,0.005615020636469126
176.0,0.005149142351001501
192.0,0.004711730871349573
208.0,0.004185667727142572
224.0,0.003815437201410532
240.0,0.0035545986611396074
256.0,0.0035795841831713915
288.0,0.0033045930322259665
320.0,0.00274138362146914
352.0,0.002240611705929041
384.0,0.001659838599152863
416.0,0.0007579560042358935
448.0,0.0005564975435845554
480.0,0.000360291451215744
512.0,0.00022284980514086783
576.0,0.00024524496984668076
640.0,8.886242540029343e-06
704.0,-0.00043624412501230836
768.0,-9.600146586308256e-05
832.0,-2.2006202925695106e-05
896.0,-0.00010587878205114976
960.0,1.4370855751622003e-05
1024.0,-0.00014496673247776926
1152.0,7.942489901324734e-05
1280.0,0.00011307126260362566
1408.0,-0.0009316112264059484
1536.0,-0.0010159894591197371
1664.0,-0.0015006002504378557
1792.0,-0.001639065332710743
1920.0,-0.0007506489637307823
2048.0,0.0009868117049336433
2304.0,0.0010781643213704228
2560.0,-0.0003444249741733074
2816.0,0.0012688296847045422
3072.0,0.0020715869031846523
3328.0,-0.00024920215946622193
3584.0,-0.0013570000883191824
3840.0,-0.0008222577744163573
4096.0,0.0014597370754927397
4608.0,0.0004685093881562352
5120.0,0.0016032976564019918
5632.0,-0.00030373994377441704
6144.0,-0.00018377740343566984
6656.0,-0.0002145761245628819
7168.0,-0.00035391011624597013
7680.0,-0.0025627852883189917
8192.0,-0.003589323488995433
end
