version,3.0
numOfCh,1
type,point
parent_name,0cd20_0dot1-0dot01
ch_type,1_1
kcount,1
numberNandB,1
brightnessNandB,1
carpet pos,0
pc,0
Time (ms),CH1 Auto-Correlation
1.0,0.0224362351000309
2.0,0.022245457395911217
3.0,0.022049739956855774
4.0,0.021858427673578262
5.0,0.021666327491402626
6.0,0.021471615880727768
7.0,0.021283216774463654
8.0,0.021097995340824127
9.0,0.02091890759766102
10.0,0.020747026428580284
11.0,0.020576898008584976
12.0,0.020402709022164345
13.0,0.020230501890182495
14.0,0.020064914599061012
15.0,0.019902024418115616
16.0,0.01973859779536724
18.0,0.019430110231041908
20.0,0.019126038998365402
22.0,0.01881968230009079
24.0,0.01851775124669075
26.0,0.018224181607365608
28.0,0.017940808087587357
30.0,0.017663968726992607
32.0,0.017393890768289566
36.0,0.01689377799630165
40.0,0.016415631398558617
44.0,0.015932930633425713
48.0,0.015466669574379921
52.0,0.015034920535981655
56.0,0.014668634161353111
60.0,0.014339286834001541
64.0,0.014019775204360485
72.0,0.013391678221523762
80.0,0.012826336547732353
88.0,0.012321652844548225
96.0,0.011850091628730297
104.0,0.01149981003254652
112.0,0.011197246611118317
120.0,0.010908725671470165
128.0,0.010684126988053322
144.0,0.01028650812804699
160.0,0.009937339462339878
176.0,0.009649879299104214
192.0,0.009517454542219639
208.0,0.009368415921926498
224.0,0.009168272837996483
240.0,0.008798781782388687
256.0,0.008400732651352882
288.0,0.007510682102292776
320.0,0.006481429096311331
352.0,0.005558640230447054
384.0,0.004930302035063505
416.0,0.005071366671472788
448.0,0.005335647612810135
480.0,0.0048826029524207115
512.0,0.0044862618669867516
576.0,0.004410941153764725
640.0,0.003308298299089074
704.0,0.003163602901622653
768.0,0.003552905283868313
832.0,0.004061860032379627
896.0,0.00495948176831007
960.0,0.004157620947808027
1024.0,0.003607841907069087
1152.0,0.0024896932300180197
1280.0,0.0019346721237525344
1408.0,0.0016170659800991416
1536.0,0.0011298044119030237
1664.0,9.95879017864354e-05
1792.0,0.0003677529457490891
1920.0,0.0005679961759597063
2048.0,-0.00029343392816372216
2304.0,0.0004790422390215099
2560.0,-3.596616352297133e-06
2816.0,-0.0014684663619846106
3072.0,-0.0008946613525040448
3328.0,0.0005882018595002592
3584.0,-0.0002751643187366426
3840.0,-0.0017205977346748114
4096.0,-0.0003958606394007802
4608.0,-0.0024257428012788296
5120.0,-0.0028477394953370094
5632.0,-0.0038067828863859177
6144.0,-0.007644789293408394
6656.0,-0.005462508648633957
7168.0,-0.0030869331676512957
7680.0,0.0003972238628193736
8192.0,0.0006891904631629586
end
