version,3.0
numOfCh,1
type,point
parent_name,0cd20_0dot1-0dot01
ch_type,1_1
kcount,1
numberNandB,1
brightnessNandB,1
carpet pos,0
pc,0
Time (ms),CH1 Auto-Correlation
1.0,0.02742585726082325
2.0,0.027197299525141716
3.0,0.02697133645415306
4.0,0.02675372175872326
5.0,0.02654268965125084
6.0,0.026340633630752563
7.0,0.02615055814385414
8.0,0.025964561849832535
9.0,0.02578708343207836
10.0,0.025613248348236084
11.0,0.025440393015742302
12.0,0.025275690481066704
13.0,0.025113344192504883
14.0,0.024947917088866234
15.0,0.02478744275867939
16.0,0.024637913331389427
18.0,0.024345438927412033
20.0,0.024060579016804695
22.0,0.02378976158797741
24.0,0.02351309545338154
26.0,0.02323099784553051
28.0,0.022942155599594116
30.0,0.022665247321128845
32.0,0.022405581548810005
36.0,0.021885249763727188
40.0,0.0213309358805418
44.0,0.020756704732775688
48.0,0.020228436216711998
52.0,0.019769884645938873
56.0,0.01934581995010376
60.0,0.01896560750901699
64.0,0.018598109483718872
72.0,0.017909890040755272
80.0,0.01724657602608204
88.0,0.016562901437282562
96.0,0.016000086441636086
104.0,0.015463639050722122
112.0,0.014924777671694756
120.0,0.014422438107430935
128.0,0.013927842490375042
144.0,0.013096434064209461
160.0,0.012370958924293518
176.0,0.011719966307282448
192.0,0.011413619853556156
208.0,0.011028185486793518
224.0,0.010603372007608414
240.0,0.00981881469488144
256.0,0.009019443765282631
288.0,0.007992471568286419
320.0,0.007638360373675823
352.0,0.007562491111457348
384.0,0.007281333673745394
416.0,0.006432398688048124
448.0,0.0052320510149002075
480.0,0.004182840697467327
512.0,0.003964686766266823
576.0,0.0029976118821650743
640.0,0.0014388593845069408
704.0,0.0011152246734127402
768.0,0.0013405849458649755
832.0,0.002032143296673894
896.0,0.0026492364704608917
960.0,0.0042198109440505505
1024.0,0.005505529697984457
1152.0,0.0050885844975709915
1280.0,0.004690305329859257
1408.0,0.00395455677062273
1536.0,0.003837369382381439
1664.0,0.003556033130735159
1792.0,0.0023301206529140472
1920.0,0.004286306444555521
2048.0,0.005717935506254435
2304.0,0.004303890746086836
2560.0,0.0022054442670196295
2816.0,-0.0003148645628243685
3072.0,0.0001699584536254406
3328.0,-0.0005799881182610989
3584.0,-0.00040643251850269735
3840.0,0.0003179530904162675
4096.0,0.0007051607826724648
4608.0,-0.0008125893073156476
5120.0,0.0024523374158889055
5632.0,-0.001913793501444161
6144.0,-0.0005744042573496699
6656.0,0.0032084144186228514
7168.0,-0.0006065820925869048
7680.0,-0.001629751524887979
8192.0,-0.0020057104993611574
end
