version,3.0
numOfCh,1
type,point
parent_name,0cd20_0dot1-0dot01
ch_type,1_1
kcount,1
numberNandB,1
brightnessNandB,1
carpet pos,0
pc,0
Time (ms),CH1 Auto-Correlation
1.0,0.01743423007428646
2.0,0.017254948616027832
3.0,0.017077434808015823
4.0,0.016911359503865242
5.0,0.016745885834097862
6.0,0.016588455066084862
7.0,0.016431720927357674
8.0,0.01627897284924984
9.0,0.01612338237464428
10.0,0.015970459207892418
11.0,0.015821067616343498
12.0,0.015669861808419228
13.0,0.01552087627351284
14.0,0.015375680290162563
15.0,0.015232881531119347
16.0,0.015093548223376274
18.0,0.014815488830208778
20.0,0.01454277615994215
22.0,0.014268710277974606
24.0,0.014001036062836647
26.0,0.013733895495533943
28.0,0.013469149358570576
30.0,0.013211785815656185
32.0,0.012959269806742668
36.0,0.012490933761000633
40.0,0.012048197910189629
44.0,0.01162837352603674
48.0,0.011241287924349308
52.0,0.010877746157348156
56.0,0.0105467289686203
60.0,0.010221565142273903
64.0,0.009922927245497704
72.0,0.009425606578588486
80.0,0.00900202989578247
88.0,0.008610982447862625
96.0,0.008293190971016884
104.0,0.008026406168937683
112.0,0.0077424431219697
120.0,0.007461350876837969
128.0,0.007215994875878096
144.0,0.006750934757292271
160.0,0.006405535154044628
176.0,0.006213129963725805
192.0,0.0059282477013766766
208.0,0.005618295632302761
224.0,0.005147196818143129
240.0,0.0047387899830937386
256.0,0.004527402576059103
288.0,0.004097277298569679
320.0,0.0034729158505797386
352.0,0.0028119939379394054
384.0,0.002362064318731427
416.0,0.0018339803209528327
448.0,0.0016455213772132993
480.0,0.001794106443412602
512.0,0.0019941041246056557
576.0,0.0022016684524714947
640.0,0.002027063863351941
704.0,0.0017904638079926372
768.0,0.0020198319107294083
832.0,0.002443040255457163
896.0,0.0019389340886846185
960.0,0.0017418406205251813
1024.0,0.001127356314100325
1152.0,0.001845009159296751
1280.0,0.0012879830319434404
1408.0,0.001522123464383185
1536.0,0.001649354351684451
1664.0,0.0020828612614423037
1792.0,0.0001855009759310633
1920.0,-0.0018854375230148435
2048.0,-0.0019101895159110427
2304.0,-0.0012617215979844332
2560.0,-0.001217951299622655
2816.0,-0.0010031289421021938
3072.0,0.0004931196453981102
3328.0,0.00034081953344866633
3584.0,0.0005641441093757749
3840.0,0.0003758663951884955
4096.0,-0.0007727268384769559
4608.0,-0.0007691456121392548
5120.0,9.230030991602689e-05
5632.0,-0.0003677289350889623
6144.0,0.0004012423160020262
6656.0,0.002085130661725998
7168.0,0.0014542860444635153
7680.0,-0.0012452794471755624
8192.0,-0.0012491296511143446
end
