version,3.0
numOfCh,1
type,point
parent_name,484af_0dot2-0dot1
ch_type,1_1
kcount,1
numberNandB,1
brightnessNandB,1
carpet pos,0
pc,0
Time (ms),CH1 Auto-Correlation
1.0,0.07859528064727783
2.0,0.0772305503487587
3.0,0.07591546326875687
4.0,0.07461122423410416
5.0,0.07335053384304047
6.0,0.07213247567415237
7.0,0.07098714262247086
8.0,0.06988348811864853
9.0,0.06880522519350052
10.0,0.06775331497192383
11.0,0.06669717282056808
12.0,0.06568820029497147
13.0,0.06469021737575531
14.0,0.06372333317995071
15.0,0.06280694156885147
16.0,0.06188579648733139
18.0,0.06013993173837662
20.0,0.05852838233113289
22.0,0.05696440115571022
24.0,0.05554415285587311
26.0,0.054137054830789566
28.0,0.052670229226350784
30.0,0.051139794290065765
32.0,0.04971819370985031
36.0,0.04714907333254814
40.0,0.044740695506334305
44.0,0.0423133410513401
48.0,0.0401722714304924
52.0,0.038157928735017776
56.0,0.036272551864385605
60.0,0.03446248546242714
64.0,0.03281720355153084
72.0,0.030415717512369156
80.0,0.028862878680229187
88.0,0.027523407712578773
96.0,0.026314210146665573
104.0,0.02500045672059059
112.0,0.023833030834794044
120.0,0.022797195240855217
128.0,0.021538985893130302
144.0,0.01833215542137623
160.0,0.014412855729460716
176.0,0.011781210079789162
192.0,0.010629196651279926
208.0,0.010000896640121937
224.0,0.00978641863912344
240.0,0.0097454022616148
256.0,0.009651144035160542
288.0,0.009348709136247635
320.0,0.009437746368348598
352.0,0.00830902997404337
384.0,0.0071639795787632465
416.0,0.006081234663724899
448.0,0.007441294379532337
480.0,0.006844987627118826
512.0,0.0031524577643722296
576.0,-0.0017238681903108954
640.0,-0.00433189794421196
704.0,-0.006580509711056948
768.0,-0.004763596225529909
832.0,-0.003850442124530673
896.0,-0.004097198601812124
960.0,-0.003730596276000142
1024.0,-0.005664592608809471
1152.0,-0.002452366054058075
1280.0,-0.0070438990369439125
1408.0,-0.006433646660298109
1536.0,-0.0038360334001481533
1664.0,-0.003064798889681697
1792.0,0.00116914592217654
1920.0,0.0003150903794448823
2048.0,0.0006198133924044669
2304.0,-0.008419220335781574
2560.0,-0.004899671766906977
2816.0,0.004002896603196859
3072.0,0.00790434330701828
3328.0,0.007908265106379986
3584.0,0.010194391012191772
3840.0,0.004521519877016544
4096.0,-0.0035794652067124844
4608.0,0.000505784701090306
5120.0,-0.013448766432702541
5632.0,0.002656295197084546
6144.0,-0.0019496026216074824
6656.0,0.0009567764936946332
7168.0,-0.006484478712081909
7680.0,-0.0005305412341840565
8192.0,-0.007166251074522734
end
