version,3.0
numOfCh,1
type,point
parent_name,484af_0dot2-0dot1
ch_type,1_1
kcount,1
numberNandB,1
brightnessNandB,1
carpet pos,0
pc,0
Time (ms),CH1 Auto-Correlation
1.0,0.067657470703125
2.0,0.06626610457897186
3.0,0.0649465024471283
4.0,0.06368007510900497
5.0,0.062475670129060745
6.0,0.061272747814655304
7.0,0.060186829417943954
8.0,0.059171926230192184
9.0,0.0581769160926342
10.0,0.05727865919470787
11.0,0.05639081448316574
12.0,0.055551763623952866
13.0,0.05471302568912506
14.0,0.053887683898210526
15.0,0.05309782549738884
16.0,0.05233513563871384
18.0,0.05090083181858063
20.0,0.04952629655599594
22.0,0.048204801976680756
24.0,0.0468682162463665
26.0,0.0455993227660656
28.0,0.04441078379750252
30.0,0.04327881708741188
32.0,0.04221869260072708
36.0,0.040091533213853836
40.0,0.03797513246536255
44.0,0.036059822887182236
48.0,0.034258436411619186
52.0,0.032768093049526215
56.0,0.03163141757249832
60.0,0.030621139332652092
64.0,0.029561001807451248
72.0,0.027342934161424637
80.0,0.025349481031298637
88.0,0.02372150309383869
96.0,0.02227652072906494
104.0,0.020516639575362206
112.0,0.018157729879021645
120.0,0.015696575865149498
128.0,0.013316694647073746
144.0,0.008723323233425617
160.0,0.006087846122682095
176.0,0.005589560605585575
192.0,0.005023040808737278
208.0,0.004854099825024605
224.0,0.005100176203995943
240.0,0.004204075783491135
256.0,0.003398213302716613
288.0,0.0017366891261190176
320.0,0.0006393670337274671
352.0,-0.001442178850993514
384.0,-0.002725463593378663
416.0,-0.0026316421572118998
448.0,-0.003166131442412734
480.0,-0.004249927122145891
512.0,-0.004051621537655592
576.0,-0.004137188661843538
640.0,-0.0029848043341189623
704.0,0.0007076855981722474
768.0,0.0033345145639032125
832.0,0.005128256976604462
896.0,0.004144483711570501
960.0,0.00246416125446558
1024.0,-0.0007406258955597878
1152.0,-0.00031632123864255846
1280.0,-0.0023522507399320602
1408.0,0.0016820431919768453
1536.0,0.004287073854357004
1664.0,0.00812498014420271
1792.0,0.0004744690377265215
1920.0,-0.005465704947710037
2048.0,-0.009157081134617329
2304.0,-0.004256406798958778
2560.0,0.0033728424459695816
2816.0,-0.0005106848548166454
3072.0,0.0001542843965580687
3328.0,0.002859966130927205
3584.0,0.00011728492972906679
3840.0,-0.0041371919214725494
4096.0,-0.0008330220589414239
4608.0,-0.005700798239558935
5120.0,-0.0038460989017039537
5632.0,0.002099946839734912
6144.0,-0.007958060130476952
6656.0,-0.0013456047745421529
7168.0,0.0014834636822342873
7680.0,-0.005673944018781185
8192.0,0.004118294920772314
end
