version,3.0
numOfCh,1
type,point
parent_name,484af_0dot2-0dot1
ch_type,1_1
kcount,1
numberNandB,1
brightnessNandB,1
carpet pos,0
pc,0
Time (ms),CH1 Auto-Correlation
1.0,0.07041686773300171
2.0,0.06910967826843262
3.0,0.06790848821401596
4.0,0.06678654998540878
5.0,0.06572642177343369
6.0,0.06468749046325684
7.0,0.06370413303375244
8.0,0.06275276094675064
9.0,0.0618055984377861
10.0,0.06088778004050255
11.0,0.05998529866337776
12.0,0.05911947786808014
13.0,0.058278925716876984
14.0,0.05750180035829544
15.0,0.056729547679424286
16.0,0.05596302077174187
18.0,0.0544254444539547
20.0,0.052908629179000854
22.0,0.05151603743433952
24.0,0.05024411156773567
26.0,0.049021750688552856
28.0,0.047896794974803925
30.0,0.04674448445439339
32.0,0.0456351712346077
36.0,0.04366355016827583
40.0,0.04170019552111626
44.0,0.039895884692668915
48.0,0.0382360965013504
52.0,0.03673231601715088
56.0,0.03528480976819992
60.0,0.03401096537709236
64.0,0.03280913457274437
72.0,0.03077634610235691
80.0,0.02928265556693077
88.0,0.028098855167627335
96.0,0.027288198471069336
104.0,0.026679188013076782
112.0,0.025952788069844246
120.0,0.025645583868026733
128.0,0.02526077628135681
144.0,0.023907531052827835
160.0,0.022069180384278297
176.0,0.02002212405204773
192.0,0.018239149823784828
208.0,0.016673294827342033
224.0,0.015149072743952274
240.0,0.012975637800991535
256.0,0.010486486367881298
288.0,0.00889263954013586
320.0,0.009168765507638454
352.0,0.009354139678180218
384.0,0.007887170650064945
416.0,0.008028092794120312
448.0,0.009236613288521767
480.0,0.010851646773517132
512.0,0.010466610081493855
576.0,0.008874734863638878
640.0,0.012643583118915558
704.0,0.012995696626603603
768.0,0.009087881073355675
832.0,0.007672750391066074
896.0,0.0033837207593023777
960.0,0.0019414896378293633
1024.0,0.0026800152845680714
1152.0,0.007892901077866554
1280.0,0.0036709816195070744
1408.0,-0.0031050918623805046
1536.0,-0.009126200340688229
1664.0,-0.010392466560006142
1792.0,-0.007368427701294422
1920.0,-0.003482238156720996
2048.0,-0.004577650222927332
2304.0,-0.0033353499602526426
2560.0,-0.007324520032852888
2816.0,-2.2773454475100152e-05
3072.0,0.011049686931073666
3328.0,0.008477608673274517
3584.0,0.010450318455696106
3840.0,0.007656535133719444
4096.0,0.008248064666986465
4608.0,0.0018928274512290955
5120.0,-0.004909956827759743
5632.0,-0.011152232065796852
6144.0,-0.008587432093918324
6656.0,-0.008249941281974316
7168.0,-0.009999261237680912
7680.0,-0.005559402983635664
8192.0,-0.004672572016716003
end
