version,3.0
numOfCh,1
type,point
parent_name,484af_0dot2-0dot1
ch_type,1_1
kcount,1
numberNandB,1
brightnessNandB,1
carpet pos,0
pc,0
Time (ms),CH1 Auto-Correlation
1.0,0.06706692278385162
2.0,0.06578463315963745
3.0,0.06454220414161682
4.0,0.06337373703718185
5.0,0.06228531524538994
6.0,0.0612504705786705
7.0,0.06025458872318268
8.0,0.059320881962776184
9.0,0.05840149521827698
10.0,0.05749661102890968
11.0,0.056591492146253586
12.0,0.05572717264294624
13.0,0.05489923432469368
14.0,0.054086148738861084
15.0,0.05330357328057289
16.0,0.05255555361509323
18.0,0.05109025910496712
20.0,0.04969494789838791
22.0,0.04839162901043892
24.0,0.04718222841620445
26.0,0.04592530429363251
28.0,0.04464465007185936
30.0,0.04344436898827553
32.0,0.04237892106175423
36.0,0.040377434343099594
40.0,0.03837917372584343
44.0,0.03643130511045456
48.0,0.034632738679647446
52.0,0.03299257904291153
56.0,0.03135274350643158
60.0,0.029744144529104233
64.0,0.02823379449546337
72.0,0.025713948532938957
80.0,0.023690110072493553
88.0,0.021853601559996605
96.0,0.019977303221821785
104.0,0.018081022426486015
112.0,0.01606236957013607
120.0,0.014217219315469265
128.0,0.012854238040745258
144.0,0.01023124996572733
160.0,0.008277200162410736
176.0,0.007308549247682095
192.0,0.006930877920240164
208.0,0.005928636994212866
224.0,0.0052109756506979465
240.0,0.0045590950176119804
256.0,0.004179655574262142
288.0,0.004617278929799795
320.0,0.004870944190770388
352.0,0.006229479797184467
384.0,0.00673254719004035
416.0,0.007953294552862644
448.0,0.010315652005374432
480.0,0.011632443405687809
512.0,0.012228944338858128
576.0,0.00811086967587471
640.0,0.0018429215997457504
704.0,0.001356092980131507
768.0,0.0005854002665728331
832.0,-0.0011370384600013494
896.0,0.0004190683248452842
960.0,0.0034309388138353825
1024.0,0.005495760589838028
1152.0,-0.0037833438254892826
1280.0,-0.003133179387077689
1408.0,-0.0015848554903641343
1536.0,0.0038905784022063017
1664.0,-0.0011082406854256988
1792.0,0.003261524485424161
1920.0,0.005733476486057043
2048.0,0.007892840541899204
2304.0,0.004009520635008812
2560.0,0.006407308857887983
2816.0,0.004702663980424404
3072.0,0.00651196064427495
3328.0,0.002835375489667058
3584.0,-0.003651931881904602
3840.0,0.0011645056074485183
4096.0,-0.006500644609332085
4608.0,0.0023401284124702215
5120.0,0.0021570450626313686
5632.0,0.0006641210638917983
6144.0,-0.0013316856930032372
6656.0,0.0016274758381769061
7168.0,-0.004747135564684868
7680.0,-0.005707201082259417
8192.0,-0.007068026345223188
end
