version,3.0
numOfCh,1
type,point
parent_name,484af_0dot2-0dot1
ch_type,1_1
kcount,1
numberNandB,1
brightnessNandB,1
carpet pos,0
pc,0
Time (ms),CH1 Auto-Correlation
1.0,0.07637602090835571
2.0,0.07512713223695755
3.0,0.07396218180656433
4.0,0.07280369848012924
5.0,0.07171718031167984
6.0,0.07072874903678894
7.0,0.0697610005736351
8.0,0.06885398924350739
9.0,0.06795196235179901
10.0,0.06704062968492508
11.0,0.06617709994316101
12.0,0.06535571813583374
13.0,0.06455694884061813
14.0,0.06375990808010101
15.0,0.06297559291124344
16.0,0.06222091242671013
18.0,0.060758333653211594
20.0,0.05933850258588791
22.0,0.05795443058013916
24.0,0.05672836676239967
26.0,0.05558769032359123
28.0,0.05444035679101944
30.0,0.05343376472592354
32.0,0.05250304937362671
36.0,0.05069853365421295
40.0,0.04895850270986557
44.0,0.04722103476524353
48.0,0.04568801447749138
52.0,0.04424387216567993
56.0,0.04273718595504761
60.0,0.04132719337940216
64.0,0.039913274347782135
72.0,0.037480201572179794
80.0,0.035696614533662796
88.0,0.03413236886262894
96.0,0.03238291293382645
104.0,0.030674245208501816
112.0,0.029038358479738235
120.0,0.0279306098818779
128.0,0.027852140367031097
144.0,0.02802475541830063
160.0,0.027893083170056343
176.0,0.026670079678297043
192.0,0.024896744638681412
208.0,0.022187143564224243
224.0,0.02011948823928833
240.0,0.0183935035020113
256.0,0.016525426879525185
288.0,0.013572344556450844
320.0,0.01134053897112608
352.0,0.009037774987518787
384.0,0.0069762286730110645
416.0,0.004167724400758743
448.0,0.0009590091649442911
480.0,-0.0001497351040598005
512.0,-0.000659559853374958
576.0,0.001984257949516177
640.0,0.0034972268622368574
704.0,0.00031973596196621656
768.0,-0.0021965685300529003
832.0,0.0009455656982026994
896.0,0.0024389096070080996
960.0,0.0014277128502726555
1024.0,1.2877721928816754e-05
1152.0,-0.003414543578401208
1280.0,-0.003711773781105876
1408.0,-0.009965921752154827
1536.0,-0.014149471186101437
1664.0,-0.01905677281320095
1792.0,-0.013456126675009727
1920.0,-0.01102794986218214
2048.0,-0.010360206477344036
2304.0,-0.011864632368087769
2560.0,-0.013646806590259075
2816.0,-0.005163834895938635
3072.0,0.0003953123523388058
3328.0,0.009455479681491852
3584.0,0.0068745058961212635
3840.0,0.00929672084748745
4096.0,0.01807905174791813
4608.0,0.01071501336991787
5120.0,-0.001674948143772781
5632.0,-0.004276593681424856
6144.0,-0.024838725104928017
6656.0,-0.00043209269642829895
7168.0,-0.007194123696535826
7680.0,0.005363388452678919
8192.0,0.013066316954791546
end
