version,3.0
numOfCh,1
type,point
parent_name,484af_0dot2-0dot1
ch_type,1_1
kcount,1
numberNandB,1
brightnessNandB,1
carpet pos,0
pc,0
Time (ms),CH1 Auto-Correlation
1.0,0.07313945144414902
2.0,0.07157973945140839
3.0,0.07013237476348877
4.0,0.06880652159452438
5.0,0.06752370297908783
6.0,0.06627454608678818
7.0,0.06514878571033478
8.0,0.06409180909395218
9.0,0.06310167908668518
10.0,0.062135640531778336
11.0,0.06122778356075287
12.0,0.06036090478301048
13.0,0.05953211337327957
14.0,0.05863539129495621
15.0,0.057750072330236435
16.0,0.05694116652011871
18.0,0.05534079298377037
20.0,0.05374636501073837
22.0,0.05222875997424126
24.0,0.050738293677568436
26.0,0.04939708113670349
28.0,0.048201318830251694
30.0,0.047017306089401245
32.0,0.04583495482802391
36.0,0.043695297092199326
40.0,0.04150059074163437
44.0,0.03947626054286957
48.0,0.03790939226746559
52.0,0.03653595969080925
56.0,0.03519844636321068
60.0,0.03388918563723564
64.0,0.03277577832341194
72.0,0.029819676652550697
80.0,0.026460031047463417
88.0,0.023786498233675957
96.0,0.021946392953395844
104.0,0.02019195444881916
112.0,0.018501952290534973
120.0,0.017085805535316467
128.0,0.016168372705578804
144.0,0.014275268651545048
160.0,0.011569065041840076
176.0,0.010562886483967304
192.0,0.010943868197500706
208.0,0.011508313938975334
224.0,0.012006902135908604
240.0,0.012961813248693943
256.0,0.014633593149483204
288.0,0.017593758180737495
320.0,0.018110670149326324
352.0,0.017252475023269653
384.0,0.016028670594096184
416.0,0.01441750954836607
448.0,0.013965794816613197
480.0,0.011349910870194435
512.0,0.006918281316757202
576.0,0.008588333614170551
640.0,0.01246948167681694
704.0,0.014291578903794289
768.0,0.011058061383664608
832.0,0.006233463529497385
896.0,0.004755620379000902
960.0,0.005152085795998573
1024.0,0.008030029945075512
1152.0,0.011435309424996376
1280.0,0.003920719027519226
1408.0,0.001749664661474526
1536.0,-0.0003955115389544517
1664.0,-0.001492565032094717
1792.0,-0.0009832157520577312
1920.0,-0.005184947978705168
2048.0,-0.004891761112958193
2304.0,0.004449517000466585
2560.0,0.0011706309160217643
2816.0,0.002607568632811308
3072.0,-0.0006402766448445618
3328.0,-0.004577950574457645
3584.0,-0.005082433577626944
3840.0,-0.009205608628690243
4096.0,-0.012504654005169868
4608.0,-0.01123369112610817
5120.0,-0.006978692952543497
5632.0,-0.008146933279931545
6144.0,-0.010121564380824566
6656.0,-0.011761747300624847
7168.0,-0.01398860476911068
7680.0,-0.009826221503317356
8192.0,-0.006176481023430824
end
