version,3.0
numOfCh,1
type,point
parent_name,484af_0dot2-0dot1
ch_type,1_1
kcount,1
numberNandB,1
brightnessNandB,1
carpet pos,0
pc,0
Time (ms),CH1 Auto-Correlation
1.0,0.22476717829704285
2.0,0.21804673969745636
3.0,0.21142707765102386
4.0,0.20452886819839478
5.0,0.19911770522594452
6.0,0.19527429342269897
7.0,0.1915770322084427
8.0,0.189529150724411
9.0,0.1876934915781021
10.0,0.1854860633611679
11.0,0.18199686706066132
12.0,0.17838716506958008
13.0,0.17419494688510895
14.0,0.17081236839294434
15.0,0.16671283543109894
16.0,0.1636609137058258
18.0,0.1562325358390808
20.0,0.14820174872875214
22.0,0.14079341292381287
24.0,0.13556921482086182
26.0,0.13078244030475616
28.0,0.12469809502363205
30.0,0.11712062358856201
32.0,0.10967441648244858
36.0,0.09120665490627289
40.0,0.07755930721759796
44.0,0.06461873650550842
48.0,0.04650011286139488
52.0,0.04365532100200653
56.0,0.0411822646856308
60.0,0.03679097443819046
64.0,0.0358465239405632
72.0,0.030915644019842148
80.0,0.026135629042983055
88.0,0.02194363810122013
96.0,0.01767127215862274
104.0,0.012831764295697212
112.0,0.005776962265372276
120.0,0.0013717638794332743
128.0,0.0004636600788217038
144.0,0.0031373603269457817
160.0,0.003310081083327532
176.0,0.003086141077801585
192.0,-6.028246843925444e-06
208.0,-0.0014007817953824997
224.0,-0.0012964541092514992
240.0,-0.0011976093519479036
256.0,0.00045819085789844394
288.0,0.0030993365217000246
320.0,0.003024559235200286
352.0,0.005429566837847233
384.0,0.007556235883384943
416.0,0.00855675432831049
448.0,0.008889702148735523
480.0,0.003923607058823109
512.0,7.689228368690237e-05
576.0,-0.00316834170371294
640.0,-0.0030615294817835093
704.0,-0.002530741738155484
768.0,0.00010566332639427856
832.0,-0.0014973136130720377
896.0,-0.0036510289646685123
960.0,-0.001954655395820737
1024.0,-0.0023414611350744963
1152.0,0.004701339639723301
1280.0,0.003769376315176487
1408.0,-0.0009308322914876044
1536.0,-0.0023757321760058403
1664.0,0.0027832661289721727
1792.0,-0.0029972081538289785
1920.0,-0.0008416221826337278
2048.0,0.00034924622741527855
2304.0,0.005415032617747784
2560.0,-0.00046812999062240124
2816.0,0.003354094922542572
3072.0,8.396173507208005e-05
3328.0,0.00394382793456316
3584.0,0.002988590858876705
3840.0,-0.002655213698744774
4096.0,-0.0029071588069200516
4608.0,0.002362188184633851
5120.0,-9.563854109728709e-05
5632.0,-0.001201183651573956
6144.0,-0.0011896024225279689
6656.0,0.0005706561496481299
7168.0,0.00345057831145823
7680.0,-0.00025703234132379293
8192.0,0.004474171902984381
end
