version,3.0
numOfCh,1
type,point
parent_name,484af_0dot2-0dot1
ch_type,1_1
kcount,1
numberNandB,1
brightnessNandB,1
carpet pos,0
pc,0
Time (ms),CH1 Auto-Correlation
1.0,0.058519285172224045
2.0,0.057263266295194626
3.0,0.056072626262903214
4.0,0.05491926521062851
5.0,0.053834203630685806
6.0,0.05276000127196312
7.0,0.05174766108393669
8.0,0.05074424669146538
9.0,0.04978985711932182
10.0,0.048882968723773956
11.0,0.04799710959196091
12.0,0.047120146453380585
13.0,0.046320926398038864
14.0,0.045554596930742264
15.0,0.04481138661503792
16.0,0.04411262273788452
18.0,0.04275788366794586
20.0,0.04147578403353691
22.0,0.040196243673563004
24.0,0.03899923712015152
26.0,0.03785164654254913
28.0,0.036718953400850296
30.0,0.03562694042921066
32.0,0.03450809791684151
36.0,0.03223425894975662
40.0,0.030089788138866425
44.0,0.028071215376257896
48.0,0.026277273893356323
52.0,0.02471262402832508
56.0,0.023250998929142952
60.0,0.021819977089762688
64.0,0.020549675449728966
72.0,0.018040146678686142
80.0,0.01582868956029415
88.0,0.014068668708205223
96.0,0.012909773737192154
104.0,0.01246712077409029
112.0,0.01203873846679926
120.0,0.011801156215369701
128.0,0.01182324904948473
144.0,0.01137515902519226
160.0,0.010393163189291954
176.0,0.009095778688788414
192.0,0.007180164102464914
208.0,0.005135341081768274
224.0,0.0029250977095216513
240.0,0.0021554671693593264
256.0,0.0026779009494930506
288.0,0.0036928874906152487
320.0,0.002990566659718752
352.0,0.0008314790320582688
384.0,-0.00142141233664006
416.0,-0.0015822576824575663
448.0,-0.0010814707493409514
480.0,-0.0019685784354805946
512.0,-0.001295350375585258
576.0,-0.00025020301109179854
640.0,-0.0012482801685109735
704.0,-0.0013050367124378681
768.0,0.0003844378225039691
832.0,-0.002227197866886854
896.0,0.0006296922801993787
960.0,-0.0005100501584820449
1024.0,0.0011483196867629886
1152.0,-0.003980748355388641
1280.0,-0.004873958881944418
1408.0,-0.0031776658724993467
1536.0,0.00100043136626482
1664.0,0.005948579404503107
1792.0,0.00012188303662696853
1920.0,-0.0033375786151736975
2048.0,-0.006059362553060055
2304.0,-0.0035958976950496435
2560.0,-0.0015866296598687768
2816.0,-0.0005387915880419314
3072.0,-0.008654579520225525
3328.0,-0.005349640268832445
3584.0,-0.002613578224554658
3840.0,0.0008249198435805738
4096.0,-0.00238147284835577
4608.0,0.0019435844151303172
5120.0,0.008146720938384533
5632.0,-0.004969493485987186
6144.0,0.002098885364830494
6656.0,0.003108087694272399
7168.0,-0.005945916753262281
7680.0,-0.001957656117156148
8192.0,-0.002054183278232813
end
