version,3.0
numOfCh,1
type,point
parent_name,484af_0dot2-0dot1
ch_type,1_1
kcount,1
numberNandB,1
brightnessNandB,1
carpet pos,0
pc,0
Time (ms),CH1 Auto-Correlation
1.0,0.07370469719171524
2.0,0.0723249539732933
3.0,0.07095301896333694
4.0,0.06967497617006302
5.0,0.06844710558652878
6.0,0.06724759191274643
7.0,0.0660708099603653
8.0,0.06489374488592148
9.0,0.06378695368766785
10.0,0.06274125725030899
11.0,0.06174716353416443
12.0,0.060843054205179214
13.0,0.05997231602668762
14.0,0.05914543569087982
15.0,0.05830742046236992
16.0,0.05746243894100189
18.0,0.05580335482954979
20.0,0.05424982309341431
22.0,0.052740324288606644
24.0,0.0513099804520607
26.0,0.04990903660655022
28.0,0.04865044355392456
30.0,0.04750853404402733
32.0,0.04634566977620125
36.0,0.044065818190574646
40.0,0.041987840086221695
44.0,0.040201373398303986
48.0,0.038565654307603836
52.0,0.03695385903120041
56.0,0.03566126525402069
60.0,0.03468364104628563
64.0,0.033642787486314774
72.0,0.031825754791498184
80.0,0.030103856697678566
88.0,0.02825654111802578
96.0,0.026846343651413918
104.0,0.0255439393222332
112.0,0.02423028089106083
120.0,0.023307861760258675
128.0,0.022545602172613144
144.0,0.02098085545003414
160.0,0.020266860723495483
176.0,0.019689328968524933
192.0,0.01808289997279644
208.0,0.01548642199486494
224.0,0.01282514538615942
240.0,0.011226754635572433
256.0,0.009621636010706425
288.0,0.007253455463796854
320.0,0.004653925076127052
352.0,0.0008438915829174221
384.0,-0.002578380983322859
416.0,-0.0038131168112158775
448.0,-0.00547206774353981
480.0,-0.007019175682216883
512.0,-0.01034080795943737
576.0,-0.012935892678797245
640.0,-0.011730724014341831
704.0,-0.0118029760196805
768.0,-0.011394504457712173
832.0,-0.006485614459961653
896.0,-0.002170854713767767
960.0,-0.00468594953417778
1024.0,0.0014895893400534987
1152.0,0.0050214193761348724
1280.0,0.0018812651978805661
1408.0,-0.0017641923623159528
1536.0,-0.005539949517697096
1664.0,-0.0058659459464251995
1792.0,0.00013000571925658733
1920.0,0.004184328950941563
2048.0,0.0012401074636727571
2304.0,-0.005703171249479055
2560.0,-0.0038822477217763662
2816.0,4.371379327494651e-05
3072.0,0.00034908822271972895
3328.0,-0.006359226070344448
3584.0,-0.006647507194429636
3840.0,0.0035406756214797497
4096.0,0.003859732998535037
4608.0,-0.00420955428853631
5120.0,0.0016579853836447
5632.0,0.009068919345736504
6144.0,0.003975147381424904
6656.0,0.0014808819396421313
7168.0,-0.0050370660610497
7680.0,-0.00952857919037342
8192.0,0.008372273296117783
end
