version,3.0
numOfCh,1
type,point
parent_name,484af_0dot2-0dot1
ch_type,1_1
kcount,1
numberNandB,1
brightnessNandB,1
carpet pos,0
pc,0
Time (ms),CH1 Auto-Correlation
1.0,0.06900414079427719
2.0,0.06774399429559708
3.0,0.06653747707605362
4.0,0.06542310863733292
5.0,0.06430535018444061
6.0,0.06322742253541946
7.0,0.06219886243343353
8.0,0.06116190925240517
9.0,0.06020547077059746
10.0,0.05927302688360214
11.0,0.058415487408638
12.0,0.0576045885682106
13.0,0.05684351548552513
14.0,0.05608052760362625
15.0,0.055344440042972565
16.0,0.054608304053545
18.0,0.05322073772549629
20.0,0.05198553577065468
22.0,0.050900399684906006
24.0,0.04984801635146141
26.0,0.048838045448064804
28.0,0.04790026694536209
30.0,0.04702029749751091
32.0,0.04619775339961052
36.0,0.044647637754678726
40.0,0.04319431260228157
44.0,0.04187086597084999
48.0,0.04043043777346611
52.0,0.03894058242440224
56.0,0.03753473237156868
60.0,0.03616679459810257
64.0,0.03483896702528
72.0,0.03236724063754082
80.0,0.029773984104394913
88.0,0.027145296335220337
96.0,0.025281855836510658
104.0,0.024371160194277763
112.0,0.023574983701109886
120.0,0.02245284430682659
128.0,0.021453117951750755
144.0,0.020116249099373817
160.0,0.01836809515953064
176.0,0.015290294773876667
192.0,0.012772656045854092
208.0,0.011056763119995594
224.0,0.009688468649983406
240.0,0.008473863825201988
256.0,0.007967331446707249
288.0,0.006384286098182201
320.0,0.005569217260926962
352.0,0.005231010261923075
384.0,0.005376613698899746
416.0,0.005292827729135752
448.0,0.005930155515670776
480.0,0.0054684774950146675
512.0,0.00408954918384552
576.0,-1.6255418813670985e-05
640.0,-0.003990554716438055
704.0,-0.005153223872184753
768.0,-0.006164103280752897
832.0,-0.008330201730132103
896.0,-0.004966923501342535
960.0,-0.0023931735195219517
1024.0,-0.003910569474101067
1152.0,-0.008337876759469509
1280.0,-0.0008767406106926501
1408.0,0.003175891935825348
1536.0,0.006073734723031521
1664.0,0.007781278807669878
1792.0,0.003290922846645117
1920.0,-0.002193554537370801
2048.0,0.00491121644154191
2304.0,0.0043275849893689156
2560.0,0.0008748482796363533
2816.0,-0.001720542786642909
3072.0,-0.004919306840747595
3328.0,-0.004870507400482893
3584.0,-0.0027001830749213696
3840.0,0.006832275073975325
4096.0,0.003983520437031984
4608.0,-0.002317939419299364
5120.0,-0.007228374481201172
5632.0,-0.0006165021914057434
6144.0,0.0003602636279538274
6656.0,-0.004320960491895676
7168.0,-0.0057557206600904465
7680.0,0.002393173286691308
8192.0,-0.00022340317082125694
end
