version,3.0
numOfCh,1
type,point
parent_name,484af_0dot2-0dot1
ch_type,1_1
kcount,1
numberNandB,1
brightnessNandB,1
carpet pos,0
pc,0
Time (ms),CH1 Auto-Correlation
1.0,0.07542997598648071
2.0,0.07396142184734344
3.0,0.07259080559015274
4.0,0.07128758728504181
5.0,0.07006412744522095
6.0,0.06884332001209259
7.0,0.06768901646137238
8.0,0.06657756119966507
9.0,0.06553690880537033
10.0,0.06456375122070312
11.0,0.06358087062835693
12.0,0.06268348544836044
13.0,0.061812110245227814
14.0,0.06096573919057846
15.0,0.0601067878305912
16.0,0.05924554541707039
18.0,0.05749053135514259
20.0,0.055747367441654205
22.0,0.054180584847927094
24.0,0.05273120850324631
26.0,0.05136221647262573
28.0,0.05014375224709511
30.0,0.048856351524591446
32.0,0.047527212649583817
36.0,0.04507577046751976
40.0,0.04270756617188454
44.0,0.04049305245280266
48.0,0.03861555457115173
52.0,0.03695383667945862
56.0,0.03539452329277992
60.0,0.033907197415828705
64.0,0.032145168632268906
72.0,0.028850343078374863
80.0,0.025815920904278755
88.0,0.023266956210136414
96.0,0.021133465692400932
104.0,0.019447052851319313
112.0,0.018388766795396805
120.0,0.017184752970933914
128.0,0.015961211174726486
144.0,0.013095073401927948
160.0,0.011010103859007359
176.0,0.00978298019617796
192.0,0.009075545705854893
208.0,0.008275465108454227
224.0,0.007205922622233629
240.0,0.00531487911939621
256.0,0.0032843693625181913
288.0,0.001076297601684928
320.0,0.0012386642629280686
352.0,0.0028399985749274492
384.0,0.0020657696295529604
416.0,0.003089453326538205
448.0,0.003477242775261402
480.0,0.0008388706482946873
512.0,-0.0018500967416912317
576.0,-0.0007668269681744277
640.0,-0.0011904813582077622
704.0,-0.003387123579159379
768.0,-0.0023970247711986303
832.0,-4.7025805542944e-05
896.0,0.0004518366768024862
960.0,0.0015194287989288568
1024.0,0.0005361803923733532
1152.0,0.0024456686805933714
1280.0,0.006629871670156717
1408.0,0.007913660258054733
1536.0,0.002529044868424535
1664.0,-0.001301890122704208
1792.0,-0.0036455225199460983
1920.0,0.002713962225243449
2048.0,0.004717041272670031
2304.0,0.007797167636454105
2560.0,-0.00011764033115468919
2816.0,-0.004529120400547981
3072.0,-0.004377509001642466
3328.0,-0.002249916084110737
3584.0,-0.005453409627079964
3840.0,-0.007529210299253464
4096.0,-0.0020307889208197594
4608.0,-0.003255727468058467
5120.0,-0.012132111005485058
5632.0,-0.0027291025035083294
6144.0,8.162274752976373e-05
6656.0,0.0003721756802406162
7168.0,-0.0005592822562903166
7680.0,-0.006691580172628164
8192.0,0.006503782235085964
end
