version,3.0
numOfCh,1
type,point
parent_name,484af_0dot2-0dot1
ch_type,1_1
kcount,1
numberNandB,1
brightnessNandB,1
carpet pos,0
pc,0
Time (ms),CH1 Auto-Correlation
1.0,0.06378098577260971
2.0,0.062420520931482315
3.0,0.061120614409446716
4.0,0.0598876066505909
5.0,0.058771345764398575
6.0,0.05766381695866585
7.0,0.05664946138858795
8.0,0.055691197514534
9.0,0.054764509201049805
10.0,0.05388396233320236
11.0,0.053011342883110046
12.0,0.0521477609872818
13.0,0.051288917660713196
14.0,0.050435297191143036
15.0,0.049624405801296234
16.0,0.04885024577379227
18.0,0.047343429177999496
20.0,0.046055905520915985
22.0,0.04478033632040024
24.0,0.04350663721561432
26.0,0.042315397411584854
28.0,0.04115797206759453
30.0,0.04004306718707085
32.0,0.03902755677700043
36.0,0.037181027233600616
40.0,0.03553646802902222
44.0,0.03412531688809395
48.0,0.032833077013492584
52.0,0.03157494589686394
56.0,0.03036404959857464
60.0,0.029108786955475807
64.0,0.027829742059111595
72.0,0.025112127885222435
80.0,0.02243911474943161
88.0,0.020705336704850197
96.0,0.01984604448080063
104.0,0.01898633874952793
112.0,0.017922833561897278
120.0,0.016611598432064056
128.0,0.015044166706502438
144.0,0.01284006703644991
160.0,0.010937117971479893
176.0,0.008743264712393284
192.0,0.006383608095347881
208.0,0.005293905735015869
224.0,0.004643827211111784
240.0,0.0038932589814066887
256.0,0.0031742986757308245
288.0,0.0025898662861436605
320.0,0.002508708508685231
352.0,0.0015406337333843112
384.0,-7.5196626312390435e-06
416.0,-0.00025530450511723757
448.0,0.0015355348587036133
480.0,0.0027993209660053253
512.0,0.001605876488611102
576.0,-0.002580967964604497
640.0,-0.004196455702185631
704.0,-0.0016055547166615725
768.0,-0.0001831606205087155
832.0,-0.0017183038871735334
896.0,-0.0023508581798523664
960.0,-0.000337002711603418
1024.0,0.0005745796370320022
1152.0,-0.004209171514958143
1280.0,-0.0034255292266607285
1408.0,-0.003300380427390337
1536.0,-0.0010419826721772552
1664.0,-0.005376946646720171
1792.0,-0.0003727122093550861
1920.0,-0.002346581546589732
2048.0,-0.004090558271855116
2304.0,-0.0009304350824095309
2560.0,0.003049786202609539
2816.0,-0.003458369057625532
3072.0,-0.008989565074443817
3328.0,-0.000822170521132648
3584.0,0.0012720093363896012
3840.0,-0.004335272591561079
4096.0,-0.005999567918479443
4608.0,0.0034832730889320374
5120.0,0.003631168743595481
5632.0,-0.0017306972295045853
6144.0,-0.0016115729231387377
6656.0,0.0020926769357174635
7168.0,0.0028624064289033413
7680.0,0.00392814539372921
8192.0,-0.0028298429679125547
end
