version,3.0
numOfCh,1
type,point
parent_name,484af_0dot2-0dot1
ch_type,1_1
kcount,1
numberNandB,1
brightnessNandB,1
carpet pos,0
pc,0
Time (ms),CH1 Auto-Correlation
1.0,0.06233946233987808
2.0,0.060920942574739456
3.0,0.05961104482412338
4.0,0.05838485807180405
5.0,0.05720304697751999
6.0,0.05605760216712952
7.0,0.05495535582304001
8.0,0.053883954882621765
9.0,0.05291352421045303
10.0,0.051978349685668945
11.0,0.05113940313458443
12.0,0.05029306560754776
13.0,0.04947526380419731
14.0,0.0486120879650116
15.0,0.047776658087968826
16.0,0.04695925861597061
18.0,0.045377060770988464
20.0,0.04381066560745239
22.0,0.04225601255893707
24.0,0.04077364504337311
26.0,0.039336781948804855
28.0,0.03793426975607872
30.0,0.03663885220885277
32.0,0.03532927855849266
36.0,0.03316431865096092
40.0,0.031203312799334526
44.0,0.029267115518450737
48.0,0.027699163183569908
52.0,0.026324370875954628
56.0,0.02528110146522522
60.0,0.024480143561959267
64.0,0.02361033484339714
72.0,0.021837551146745682
80.0,0.02035597339272499
88.0,0.018915707245469093
96.0,0.01740046963095665
104.0,0.016082044690847397
112.0,0.01473646704107523
120.0,0.013689354062080383
128.0,0.012921673245728016
144.0,0.011909843422472477
160.0,0.010262384079396725
176.0,0.008580226451158524
192.0,0.007100206799805164
208.0,0.0061290571466088295
224.0,0.004899775609374046
240.0,0.0036919426638633013
256.0,0.0027828244492411613
288.0,0.0006495315465144813
320.0,-0.0006724480190314353
352.0,-0.001416437211446464
384.0,-0.001783922198228538
416.0,-0.004090397153049707
448.0,-0.003826595377177
480.0,-0.0033608251251280308
512.0,-0.004968602210283279
576.0,-0.0047393180429935455
640.0,-0.00348643702454865
704.0,1.6025143850129098e-05
768.0,0.002235851716250181
832.0,-0.00027017408865503967
896.0,-0.0034134560264647007
960.0,-0.0037404438480734825
1024.0,-0.005396916531026363
1152.0,-0.0032208890188485384
1280.0,-0.005686854477971792
1408.0,-0.0057573476806283
1536.0,-0.00039875382208265364
1664.0,0.004243042785674334
1792.0,0.00250455760397017
1920.0,0.003320526098832488
2048.0,0.0006349401664920151
2304.0,-0.002576443599537015
2560.0,-0.002088662702590227
2816.0,-0.001096204505302012
3072.0,-0.004201742820441723
3328.0,-0.0004137971845921129
3584.0,0.0012655078899115324
3840.0,1.599037932464853e-05
4096.0,0.000562157656531781
4608.0,0.0013091934379190207
5120.0,0.00603108387440443
5632.0,-0.0005299603217281401
6144.0,-0.009213777258992195
6656.0,-0.005371451377868652
7168.0,0.003079088870435953
7680.0,0.0005464580026455224
8192.0,-0.008011247962713242
end
