version,3.0
numOfCh,1
type,point
parent_name,484af_0dot2-0dot1
ch_type,1_1
kcount,1
numberNandB,1
brightnessNandB,1
carpet pos,0
pc,0
Time (ms),CH1 Auto-Correlation
1.0,0.07008406519889832
2.0,0.0686708614230156
3.0,0.0673270970582962
4.0,0.06599978357553482
5.0,0.0647299587726593
6.0,0.06349046528339386
7.0,0.06234169006347656
8.0,0.06127942353487015
9.0,0.06028163805603981
10.0,0.05934350937604904
11.0,0.05844518914818764
12.0,0.057583216577768326
13.0,0.056770797818899155
14.0,0.05594182759523392
15.0,0.05511109530925751
16.0,0.05430254340171814
18.0,0.05273326858878136
20.0,0.05115287005901337
22.0,0.04974740743637085
24.0,0.04851050302386284
26.0,0.0472952201962471
28.0,0.046144530177116394
30.0,0.044960927218198776
32.0,0.043809764087200165
36.0,0.04145058989524841
40.0,0.038903482258319855
44.0,0.03649304807186127
48.0,0.03449587523937225
52.0,0.03260626643896103
56.0,0.030942624434828758
60.0,0.029585089534521103
64.0,0.028274856507778168
72.0,0.02550894021987915
80.0,0.023082857951521873
88.0,0.020659683272242546
96.0,0.018874306231737137
104.0,0.017105890437960625
112.0,0.01593930460512638
120.0,0.015167281031608582
128.0,0.014905099757015705
144.0,0.015023724175989628
160.0,0.014661451801657677
176.0,0.014242972247302532
192.0,0.014643904753029346
208.0,0.014473400078713894
224.0,0.01434273924678564
240.0,0.013734385371208191
256.0,0.012723428197205067
288.0,0.011103578843176365
320.0,0.008999277837574482
352.0,0.007969646714627743
384.0,0.007074650842696428
416.0,0.006207723636180162
448.0,0.007050125859677792
480.0,0.008402648381888866
512.0,0.009431153535842896
576.0,0.006542427930980921
640.0,0.004534336272627115
704.0,0.004416244104504585
768.0,0.010147934779524803
832.0,0.006768613122403622
896.0,0.005210340954363346
960.0,0.009259290061891079
1024.0,0.014853355474770069
1152.0,0.015519244596362114
1280.0,0.011423706077039242
1408.0,0.007950926199555397
1536.0,0.00205543776974082
1664.0,0.008384567685425282
1792.0,0.008869700133800507
1920.0,0.009538927115499973
2048.0,0.001945314696058631
2304.0,0.003760709660127759
2560.0,-0.0014966096496209502
2816.0,-0.0004376973956823349
3072.0,-0.0013501138892024755
3328.0,-0.0008765397360548377
3584.0,-0.008122672326862812
3840.0,-0.00604280736297369
4096.0,-0.00796491652727127
4608.0,-0.012049551121890545
5120.0,-0.009650922380387783
5632.0,-0.010412800125777721
6144.0,-0.009632512927055359
6656.0,-0.0068578231148421764
7168.0,0.0011523576686158776
7680.0,-0.012770237401127815
8192.0,0.0032551244366914034
end
