version,3.0
numOfCh,1
type,point
parent_name,484af_0dot2-0dot1
ch_type,1_1
kcount,1
numberNandB,1
brightnessNandB,1
carpet pos,0
pc,0
Time (ms),CH1 Auto-Correlation
1.0,0.07014316320419312
2.0,0.06878922134637833
3.0,0.06746361404657364
4.0,0.0662338063120842
5.0,0.06505773216485977
6.0,0.06390854716300964
7.0,0.06279817968606949
8.0,0.06168574094772339
9.0,0.06063692644238472
10.0,0.0595882385969162
11.0,0.05857737734913826
12.0,0.05759909376502037
13.0,0.05665811523795128
14.0,0.055724360048770905
15.0,0.05483831465244293
16.0,0.05397944897413254
18.0,0.052371393889188766
20.0,0.05091871693730354
22.0,0.04955785721540451
24.0,0.04820960387587547
26.0,0.04688666760921478
28.0,0.04555736482143402
30.0,0.044291578233242035
32.0,0.0430498830974102
36.0,0.04067607596516609
40.0,0.03859220817685127
44.0,0.03684290871024132
48.0,0.03564365953207016
52.0,0.034645579755306244
56.0,0.03351433575153351
60.0,0.032299138605594635
64.0,0.03104945458471775
72.0,0.029116515070199966
80.0,0.02684212103486061
88.0,0.024659737944602966
96.0,0.022904686629772186
104.0,0.022331368178129196
112.0,0.02190851978957653
120.0,0.02116374857723713
128.0,0.020493268966674805
144.0,0.017926936969161034
160.0,0.015648478642106056
176.0,0.014409104362130165
192.0,0.014215043745934963
208.0,0.013619192875921726
224.0,0.012283269315958023
240.0,0.009813309647142887
256.0,0.008343087509274483
288.0,0.005854643415659666
320.0,0.004676091950386763
352.0,0.0076755047775805
384.0,0.00996679812669754
416.0,0.010978130623698235
448.0,0.011281107552349567
480.0,0.011471515521407127
512.0,0.010078789666295052
576.0,0.007788506336510181
640.0,0.003970984369516373
704.0,0.002005744958296418
768.0,0.004131420981138945
832.0,0.005547007545828819
896.0,0.004749808926135302
960.0,0.005054660141468048
1024.0,0.002836009953171015
1152.0,-0.001293501234613359
1280.0,0.0020521197002381086
1408.0,0.0024624699726700783
1536.0,-0.0017214217223227024
1664.0,-0.005479446146637201
1792.0,-0.003933581057935953
1920.0,-0.0020860806107521057
2048.0,-0.006039655301719904
2304.0,-0.013257140293717384
2560.0,-0.006427413783967495
2816.0,0.0008549311896786094
3072.0,0.0011400928488001227
3328.0,-0.001977557083591819
3584.0,-0.004353898577392101
3840.0,-0.0014024532865732908
4096.0,0.007615258917212486
4608.0,0.003572839545086026
5120.0,-0.001729333191178739
5632.0,0.0009842801373451948
6144.0,0.0016295051900669932
6656.0,-0.004626416601240635
7168.0,0.0011797670740634203
7680.0,-0.006838848348706961
8192.0,-0.006308723706752062
end
