version,3.0
numOfCh,1
type,point
parent_name,484af_0dot2-0dot1
ch_type,1_1
kcount,1
numberNandB,1
brightnessNandB,1
carpet pos,0
pc,0
Time (ms),CH1 Auto-Correlation
1.0,0.08029089123010635
2.0,0.07907432317733765
3.0,0.07793211936950684
4.0,0.0768454521894455
5.0,0.07580248266458511
6.0,0.07478147745132446
7.0,0.07381460070610046
8.0,0.07292460650205612
9.0,0.07205167412757874
10.0,0.0711808130145073
11.0,0.07036139070987701
12.0,0.06953244656324387
13.0,0.06873906403779984
14.0,0.06793855130672455
15.0,0.0671660378575325
16.0,0.06644023209810257
18.0,0.06505413353443146
20.0,0.06375828385353088
22.0,0.06251829117536545
24.0,0.0614001639187336
26.0,0.06038461998105049
28.0,0.05942099168896675
30.0,0.058479949831962585
32.0,0.05750838294625282
36.0,0.055679649114608765
40.0,0.05396449565887451
44.0,0.052451133728027344
48.0,0.05114033818244934
52.0,0.049718230962753296
56.0,0.048335496336221695
60.0,0.0468965619802475
64.0,0.04562634974718094
72.0,0.04315917193889618
80.0,0.04147244617342949
88.0,0.04036181420087814
96.0,0.03928849846124649
104.0,0.03785166144371033
112.0,0.036709368228912354
120.0,0.03552137315273285
128.0,0.034537896513938904
144.0,0.032750453799963
160.0,0.03033420443534851
176.0,0.028466258198022842
192.0,0.027370067313313484
208.0,0.026995867490768433
224.0,0.025927817448973656
240.0,0.024665290489792824
256.0,0.02400813437998295
288.0,0.023049846291542053
320.0,0.021744897589087486
352.0,0.018710104748606682
384.0,0.017293095588684082
416.0,0.01944083347916603
448.0,0.021596603095531464
480.0,0.02372870221734047
512.0,0.022661330178380013
576.0,0.020070141181349754
640.0,0.020706506446003914
704.0,0.020020270720124245
768.0,0.01859043724834919
832.0,0.015850916504859924
896.0,0.012408693321049213
960.0,0.010328453965485096
1024.0,0.009326005354523659
1152.0,0.010618110187351704
1280.0,0.01522947195917368
1408.0,0.014158539474010468
1536.0,0.012561345472931862
1664.0,0.011039425618946552
1792.0,0.012910340912640095
1920.0,0.013304853811860085
2048.0,0.013336353935301304
2304.0,0.0071034664288163185
2560.0,0.002264884300529957
2816.0,-0.0003669837024062872
3072.0,-0.0036435932852327824
3328.0,-0.003812375944107771
3584.0,-0.005183858331292868
3840.0,-0.0056747631169855595
4096.0,-0.008683234453201294
4608.0,-0.014786029234528542
5120.0,-0.01809089072048664
5632.0,-0.012903994880616665
6144.0,-0.014046254567801952
6656.0,-0.015776604413986206
7168.0,-0.013692695647478104
7680.0,-0.0027816761285066605
8192.0,0.0005181796732358634
end
