version,3.0
numOfCh,1
type,point
parent_name,484af_0dot2-0dot1
ch_type,1_1
kcount,1
numberNandB,1
brightnessNandB,1
carpet pos,0
pc,0
Time (ms),CH1 Auto-Correlation
1.0,0.09789560735225677
2.0,0.09614161401987076
3.0,0.09459158033132553
4.0,0.09328842908143997
5.0,0.09222184866666794
6.0,0.09118983149528503
7.0,0.09023354947566986
8.0,0.08925078064203262
9.0,0.08812569081783295
10.0,0.08696823567152023
11.0,0.08583158254623413
12.0,0.08476174622774124
13.0,0.08378071337938309
14.0,0.08285575360059738
15.0,0.08201699703931808
16.0,0.08123058825731277
18.0,0.07928331196308136
20.0,0.07714362442493439
22.0,0.0757315531373024
24.0,0.0744258239865303
26.0,0.07312806695699692
28.0,0.07196919620037079
30.0,0.07085885852575302
32.0,0.06975050270557404
36.0,0.06766942143440247
40.0,0.06549303233623505
44.0,0.06334353238344193
48.0,0.06115356460213661
52.0,0.05914393439888954
56.0,0.057632770389318466
60.0,0.05669689550995827
64.0,0.05640023574233055
72.0,0.05612122640013695
80.0,0.05548878014087677
88.0,0.054145775735378265
96.0,0.052438415586948395
104.0,0.05068157613277435
112.0,0.049186017364263535
120.0,0.047633297741413116
128.0,0.046161290258169174
144.0,0.044520385563373566
160.0,0.042885005474090576
176.0,0.041634246706962585
192.0,0.040474675595760345
208.0,0.03912190720438957
224.0,0.03677866607904434
240.0,0.03509259596467018
256.0,0.03495056927204132
288.0,0.037239763885736465
320.0,0.037536848336458206
352.0,0.03621964156627655
384.0,0.033979956060647964
416.0,0.0330352745950222
448.0,0.03473267704248428
480.0,0.03579099848866463
512.0,0.03620595484972
576.0,0.04079487919807434
640.0,0.03888203948736191
704.0,0.03242355212569237
768.0,0.02855144441127777
832.0,0.027157381176948547
896.0,0.025127939879894257
960.0,0.028032230213284492
1024.0,0.028507433831691742
1152.0,0.02788371779024601
1280.0,0.02583460509777069
1408.0,0.026755210012197495
1536.0,0.02734360471367836
1664.0,0.02866685949265957
1792.0,0.025938792154192924
1920.0,0.02514640986919403
2048.0,0.025983409956097603
2304.0,0.01726604998111725
2560.0,0.019052309915423393
2816.0,0.00762215256690979
3072.0,0.008650039322674274
3328.0,0.0007482730434276164
3584.0,-0.001658421941101551
3840.0,-0.012042796239256859
4096.0,-0.0101502425968647
4608.0,-0.019014904275536537
5120.0,-0.028185253962874413
5632.0,-0.03330085426568985
6144.0,-0.028899041935801506
6656.0,-0.023176409304142
7168.0,-0.025299157947301865
7680.0,-0.031072964891791344
8192.0,-0.02419034019112587
end
