version,3.0
numOfCh,1
type,point
parent_name,484af_0dot2-0dot1
ch_type,1_1
kcount,1
numberNandB,1
brightnessNandB,1
carpet pos,0
pc,0
Time (ms),CH1 Auto-Correlation
1.0,0.06656983494758606
2.0,0.06518171727657318
3.0,0.06390267610549927
4.0,0.06267384439706802
5.0,0.061468251049518585
6.0,0.06030319631099701
7.0,0.059119582176208496
8.0,0.05797315016388893
9.0,0.056891873478889465
10.0,0.05584719404578209
11.0,0.05478197708725929
12.0,0.053790584206581116
13.0,0.05283426493406296
14.0,0.0519225038588047
15.0,0.05106228590011597
16.0,0.05025710538029671
18.0,0.048697758466005325
20.0,0.047175876796245575
22.0,0.04574289917945862
24.0,0.04442417994141579
26.0,0.04318651184439659
28.0,0.041951585561037064
30.0,0.04077237844467163
32.0,0.03958277776837349
36.0,0.037315450608730316
40.0,0.03516479581594467
44.0,0.03315750136971474
48.0,0.031158704310655594
52.0,0.029332902282476425
56.0,0.027835913002490997
60.0,0.02658202312886715
64.0,0.02530951052904129
72.0,0.02298543229699135
80.0,0.021373560652136803
88.0,0.02027679607272148
96.0,0.019208816811442375
104.0,0.018433813005685806
112.0,0.017102299258112907
120.0,0.015936175361275673
128.0,0.015070880763232708
144.0,0.014342895708978176
160.0,0.013510805554687977
176.0,0.013312753289937973
192.0,0.01243501529097557
208.0,0.01111968420445919
224.0,0.009510360658168793
240.0,0.007510821800678968
256.0,0.005738318432122469
288.0,0.00268194661475718
320.0,-0.0013966892147436738
352.0,-0.0031656890641897917
384.0,-0.004439922980964184
416.0,-0.005584816448390484
448.0,-0.004632236436009407
480.0,-0.0038987668231129646
512.0,-0.004877934698015451
576.0,-0.0037640314549207687
640.0,-0.0024427701719105244
704.0,-0.0006094772834330797
768.0,0.0017074128845706582
832.0,0.0018883735174313188
896.0,0.005278445780277252
960.0,0.005462246015667915
1024.0,0.003216652199625969
1152.0,0.0005599314463324845
1280.0,-0.004883171524852514
1408.0,-0.0046106367371976376
1536.0,-0.001091936370357871
1664.0,-6.987511005718261e-05
1792.0,-0.0012519971933215857
1920.0,-0.0074361227452754974
2048.0,-0.003445496316999197
2304.0,0.004324631299823523
2560.0,-0.003188192844390869
2816.0,-0.007973723113536835
3072.0,-0.0024045584723353386
3328.0,-0.0011654346017166972
3584.0,-0.008586497977375984
3840.0,-0.005540421232581139
4096.0,0.001999103697016835
4608.0,0.0032408854458481073
5120.0,-0.0060748141258955
5632.0,-0.0005671785329468548
6144.0,-0.0024576985742896795
6656.0,0.0062548816204071045
7168.0,0.0045776767656207085
7680.0,0.0010596076026558876
8192.0,0.006164006423205137
end
