version,3.0
numOfCh,1
type,point
parent_name,484af_0dot2-0dot1
ch_type,1_1
kcount,1
numberNandB,1
brightnessNandB,1
carpet pos,0
pc,0
Time (ms),CH1 Auto-Correlation
1.0,0.06887176632881165
2.0,0.06754195690155029
3.0,0.06626253575086594
4.0,0.06500297784805298
5.0,0.0637449398636818
6.0,0.06251890957355499
7.0,0.0613289400935173
8.0,0.060140594840049744
9.0,0.05895600467920303
10.0,0.05784432590007782
11.0,0.05676839500665665
12.0,0.05573135241866112
13.0,0.05476440489292145
14.0,0.053781647235155106
15.0,0.05287976190447807
16.0,0.05202977731823921
18.0,0.0502953827381134
20.0,0.04875491186976433
22.0,0.04743172973394394
24.0,0.046181466430425644
26.0,0.04505698010325432
28.0,0.04392724856734276
30.0,0.0428520143032074
32.0,0.04185641184449196
36.0,0.03964628279209137
40.0,0.03769296407699585
44.0,0.03606722876429558
48.0,0.03444869443774223
52.0,0.032776981592178345
56.0,0.031205885112285614
60.0,0.029755834490060806
64.0,0.028409700840711594
72.0,0.026143888011574745
80.0,0.02416178770363331
88.0,0.022017469629645348
96.0,0.020532891154289246
104.0,0.019113028421998024
112.0,0.01760365255177021
120.0,0.016024969518184662
128.0,0.014926043339073658
144.0,0.013259025290608406
160.0,0.012413850985467434
176.0,0.013783921487629414
192.0,0.014454622752964497
208.0,0.014635834842920303
224.0,0.01477435790002346
240.0,0.014576674439013004
256.0,0.013114212080836296
288.0,0.010633144527673721
320.0,0.00896600540727377
352.0,0.005164650734513998
384.0,0.001918043359182775
416.0,-0.0005421476089395583
448.0,0.00027790217427536845
480.0,0.00015949888620525599
512.0,0.00013431590923573822
576.0,0.001684304908849299
640.0,-0.0007072765147313476
704.0,-0.0044363755732774734
768.0,-0.002804383635520935
832.0,0.0018490469083189964
896.0,-0.00122038961853832
960.0,-0.004845958203077316
1024.0,-0.002677640412002802
1152.0,-0.004078654106706381
1280.0,0.00038034230237826705
1408.0,-0.0036865868605673313
1536.0,-0.00012552094995044172
1664.0,6.523525371449068e-05
1792.0,-0.0007822260376997292
1920.0,0.00555462809279561
2048.0,-1.1900061508640647e-05
2304.0,0.00381712825037539
2560.0,-0.00246300152502954
2816.0,-0.007924041710793972
3072.0,-0.01691463217139244
3328.0,-0.006961670238524675
3584.0,0.0005829691654071212
3840.0,-0.00551281962543726
4096.0,-0.0029388500843197107
4608.0,-0.002128907945007086
5120.0,-0.003925389610230923
5632.0,0.0025373685639351606
6144.0,0.0037962710484862328
6656.0,0.00058417534455657
7168.0,-0.0003554633294697851
7680.0,0.005217547528445721
8192.0,0.006407305132597685
end
