version,3.0
numOfCh,1
type,point
parent_name,484af_0dot2-0dot1
ch_type,1_1
kcount,1
numberNandB,1
brightnessNandB,1
carpet pos,0
pc,0
Time (ms),CH1 Auto-Correlation
1.0,0.05752022936940193
2.0,0.05634215101599693
3.0,0.05521786957979202
4.0,0.054188020527362823
5.0,0.053187884390354156
6.0,0.052210889756679535
7.0,0.051301464438438416
8.0,0.05045706778764725
9.0,0.04967118799686432
10.0,0.04891464486718178
11.0,0.04814795404672623
12.0,0.04740379378199577
13.0,0.04669610783457756
14.0,0.04603105038404465
15.0,0.045425787568092346
16.0,0.04482687637209892
18.0,0.043701592832803726
20.0,0.04260319098830223
22.0,0.041529424488544464
24.0,0.040477603673934937
26.0,0.039537739008665085
28.0,0.038637835532426834
30.0,0.03778460621833801
32.0,0.0368872731924057
36.0,0.035369016230106354
40.0,0.03407087177038193
44.0,0.03280499204993248
48.0,0.031702518463134766
52.0,0.030659794807434082
56.0,0.02961229905486107
60.0,0.028455540537834167
64.0,0.027348430827260017
72.0,0.02529371902346611
80.0,0.02337932400405407
88.0,0.021980907768011093
96.0,0.0208862517029047
104.0,0.020344819873571396
112.0,0.02039751410484314
120.0,0.020756764337420464
128.0,0.020902810618281364
144.0,0.020177042111754417
160.0,0.018925050273537636
176.0,0.018027067184448242
192.0,0.01741890422999859
208.0,0.016841787844896317
224.0,0.014813561923801899
240.0,0.013076459988951683
256.0,0.012295360676944256
288.0,0.01074117049574852
320.0,0.01075982116162777
352.0,0.011586664244532585
384.0,0.011449724435806274
416.0,0.010232171043753624
448.0,0.008083240129053593
480.0,0.005743746180087328
512.0,0.0042538121342659
576.0,0.001456385594792664
640.0,-2.782588308036793e-05
704.0,0.0012399214319884777
768.0,0.0015966501086950302
832.0,0.0008940908592194319
896.0,0.0011841778177767992
960.0,0.002377693075686693
1024.0,0.003941500559449196
1152.0,0.002887377282604575
1280.0,0.0031893900595605373
1408.0,0.004257685039192438
1536.0,0.0012250245781615376
1664.0,0.002543842885643244
1792.0,0.004389313515275717
1920.0,-0.0006206839461810887
2048.0,-0.0016917112516239285
2304.0,-0.0031466525979340076
2560.0,-0.010317251086235046
2816.0,-0.0033010831102728844
3072.0,-0.0028435452841222286
3328.0,-0.0024990560486912727
3584.0,0.0006189846899360418
3840.0,-0.004581225570291281
4096.0,-0.004042045213282108
4608.0,-0.005831641145050526
5120.0,-0.006577324587851763
5632.0,-0.006364136468619108
6144.0,-0.0029250020161271095
6656.0,-0.004576555918902159
7168.0,-0.0006216045003384352
7680.0,0.010177256539463997
8192.0,0.005125823430716991
end
