version,3.0
numOfCh,1
type,point
parent_name,484af_0dot2-0dot1
ch_type,1_1
kcount,1
numberNandB,1
brightnessNandB,1
carpet pos,0
pc,0
Time (ms),CH1 Auto-Correlation
1.0,0.06789077073335648
2.0,0.06658893823623657
3.0,0.06534465402364731
4.0,0.0641397088766098
5.0,0.06298542767763138
6.0,0.06183014065027237
7.0,0.06074182316660881
8.0,0.05968404561281204
9.0,0.05865693837404251
10.0,0.057662371546030045
11.0,0.05671757832169533
12.0,0.05578618124127388
13.0,0.0548904687166214
14.0,0.05401891842484474
15.0,0.05315496772527695
16.0,0.05229390040040016
18.0,0.0507059320807457
20.0,0.04913134500384331
22.0,0.04765842482447624
24.0,0.04633031785488129
26.0,0.045053880661726
28.0,0.04379615560173988
30.0,0.04253044351935387
32.0,0.04126448929309845
36.0,0.038891639560461044
40.0,0.03653182461857796
44.0,0.034509748220443726
48.0,0.032641008496284485
52.0,0.03091680444777012
56.0,0.02932111732661724
60.0,0.02783317118883133
64.0,0.026380928233265877
72.0,0.02392398566007614
80.0,0.02197587862610817
88.0,0.0204283706843853
96.0,0.019215231761336327
104.0,0.01791974902153015
112.0,0.01663818210363388
120.0,0.015489027835428715
128.0,0.014182419516146183
144.0,0.011324391700327396
160.0,0.00971611775457859
176.0,0.00943868886679411
192.0,0.008523997850716114
208.0,0.007661063224077225
224.0,0.006279716733843088
240.0,0.005059080198407173
256.0,0.003555457340553403
288.0,0.0026540549006313086
320.0,0.0022780990693718195
352.0,0.0007765415939502418
384.0,-0.0008417299250140786
416.0,-0.0005974086816422641
448.0,-0.0002617012069094926
480.0,-0.0004359962767921388
512.0,0.00025099061895161867
576.0,-0.00015654870367143303
640.0,-0.0021810256876051426
704.0,-0.002277894178405404
768.0,0.001125721144489944
832.0,0.0038130173925310373
896.0,0.003937770612537861
960.0,-0.0037792385555803776
1024.0,-0.002889354946091771
1152.0,-0.0048929681070148945
1280.0,-0.0013658490497618914
1408.0,-2.046641930064652e-05
1536.0,0.0028487560339272022
1664.0,0.004172599408775568
1792.0,0.006022024899721146
1920.0,0.0048170569352805614
2048.0,0.001195781398564577
2304.0,-0.000994963338598609
2560.0,-0.0005518011166714132
2816.0,-0.003725807648152113
3072.0,-0.004487649537622929
3328.0,0.00044684953172691166
3584.0,-0.002692090580239892
3840.0,-0.006556795444339514
4096.0,-0.0009471175144426525
4608.0,-0.009855372831225395
5120.0,-0.002797318622469902
5632.0,0.005918254144489765
6144.0,0.0008299397304654121
6656.0,-0.004198665730655193
7168.0,0.00020262149337213486
7680.0,-0.00028507696697488427
8192.0,0.005376662593334913
end
