version,3.0
numOfCh,1
type,point
parent_name,484af_0dot2-0dot1
ch_type,1_1
kcount,1
numberNandB,1
brightnessNandB,1
carpet pos,0
pc,0
Time (ms),CH1 Auto-Correlation
1.0,0.06389117985963821
2.0,0.06244799494743347
3.0,0.061119742691516876
4.0,0.059814855456352234
5.0,0.05858400836586952
6.0,0.057403307408094406
7.0,0.05631915107369423
8.0,0.055211350321769714
9.0,0.054169703274965286
10.0,0.053153689950704575
11.0,0.05213861167430878
12.0,0.05113018676638603
13.0,0.05015689879655838
14.0,0.04925834760069847
15.0,0.04836506396532059
16.0,0.04745399206876755
18.0,0.045765385031700134
20.0,0.04426700621843338
22.0,0.04292101413011551
24.0,0.04175807535648346
26.0,0.04067171737551689
28.0,0.03962082788348198
30.0,0.03864352032542229
32.0,0.03769014775753021
36.0,0.03590424731373787
40.0,0.03414955735206604
44.0,0.03271842747926712
48.0,0.0314871184527874
52.0,0.03028370812535286
56.0,0.029168039560317993
60.0,0.02812943048775196
64.0,0.027159258723258972
72.0,0.025216208770871162
80.0,0.02395567297935486
88.0,0.02335232123732567
96.0,0.0226658433675766
104.0,0.021389296278357506
112.0,0.019860239699482918
120.0,0.019149823114275932
128.0,0.018862716853618622
144.0,0.017616229131817818
160.0,0.01598469167947769
176.0,0.014804807491600513
192.0,0.014361434616148472
208.0,0.014302968047559261
224.0,0.014250142499804497
240.0,0.014538101851940155
256.0,0.015139337629079819
288.0,0.013750276528298855
320.0,0.010038621723651886
352.0,0.008383314125239849
384.0,0.005803029518574476
416.0,0.005757343955338001
448.0,0.007114154286682606
480.0,0.006017976440489292
512.0,0.005914641078561544
576.0,0.004867119248956442
640.0,0.004824322182685137
704.0,0.0036906874738633633
768.0,0.0032680253498256207
832.0,0.004784873686730862
896.0,0.008237735368311405
960.0,0.005942434072494507
1024.0,0.004794914275407791
1152.0,0.010167612694203854
1280.0,0.011220081709325314
1408.0,0.013792570680379868
1536.0,0.0076835379004478455
1664.0,0.006050905212759972
1792.0,0.003656679065898061
1920.0,0.0018582579214125872
2048.0,-0.0011804040987044573
2304.0,-0.0001378572196699679
2560.0,0.002154436195269227
2816.0,0.0014487243024632335
3072.0,-0.002194508910179138
3328.0,-0.008253664709627628
3584.0,-0.010190010070800781
3840.0,-0.006852167192846537
4096.0,-0.009268410503864288
4608.0,-0.012180586345493793
5120.0,-0.009791581891477108
5632.0,-0.007090570405125618
6144.0,-0.00686187669634819
6656.0,-0.008566473610699177
7168.0,-0.0023584121372550726
7680.0,0.0019905271474272013
8192.0,0.003681084606796503
end
