version,3.0
numOfCh,1
type,point
parent_name,484af_0dot2-0dot1
ch_type,1_1
kcount,1
numberNandB,1
brightnessNandB,1
carpet pos,0
pc,0
Time (ms),CH1 Auto-Correlation
1.0,0.06923501193523407
2.0,0.06758901476860046
3.0,0.06607323884963989
4.0,0.06467311084270477
5.0,0.06334299594163895
6.0,0.06202642619609833
7.0,0.060783836990594864
8.0,0.0595877505838871
9.0,0.05844720080494881
10.0,0.0572962649166584
11.0,0.05622126907110214
12.0,0.05520503595471382
13.0,0.054294243454933167
14.0,0.053313594311475754
15.0,0.05241914093494415
16.0,0.05158410221338272
18.0,0.0498981736600399
20.0,0.04826338589191437
22.0,0.046743184328079224
24.0,0.04535624757409096
26.0,0.044030457735061646
28.0,0.04272213578224182
30.0,0.04137597605586052
32.0,0.04021301493048668
36.0,0.038266267627477646
40.0,0.036500245332717896
44.0,0.03462317958474159
48.0,0.03276320546865463
52.0,0.030765797942876816
56.0,0.028897810727357864
60.0,0.027100762352347374
64.0,0.02558750845491886
72.0,0.022226402536034584
80.0,0.019082900136709213
88.0,0.016066476702690125
96.0,0.013356202282011509
104.0,0.011267077177762985
112.0,0.010447480715811253
120.0,0.009600074030458927
128.0,0.008260454051196575
144.0,0.005102742463350296
160.0,0.0033404335845261812
176.0,0.0033671215642243624
192.0,0.0032693438697606325
208.0,0.003309807740151882
224.0,0.0035218356642872095
240.0,0.0044994056224823
256.0,0.00464102067053318
288.0,0.002967807464301586
320.0,0.0033252337016165257
352.0,0.002001675544306636
384.0,0.0019420088501647115
416.0,0.003945775330066681
448.0,0.004814877174794674
480.0,0.008549061603844166
512.0,0.009288972243666649
576.0,0.006294183433055878
640.0,0.004729086067527533
704.0,-0.002246388467028737
768.0,-0.0059490203857421875
832.0,-0.004981864709407091
896.0,-0.005030892323702574
960.0,-0.004292700905352831
1024.0,-0.004624072927981615
1152.0,-0.0054390584118664265
1280.0,-0.004672663751989603
1408.0,-0.0040879822336137295
1536.0,-0.006697180215269327
1664.0,-0.00898685958236456
1792.0,-0.011122443713247776
1920.0,-0.011887277476489544
2048.0,-0.0037095400039106607
2304.0,-0.00345235294662416
2560.0,0.0013097883202135563
2816.0,0.007703854702413082
3072.0,0.005417325999587774
3328.0,0.004400606267154217
3584.0,0.004022323992103338
3840.0,-0.002399683464318514
4096.0,0.001353886560536921
4608.0,-0.006187968887388706
5120.0,-0.003169207600876689
5632.0,0.0030990017112344503
6144.0,0.0026229878421872854
6656.0,0.004305766895413399
7168.0,0.0015322215622290969
7680.0,-0.008125674910843372
8192.0,-0.00042973484960384667
end
