version,3.0
numOfCh,1
type,point
parent_name,484af_0dot2-0dot1
ch_type,1_1
kcount,1
numberNandB,1
brightnessNandB,1
carpet pos,0
pc,0
Time (ms),CH1 Auto-Correlation
1.0,0.053684841841459274
2.0,0.05244508013129234
3.0,0.05118826776742935
4.0,0.04996035620570183
5.0,0.0488225482404232
6.0,0.04771266505122185
7.0,0.04672211781144142
8.0,0.04575089365243912
9.0,0.04485500976443291
10.0,0.043996769934892654
11.0,0.04312937334179878
12.0,0.04230155423283577
13.0,0.04146992787718773
14.0,0.04068327695131302
15.0,0.03990921378135681
16.0,0.039187557995319366
18.0,0.03786342963576317
20.0,0.03663032501935959
22.0,0.03542930632829666
24.0,0.03426828980445862
26.0,0.03316647931933403
28.0,0.0320899672806263
30.0,0.03106583096086979
32.0,0.03010680340230465
36.0,0.028369365260004997
40.0,0.026708519086241722
44.0,0.02522335946559906
48.0,0.023899652063846588
52.0,0.022495685145258904
56.0,0.02113790065050125
60.0,0.01981055922806263
64.0,0.018696172162890434
72.0,0.016767824068665504
80.0,0.014718974009156227
88.0,0.012651034630835056
96.0,0.011143713258206844
104.0,0.010038345120847225
112.0,0.009158068336546421
120.0,0.00841344054788351
128.0,0.007840815000236034
144.0,0.007019225507974625
160.0,0.006262423470616341
176.0,0.00527886301279068
192.0,0.0045380606316030025
208.0,0.004713495261967182
224.0,0.005294262431561947
240.0,0.004989839158952236
256.0,0.005098511930555105
288.0,0.004930193070322275
320.0,0.004265550058335066
352.0,0.0034094853326678276
384.0,0.0033622661139816046
416.0,0.00200806581415236
448.0,0.00044304205221123993
480.0,-0.00037430605152621865
512.0,-0.0005206048372201622
576.0,6.616840983042493e-05
640.0,-0.000626143126282841
704.0,-0.0012287271674722433
768.0,-0.0010108757996931672
832.0,-6.733352347509935e-05
896.0,-0.000721128424629569
960.0,-0.0010833019623532891
1024.0,-0.00027117072022520006
1152.0,-0.0015251969452947378
1280.0,-0.005000179633498192
1408.0,-0.00316203897818923
1536.0,-0.00044256620458327234
1664.0,8.313458965858445e-05
1792.0,-0.002607150934636593
1920.0,0.0006618262268602848
2048.0,0.00035449533606879413
2304.0,-0.0017892876639962196
2560.0,-0.0004894676385447383
2816.0,-0.0052562495693564415
3072.0,-0.003384185489267111
3328.0,-0.004889827687293291
3584.0,0.0002726840612012893
3840.0,-0.0012502670288085938
4096.0,-0.0005047243903391063
4608.0,2.9094526325934567e-06
5120.0,0.002471708692610264
5632.0,0.000786865595728159
6144.0,0.0002915053628385067
6656.0,0.0036137993447482586
7168.0,0.003938592039048672
7680.0,-0.0018602622440084815
8192.0,-0.005072612781077623
end
