version,3.0
numOfCh,1
type,point
parent_name,484af_0dot2-0dot1
ch_type,1_1
kcount,1
numberNandB,1
brightnessNandB,1
carpet pos,0
pc,0
Time (ms),CH1 Auto-Correlation
1.0,0.05941552668809891
2.0,0.058175310492515564
3.0,0.056996263563632965
4.0,0.05586213245987892
5.0,0.05477696284651756
6.0,0.05376630276441574
7.0,0.05277436599135399
8.0,0.05184130370616913
9.0,0.05092712119221687
10.0,0.05002628266811371
11.0,0.04915266111493111
12.0,0.04830494150519371
13.0,0.04747403413057327
14.0,0.04664997383952141
15.0,0.045866698026657104
16.0,0.04513223096728325
18.0,0.04384589567780495
20.0,0.04259857162833214
22.0,0.04139583185315132
24.0,0.040276218205690384
26.0,0.039171211421489716
28.0,0.03806428238749504
30.0,0.036975450813770294
32.0,0.03597019985318184
36.0,0.033899612724781036
40.0,0.031899213790893555
44.0,0.03010917827486992
48.0,0.028368333354592323
52.0,0.026616711169481277
56.0,0.025020042434334755
60.0,0.02371661551296711
64.0,0.022700464352965355
72.0,0.021304212510585785
80.0,0.02024899795651436
88.0,0.019309861585497856
96.0,0.01882689818739891
104.0,0.018423862755298615
112.0,0.01817735657095909
120.0,0.01747659593820572
128.0,0.01639462821185589
144.0,0.014007164165377617
160.0,0.012795650400221348
176.0,0.01116932462900877
192.0,0.009538101963698864
208.0,0.009315533563494682
224.0,0.009397709742188454
240.0,0.008627784438431263
256.0,0.008214093744754791
288.0,0.009851169772446156
320.0,0.01125278603285551
352.0,0.010762589052319527
384.0,0.008710284717381
416.0,0.007173527497798204
448.0,0.0066858637146651745
480.0,0.005332010332494974
512.0,0.003368081757798791
576.0,0.0005207535577937961
640.0,0.0017644574400037527
704.0,0.0004559695953503251
768.0,0.002406695391982794
832.0,0.000361473998054862
896.0,-0.0005620279698632658
960.0,-0.006249638739973307
1024.0,-0.008722217753529549
1152.0,-0.004664379637688398
1280.0,-0.0069192019291222095
1408.0,-0.009060819633305073
1536.0,-0.01281110942363739
1664.0,-0.008771230466663837
1792.0,-0.007465844042599201
1920.0,-0.005540072452276945
2048.0,0.002377409255132079
2304.0,-0.0019666983280330896
2560.0,-0.0020374867599457502
2816.0,-0.0005440656095743179
3072.0,0.0013547827256843448
3328.0,0.00361041072756052
3584.0,0.004130443558096886
3840.0,0.003597014117985964
4096.0,0.001315020490437746
4608.0,-0.009198185056447983
5120.0,-0.008628902025520802
5632.0,0.00250532990321517
6144.0,0.009813115000724792
6656.0,0.005255486350506544
7168.0,0.0011272249976173043
7680.0,0.0006721596582792699
8192.0,-0.003073526779189706
end
