version,3.0
numOfCh,1
type,point
parent_name,484af_0dot2-0dot1
ch_type,1_1
kcount,1
numberNandB,1
brightnessNandB,1
carpet pos,0
pc,0
Time (ms),CH1 Auto-Correlation
1.0,0.06179158017039299
2.0,0.056454576551914215
3.0,0.05518660321831703
4.0,0.05391564220190048
5.0,0.0527915433049202
6.0,0.05167926847934723
7.0,0.05056275799870491
8.0,0.049508173018693924
9.0,0.04858158156275749
10.0,0.047718968242406845
11.0,0.046687643975019455
12.0,0.04557454213500023
13.0,0.044713664799928665
14.0,0.04368934780359268
15.0,0.042611006647348404
16.0,0.041714221239089966
18.0,0.04018856957554817
20.0,0.03859972953796387
22.0,0.03668656945228577
24.0,0.03546755388379097
26.0,0.0343303307890892
28.0,0.03320378065109253
30.0,0.032350994646549225
32.0,0.031607985496520996
36.0,0.03001319244503975
40.0,0.028530465438961983
44.0,0.026961155235767365
48.0,0.025587813928723335
52.0,0.024445069953799248
56.0,0.02371251955628395
60.0,0.022919824346899986
64.0,0.02233882062137127
72.0,0.021723547950387
80.0,0.020784351974725723
88.0,0.019933678209781647
96.0,0.019043372943997383
104.0,0.018403097987174988
112.0,0.017991220578551292
120.0,0.01751919463276863
128.0,0.017187530174851418
144.0,0.01600092090666294
160.0,0.015237204730510712
176.0,0.014720181934535503
192.0,0.01372242160141468
208.0,0.012131184339523315
224.0,0.011238769628107548
240.0,0.011102965101599693
256.0,0.011099821887910366
288.0,0.008903379552066326
320.0,0.008586108684539795
352.0,0.007701457478106022
384.0,0.005404353607445955
416.0,0.0012479566503316164
448.0,-0.0005876031355001032
480.0,-0.0012154531432315707
512.0,-0.002308520255610347
576.0,-0.003693783888593316
640.0,-0.0046617984771728516
704.0,-0.003504024352878332
768.0,-0.0037597885821014643
832.0,-0.0052762930281460285
896.0,-0.0035267076455056667
960.0,-0.004235895816236734
1024.0,-0.0006132450653240085
1152.0,0.0004830093530472368
1280.0,0.004515625070780516
1408.0,0.007031429558992386
1536.0,0.006070507690310478
1664.0,0.004747264552861452
1792.0,0.0016855915309861302
1920.0,0.0007884225342422724
2048.0,-0.0038180232513695955
2304.0,-0.0003166554670315236
2560.0,0.001946292002685368
2816.0,0.004536982625722885
3072.0,0.0019722075667232275
3328.0,0.0007369968225248158
3584.0,-0.005374130792915821
3840.0,-0.008831653743982315
4096.0,-0.00441639544442296
4608.0,4.5346994738793e-05
5120.0,-0.00030533518292941153
5632.0,0.0013532215962186456
6144.0,-0.009200126864016056
6656.0,-0.0010105044348165393
7168.0,-9.59893804974854e-05
7680.0,-0.011982351541519165
8192.0,0.0036085962783545256
end
