version,3.0
numOfCh,1
type,point
parent_name,484af_0dot2-0dot1
ch_type,1_1
kcount,1
numberNandB,1
brightnessNandB,1
carpet pos,0
pc,0
Time (ms),CH1 Auto-Correlation
1.0,0.052726466208696365
2.0,0.0513809509575367
3.0,0.050074514001607895
4.0,0.048775266855955124
5.0,0.047559499740600586
6.0,0.046422041952610016
7.0,0.04534530267119408
8.0,0.04432011395692825
9.0,0.0432586707174778
10.0,0.042224686592817307
11.0,0.04123671352863312
12.0,0.04024337977170944
13.0,0.039271846413612366
14.0,0.038329679518938065
15.0,0.037386130541563034
16.0,0.036521732807159424
18.0,0.03488292172551155
20.0,0.03339594975113869
22.0,0.03205264359712601
24.0,0.030806545168161392
26.0,0.02958616055548191
28.0,0.028475629165768623
30.0,0.02759844996035099
32.0,0.026790784671902657
36.0,0.02525336854159832
40.0,0.02377156913280487
44.0,0.022379666566848755
48.0,0.021040545776486397
52.0,0.01997409015893936
56.0,0.019141139462590218
60.0,0.01833738014101982
64.0,0.01744185946881771
72.0,0.015716208145022392
80.0,0.014100114814937115
88.0,0.012703510001301765
96.0,0.011666551232337952
104.0,0.01071182731539011
112.0,0.009795303456485271
120.0,0.008825133554637432
128.0,0.00783869344741106
144.0,0.005948706995695829
160.0,0.0036341350059956312
176.0,0.0014385939575731754
192.0,0.00039407878648489714
208.0,0.0005675994325429201
224.0,0.0016280729323625565
240.0,0.0014545979211106896
256.0,0.0005050058825872838
288.0,0.0007801323663443327
320.0,0.0009276312775909901
352.0,-0.0003087512741331011
384.0,-0.0020020767115056515
416.0,-0.0022856579162180424
448.0,-0.0012155515141785145
480.0,-0.0015781365800648928
512.0,-0.003080094000324607
576.0,-0.0005567731568589807
640.0,-0.0008742078789509833
704.0,-0.0013259152183309197
768.0,0.0016234252834692597
832.0,0.002051051240414381
896.0,0.0011401212541386485
960.0,-0.00014746909437235445
1024.0,0.00034564745146781206
1152.0,0.0008983099833130836
1280.0,0.004146283026784658
1408.0,0.005700444336980581
1536.0,0.004836940206587315
1664.0,0.0011915364302694798
1792.0,-0.0045861368998885155
1920.0,-0.004012889228761196
2048.0,0.0006759612006135285
2304.0,0.001711169257760048
2560.0,-0.0008367141126655042
2816.0,-0.000926341803278774
3072.0,-0.0005024038255214691
3328.0,-0.001331028644926846
3584.0,-0.00043724101851694286
3840.0,0.0011307122185826302
4096.0,-0.0035642324946820736
4608.0,0.002581066684797406
5120.0,-0.0025524909142404795
5632.0,0.001268408726900816
6144.0,0.0011080426629632711
6656.0,-0.0006264271796680987
7168.0,0.0008783214725553989
7680.0,-0.0033887478057295084
8192.0,-0.0054066297598183155
end
