version,3.0
numOfCh,1
type,point
parent_name,800-cuts
ch_type,1_1
kcount,1
numberNandB,1
brightnessNandB,1
carpet pos,0
pc,0
Time (ms),CH1 Auto-Correlation
1.0,0.03852035850286484
2.0,0.03365615755319595
3.0,0.02952570840716362
4.0,0.025888336822390556
5.0,0.022725319489836693
6.0,0.020015904679894447
7.0,0.017635956406593323
8.0,0.015534291975200176
9.0,0.013764270581305027
10.0,0.012329251505434513
11.0,0.0111244460567832
12.0,0.010141327977180481
13.0,0.009129872545599937
14.0,0.008253290317952633
15.0,0.007490452844649553
16.0,0.006858215667307377
18.0,0.0058036549016833305
20.0,0.004615786485373974
22.0,0.0036763804964721203
24.0,0.0028980132192373276
26.0,0.0022243859712034464
28.0,0.001565558253787458
30.0,0.001142700552009046
32.0,0.0008649834198877215
36.0,0.001186050591059029
40.0,0.0014312518760561943
44.0,0.0015228362753987312
48.0,0.0016442121705040336
52.0,0.0017454002518206835
56.0,0.0017955609364435077
60.0,0.0015380842378363013
64.0,0.0009377400274388492
72.0,-0.00018686940893530846
80.0,2.134968963218853e-05
88.0,0.0001895294844871387
96.0,0.0005795480101369321
104.0,0.00046153334551490843
112.0,0.00018159807950723916
120.0,-0.0008526261080987751
128.0,-0.001110587501898408
144.0,-0.00035814219154417515
160.0,0.0010618206579238176
176.0,0.001483485335484147
192.0,0.00016342288290616125
208.0,-0.00016195836360566318
224.0,-0.000158781636855565
240.0,0.0001976463245227933
256.0,0.00043293493217788637
288.0,-0.000480060582049191
320.0,-0.0009556147851981223
352.0,-0.00023175636306405067
384.0,-0.0004629680188372731
416.0,4.036005702801049e-05
448.0,0.0014833317836746573
480.0,-0.00043098049354739487
512.0,-0.0007255194941535592
576.0,-0.0008476937655359507
640.0,-0.0007999357767403126
704.0,8.955384691944346e-05
768.0,-0.0011261122999712825
832.0,-0.00015650331624783576
896.0,-0.0008625491173006594
960.0,-0.0004992274916730821
1024.0,5.43793657925562e-06
1152.0,0.0004758487921208143
1280.0,-0.00017184218449983746
1408.0,0.0007056191680021584
1536.0,0.0009443113813176751
1664.0,-0.00036445874138735235
1792.0,-0.0008813680615276098
1920.0,-0.00016511837020516396
2048.0,-0.00045255362056195736
2304.0,-0.0002222059410996735
2560.0,2.0060790120624006e-05
2816.0,0.0007327489438466728
3072.0,0.0005863421247340739
3328.0,-0.00011668549996102229
3584.0,-3.644778553280048e-05
3840.0,8.387630805373192e-05
4096.0,-1.399487882736139e-05
4608.0,1.7804371964302845e-05
5120.0,-0.0003960274625569582
5632.0,0.0001569320447742939
6144.0,-3.3530915970914066e-05
6656.0,-0.000629741174634546
7168.0,0.0004909259150736034
7680.0,-0.00026891520246863365
8192.0,0.00014047454169485718
9216.0,3.316983566037379e-06
10240.0,-0.00017576670506969094
11264.0,-0.00011146899487357587
12288.0,-0.0003078360459767282
13312.0,8.39909553178586e-05
14336.0,0.0005495875957421958
end
