version,3.0
numOfCh,1
type,point
parent_name,800-cuts
ch_type,1_1
kcount,1
numberNandB,1
brightnessNandB,1
carpet pos,0
pc,0
Time (ms),CH1 Auto-Correlation
1.0,0.08455707877874374
2.0,0.07406000047922134
3.0,0.06517601013183594
4.0,0.057669851928949356
5.0,0.05107399448752403
6.0,0.04546906799077988
7.0,0.04068857803940773
8.0,0.03689604252576828
9.0,0.03401966392993927
10.0,0.03150160238146782
11.0,0.029265819117426872
12.0,0.027095230296254158
13.0,0.025285175070166588
14.0,0.023636482656002045
15.0,0.021879032254219055
16.0,0.020091572776436806
18.0,0.016523974016308784
20.0,0.013271582312881947
22.0,0.010426734574139118
24.0,0.008195525035262108
26.0,0.006775381043553352
28.0,0.00599772110581398
30.0,0.005415362771600485
32.0,0.004583941772580147
36.0,0.003310047322884202
40.0,0.0011141198920086026
44.0,-0.000687649822793901
48.0,-0.00016501860227435827
52.0,0.0012470872607082129
56.0,0.0013956143520772457
60.0,0.0001099391229217872
64.0,-0.00010589112207526341
72.0,0.0016374316764995456
80.0,0.0014364031376317143
88.0,0.0004575355560518801
96.0,-0.0012025920441374183
104.0,-0.0005980618880130351
112.0,0.0023438972420990467
120.0,0.0029921915847808123
128.0,0.0018967405194416642
144.0,0.0035965738352388144
160.0,0.0017053821356967092
176.0,0.0011658488074317575
192.0,0.0028540778439491987
208.0,0.003209272865206003
224.0,0.004182723350822926
240.0,0.0019678983371704817
256.0,0.0018572837579995394
288.0,-0.00023086112923920155
320.0,-0.0028411836829036474
352.0,0.0008410299778915942
384.0,0.000844566966407001
416.0,0.0004372482653707266
448.0,0.0011085261357948184
480.0,-0.002028584713116288
512.0,0.0015033672098070383
576.0,-0.0003311465261504054
640.0,0.002264144131913781
704.0,-0.001132003148086369
768.0,-0.0008943270659074187
832.0,-0.000560146989300847
896.0,7.74527416069759e-06
960.0,5.709525430575013e-05
1024.0,0.002162379212677479
1152.0,0.0025560997892171144
1280.0,0.0022545927204191685
1408.0,0.0018546291394159198
1536.0,-0.00016943099035415798
1664.0,0.0013796798884868622
1792.0,0.00016152745229192078
1920.0,0.002841019770130515
2048.0,-0.0008070189505815506
2304.0,-0.0005851032328791916
2560.0,-0.0010299535933881998
2816.0,-0.00037037284346297383
3072.0,0.001982808578759432
3328.0,0.0010248719481751323
3584.0,-0.0005260857287794352
3840.0,-0.0012165072839707136
4096.0,-0.0006454281392507255
4608.0,-0.0003804386069532484
5120.0,0.00037642352981492877
5632.0,-0.002336942357942462
6144.0,-1.5894131593086058e-06
6656.0,-0.00194254401139915
7168.0,-0.0018837470561265945
7680.0,-0.0016232364578172565
8192.0,0.0005304290098138154
9216.0,-0.0009173727594316006
10240.0,-0.0012749278685078025
11264.0,0.0005914093344472349
12288.0,0.0007606407743878663
13312.0,0.0017305013025179505
14336.0,0.0024550980888307095
end
