version,3.0
numOfCh,1
type,point
parent_name,800-cuts
ch_type,1_1
kcount,1
numberNandB,1
brightnessNandB,1
carpet pos,0
pc,0
Time (ms),CH1 Auto-Correlation
1.0,0.03872230648994446
2.0,0.03361337259411812
3.0,0.02937573380768299
4.0,0.0258241705596447
5.0,0.02270291931927204
6.0,0.020001253113150597
7.0,0.017684508115053177
8.0,0.015536455437541008
9.0,0.013612923212349415
10.0,0.011837705969810486
11.0,0.010472568683326244
12.0,0.009235751815140247
13.0,0.008329248055815697
14.0,0.007534046191722155
15.0,0.006769687402993441
16.0,0.0061644273810088634
18.0,0.005370440427213907
20.0,0.004733949434012175
22.0,0.0041083949618041515
24.0,0.00366035383194685
26.0,0.003230205737054348
28.0,0.0029538688249886036
30.0,0.0025884644128382206
32.0,0.002434078836813569
36.0,0.0019831534009426832
40.0,0.0010425758082419634
44.0,-0.00019125013204757124
48.0,-0.000804480689112097
52.0,-0.0013145802076905966
56.0,-0.0020197173580527306
60.0,-0.0021120705641806126
64.0,-0.0018922784365713596
72.0,-0.002335712080821395
80.0,-0.0030970009975135326
88.0,-0.002600020496174693
96.0,-0.0016454195138067007
104.0,-0.0014919661916792393
112.0,-0.0014608378987759352
120.0,-0.0008515685331076384
128.0,-0.0014618802815675735
144.0,-0.0006214682362042367
160.0,-0.0003941209288313985
176.0,-0.000259318359894678
192.0,-0.0007480975473299623
208.0,-0.00041867481195367873
224.0,-0.0011860382510349154
240.0,-0.00014395952166523784
256.0,0.000862583052366972
288.0,0.0015800291439518332
320.0,-0.0005495168152265251
352.0,0.0005318109760992229
384.0,0.0014397897757589817
416.0,-0.000415642251027748
448.0,-0.001816882868297398
480.0,-0.0015281434170901775
512.0,-0.0007351649692282081
576.0,-0.00026772887213155627
640.0,0.00038425211096182466
704.0,0.001016964321024716
768.0,0.0007309321663342416
832.0,-0.0004772216489072889
896.0,0.0001669957855483517
960.0,0.0003056660934817046
1024.0,-0.00019841050379909575
1152.0,0.0006905944319441915
1280.0,-0.0005593470996245742
1408.0,0.0002745676029007882
1536.0,-0.00020088398014195263
1664.0,7.771762466290966e-05
1792.0,-0.0009403289295732975
1920.0,0.0007016367744654417
2048.0,-0.00018899761198554188
2304.0,0.0004276396648492664
2560.0,-0.000476786372018978
2816.0,-0.00046096969163045287
3072.0,0.0005267398664727807
3328.0,-5.3813037084182724e-05
3584.0,-0.00033943765447475016
3840.0,0.00022906844969838858
4096.0,-0.00031736440723761916
4608.0,-9.958686860045418e-05
5120.0,-0.00021691461734008044
5632.0,0.0001680145360296592
6144.0,-1.5194257684925105e-05
6656.0,5.970292477286421e-05
7168.0,-0.0001519801444374025
7680.0,-6.348477472783998e-05
8192.0,-0.0006133039714768529
9216.0,-0.00015785859432071447
10240.0,0.0001429832336725667
11264.0,0.00030412449268624187
12288.0,0.00039050952182151377
13312.0,2.775234497676138e-05
14336.0,-0.0003631852159742266
end
