version,3.0
numOfCh,1
type,point
parent_name,800-cuts
ch_type,1_1
kcount,1
numberNandB,1
brightnessNandB,1
carpet pos,0
pc,0
Time (ms),CH1 Auto-Correlation
1.0,0.08753278106451035
2.0,0.07732725888490677
3.0,0.06892047077417374
4.0,0.061683736741542816
5.0,0.055788107216358185
6.0,0.05074995383620262
7.0,0.04637697711586952
8.0,0.0423789843916893
9.0,0.03874272108078003
10.0,0.035620734095573425
11.0,0.032882992178201675
12.0,0.030222062021493912
13.0,0.02789154276251793
14.0,0.025583416223526
15.0,0.023767119273543358
16.0,0.02217680588364601
18.0,0.019319450482726097
20.0,0.016162583604454994
22.0,0.013712367042899132
24.0,0.011566373519599438
26.0,0.009689274244010448
28.0,0.007783753331750631
30.0,0.0065101757645606995
32.0,0.005355140659958124
36.0,0.004356486722826958
40.0,0.003622077638283372
44.0,0.004395489115267992
48.0,0.005738042760640383
52.0,0.004876303020864725
56.0,0.003921231254935265
60.0,0.003647626144811511
64.0,0.00436474708840251
72.0,0.0047690607607364655
80.0,0.004326970782130957
88.0,0.0037920984905213118
96.0,0.0020130309276282787
104.0,0.0008841264061629772
112.0,0.00010608303273329511
120.0,0.001008418621495366
128.0,0.0005678376764990389
144.0,-0.0009588421089574695
160.0,-0.0010728645138442516
176.0,-0.0011120333801954985
192.0,0.0013290881179273129
208.0,-0.00025613760226406157
224.0,-0.0011696249712258577
240.0,0.0010854332940652966
256.0,0.0011422790121287107
288.0,2.6873156457440928e-05
320.0,0.002633230062201619
352.0,-0.0018424884183332324
384.0,-0.0012443948071449995
416.0,-0.0030528565403074026
448.0,-0.003548064734786749
480.0,-0.004337254911661148
512.0,-0.0012234690366312861
576.0,-0.003117950865998864
640.0,-0.0008424993720836937
704.0,-0.0004501747898757458
768.0,0.0004903334192931652
832.0,0.0008292034035548568
896.0,0.002968314802274108
960.0,0.00256243534386158
1024.0,-4.1170133044943213e-05
1152.0,0.0009502029861323535
1280.0,0.0008844578405842185
1408.0,-0.0009749871678650379
1536.0,-0.0025819623842835426
1664.0,-0.0004325995687395334
1792.0,-2.99066578008933e-05
1920.0,0.001214766874909401
2048.0,0.003067534416913986
2304.0,0.0005786436377093196
2560.0,-0.0021644358057528734
2816.0,-0.0016841341275721788
3072.0,0.0007020971970632672
3328.0,-0.0014331145212054253
3584.0,-0.0026227207854390144
3840.0,0.0015780564863234758
4096.0,0.0024017333053052425
4608.0,-0.0007432742277160287
5120.0,-3.692340033012442e-05
5632.0,-0.00010978928185068071
6144.0,0.0007571878377348185
6656.0,-0.0002090145426336676
7168.0,-0.00013231817865744233
7680.0,-0.000995590235106647
8192.0,1.3019557627558243e-05
9216.0,-0.000944970001000911
10240.0,0.0003569581313058734
11264.0,0.00020108636817894876
12288.0,0.0017914763884618878
13312.0,-0.00025572828599251807
14336.0,1.3943050362286158e-05
end
