version,3.0
numOfCh,1
type,point
parent_name,800-cuts
ch_type,1_1
kcount,1
numberNandB,1
brightnessNandB,1
carpet pos,0
pc,0
Time (ms),CH1 Auto-Correlation
1.0,0.045125603675842285
2.0,0.039964571595191956
3.0,0.035558853298425674
4.0,0.03179597109556198
5.0,0.02850784733891487
6.0,0.02565349079668522
7.0,0.023260509595274925
8.0,0.02118627540767193
9.0,0.019151141867041588
10.0,0.01733601838350296
11.0,0.01567135378718376
12.0,0.014180551283061504
13.0,0.012772658839821815
14.0,0.011562819592654705
15.0,0.010418087244033813
16.0,0.00933302566409111
18.0,0.007630196399986744
20.0,0.006239381153136492
22.0,0.00516268378123641
24.0,0.0045206015929579735
26.0,0.0035966893192380667
28.0,0.002898820675909519
30.0,0.002475451212376356
32.0,0.0022207414731383324
36.0,0.0020007500424981117
40.0,0.001734543009661138
44.0,0.0011821063235402107
48.0,0.00042567908531054854
52.0,-8.373685705009848e-05
56.0,-0.0005084783188067377
60.0,-0.0001874945155577734
64.0,0.00027421084814704955
72.0,0.00019233366765547544
80.0,-0.0002885455614887178
88.0,0.00017661815218161792
96.0,3.7915524444542825e-06
104.0,-7.368781371042132e-05
112.0,-0.0008429253357462585
120.0,-0.0005446202703751624
128.0,0.00016807761858217418
144.0,-5.3903026127954945e-05
160.0,-0.0016942532965913415
176.0,-0.0013578874059021473
192.0,-0.0006441216683015227
208.0,-0.00046633515739813447
224.0,0.00027545489137992263
240.0,-0.0005440836539492011
256.0,-0.0002477794769220054
288.0,-0.0015550984535366297
320.0,0.0006758939125575125
352.0,-0.0005843949620611966
384.0,-0.0014524703146889806
416.0,-0.001959956483915448
448.0,-0.00149255630094558
480.0,0.00105470756534487
512.0,0.0004036197788082063
576.0,0.0004962949897162616
640.0,-0.00027481288998387754
704.0,0.0005054509965702891
768.0,-0.0007098991191014647
832.0,0.0001668161858106032
896.0,0.00027016602689400315
960.0,-0.000916025775950402
1024.0,-0.00018828912288881838
1152.0,-0.0009019587887451053
1280.0,6.897027924424037e-05
1408.0,0.00038198858965188265
1536.0,-0.0001311360247200355
1664.0,0.000516038853675127
1792.0,-0.000322712236084044
1920.0,-7.213729259092361e-05
2048.0,-0.0021995266433805227
2304.0,0.00030998303554952145
2560.0,0.00045881213736720383
2816.0,-0.0009935586713254452
3072.0,0.0007840284379199147
3328.0,-0.00044267080374993384
3584.0,-0.0005243499181233346
3840.0,-0.00014751681010238826
4096.0,0.0008576623513363302
4608.0,0.0005285789957270026
5120.0,-0.0006385344313457608
5632.0,0.00048111967043951154
6144.0,0.00023630852228961885
6656.0,-0.0005918221431784332
7168.0,0.0007443713839165866
7680.0,-0.0008436117204837501
8192.0,-0.00034672662150114775
9216.0,7.81411727075465e-05
10240.0,7.409467798424885e-05
11264.0,-1.502807208453305e-05
12288.0,-5.450195021694526e-05
13312.0,7.046910468488932e-05
14336.0,-2.1174348148633726e-05
end
