version,3.0
numOfCh,1
type,point
parent_name,800-cuts
ch_type,1_1
kcount,1
numberNandB,1
brightnessNandB,1
carpet pos,0
pc,0
Time (ms),CH1 Auto-Correlation
1.0,0.026254689320921898
2.0,0.02308451384305954
3.0,0.02041039429605007
4.0,0.01822587102651596
5.0,0.016330165788531303
6.0,0.014649192802608013
7.0,0.013144337572157383
8.0,0.011862162500619888
9.0,0.010754408314824104
10.0,0.009743458591401577
11.0,0.008895214647054672
12.0,0.008026990108191967
13.0,0.0072842552326619625
14.0,0.0065334150567650795
15.0,0.005852174945175648
16.0,0.0052320947870612144
18.0,0.004127121530473232
20.0,0.0032905209809541702
22.0,0.002694115974009037
24.0,0.002302822656929493
26.0,0.0021489649079740047
28.0,0.0019448522944003344
30.0,0.0016515193274244666
32.0,0.0015153053682297468
36.0,0.0011760927736759186
40.0,0.000719768984708935
44.0,0.00035114557249471545
48.0,7.204737630672753e-05
52.0,8.616985724074766e-05
56.0,0.0001799582678359002
60.0,-1.1837737474706955e-05
64.0,-0.00037492415867745876
72.0,-5.960849011898972e-05
80.0,3.529506102495361e-06
88.0,-0.00010971989104291424
96.0,0.00018288774299435318
104.0,0.0006188394618220627
112.0,0.000784592586569488
120.0,0.0010107000125572085
128.0,0.0008782746153883636
144.0,0.0002927928580902517
160.0,0.00048742975923232734
176.0,0.00042797558126039803
192.0,0.0003492932883091271
208.0,0.0001885579840745777
224.0,4.535232073976658e-05
240.0,0.0003301248652860522
256.0,0.0006650198483839631
288.0,0.00022878548770677298
320.0,-1.8812726921169087e-05
352.0,0.0005179538857191801
384.0,-3.128768366877921e-05
416.0,-0.0010873506544157863
448.0,-0.0017501884140074253
480.0,6.187377584865317e-05
512.0,-0.0001498761266702786
576.0,0.00022687623277306557
640.0,0.0006587964599020779
704.0,-0.0002691186382435262
768.0,-8.005803829291835e-05
832.0,0.0004969198489561677
896.0,0.00014602081500925124
960.0,0.00030874102958478034
1024.0,0.0007749091018922627
1152.0,-0.00026758151943795383
1280.0,0.00021682993974536657
1408.0,-0.00039382738759741187
1536.0,-1.9652377886814065e-05
1664.0,0.00045112622319720685
1792.0,-3.2139152608579025e-05
1920.0,-7.735351573501248e-06
2048.0,-0.0006150733097456396
2304.0,0.0006207035039551556
2560.0,1.5378804164356552e-05
2816.0,-0.00021850751363672316
3072.0,-0.0003185835375916213
3328.0,-0.00010526414553169161
3584.0,0.00013066011888440698
3840.0,4.4173455535201356e-05
4096.0,-0.0002625008055474609
4608.0,0.00010075794853037223
5120.0,-0.00023763973149470985
5632.0,-0.0005865797284059227
6144.0,6.215756729943678e-05
6656.0,0.00034651439636945724
7168.0,-0.00019665596482809633
7680.0,-0.00023047035210765898
8192.0,-0.0002395906049059704
9216.0,4.5241551561048254e-05
10240.0,0.00010719896090449765
11264.0,-4.667842949857004e-05
12288.0,0.0001349822705378756
13312.0,0.00010238252434646711
14336.0,-0.000479051930597052
end
