version,3.0
numOfCh,1
type,point
parent_name,800-cuts
ch_type,1_1
kcount,1
numberNandB,1
brightnessNandB,1
carpet pos,0
pc,0
Time (ms),CH1 Auto-Correlation
1.0,0.0249920804053545
2.0,0.022094139829277992
3.0,0.01961093582212925
4.0,0.01743573509156704
5.0,0.01564772240817547
6.0,0.014016441069543362
7.0,0.012624498456716537
8.0,0.011391944251954556
9.0,0.0102414321154356
10.0,0.009291281923651695
11.0,0.008371029980480671
12.0,0.007492785342037678
13.0,0.006729254964739084
14.0,0.0060444665141403675
15.0,0.005372125655412674
16.0,0.004816900473088026
18.0,0.00388176622800529
20.0,0.003161958884447813
22.0,0.002366723259910941
24.0,0.0016699358820915222
26.0,0.0010927285766229033
28.0,0.0007718116976320744
30.0,0.0006356520461849868
32.0,0.000591669580899179
36.0,0.0003538407327141613
40.0,0.0003223335952498019
44.0,0.0005103389266878366
48.0,0.0005731116398237646
52.0,0.0007890075794421136
56.0,0.0006539123714901507
60.0,3.687528442242183e-05
64.0,-0.0005829739384353161
72.0,-0.0012546043144538999
80.0,-0.0009361919364891946
88.0,-0.00023196698748506606
96.0,0.00014110602205619216
104.0,-8.054143836488947e-05
112.0,-0.0005626155179925263
120.0,-0.0007373419939540327
128.0,-0.0009233832242898643
144.0,-0.00024267021217383444
160.0,0.00042353238677605987
176.0,0.0007639816030859947
192.0,0.001727459137327969
208.0,0.0014379894128069282
224.0,0.001852334593422711
240.0,0.001037027919664979
256.0,6.891244993312284e-05
288.0,0.0005808983114548028
320.0,-5.8453038036532234e-06
352.0,0.001255576964467764
384.0,0.0012675378238782287
416.0,0.0005334847955964506
448.0,0.00023222836898639798
480.0,0.00043522915802896023
512.0,-0.00025598477805033326
576.0,0.00039571640081703663
640.0,-0.0002463104610797018
704.0,-3.2541529435548e-06
768.0,-1.568462721479591e-05
832.0,-0.000279152300208807
896.0,-0.0005042678094469011
960.0,-0.0006889745127409697
1024.0,0.00032521053799428046
1152.0,-0.00010834565910045058
1280.0,-0.0005413690232671797
1408.0,-0.00012859608978033066
1536.0,-0.0005617013666778803
1664.0,-8.925576548790559e-05
1792.0,-0.0002710222324822098
1920.0,-0.000230561156058684
2048.0,-0.00028035679133608937
2304.0,6.37033226666972e-05
2560.0,0.0003047073259949684
2816.0,0.0002192500833189115
3072.0,0.00019370003428775817
3328.0,0.00045274809235706925
3584.0,0.0002131221117451787
3840.0,0.0002469541796017438
4096.0,0.00019755725224968046
4608.0,-0.00039659347385168076
5120.0,-0.00037041184259578586
5632.0,1.3238451174402144e-05
6144.0,0.0006832641083747149
6656.0,0.0002180470182793215
7168.0,-0.0002688213426154107
7680.0,-0.0002208457444794476
8192.0,-0.0004732628585770726
9216.0,-2.5712679416756146e-06
10240.0,-6.341439438983798e-05
11264.0,-0.00041517330100759864
12288.0,9.812805365072563e-05
13312.0,-2.7263839001534507e-05
14336.0,-0.0005785846733488142
end
