version,3.0
numOfCh,1
type,point
parent_name,800-cuts
ch_type,1_1
kcount,1
numberNandB,1
brightnessNandB,1
carpet pos,0
pc,0
Time (ms),CH1 Auto-Correlation
1.0,0.08715596795082092
2.0,0.07635485380887985
3.0,0.06703750789165497
4.0,0.05887715891003609
5.0,0.051703743636608124
6.0,0.04571174085140228
7.0,0.04063967987895012
8.0,0.03635350614786148
9.0,0.03256043791770935
10.0,0.029122214764356613
11.0,0.026018165051937103
12.0,0.023139143362641335
13.0,0.020621588453650475
14.0,0.018951458856463432
15.0,0.01744537614285946
16.0,0.016314763575792313
18.0,0.014202360063791275
20.0,0.012050963006913662
22.0,0.009921502321958542
24.0,0.008260244503617287
26.0,0.006923834327608347
28.0,0.005253398325294256
30.0,0.004273753613233566
32.0,0.0029437628109008074
36.0,0.0005988451885059476
40.0,-8.890624485502485e-06
44.0,-0.0007145639392547309
48.0,-0.0006734155467711389
52.0,0.00035959971137344837
56.0,2.4433855287497863e-05
60.0,-0.0007988730794750154
64.0,-0.0007615922950208187
72.0,-0.00036220814217813313
80.0,0.0002897373051382601
88.0,-0.0017630645306780934
96.0,-0.0018358665984123945
104.0,-0.002266825409606099
112.0,0.00024428177857771516
120.0,0.0005378776113502681
128.0,0.0008633050019852817
144.0,-0.0001837648160289973
160.0,0.0014569826889783144
176.0,0.0023019167128950357
192.0,0.001179925980977714
208.0,-0.00010131624731002375
224.0,-0.0009394854423590004
240.0,-0.005782998166978359
256.0,-0.0025400088634341955
288.0,-0.0010134776821359992
320.0,-2.507359386072494e-05
352.0,0.0002034150093095377
384.0,0.0015609846450388432
416.0,-0.0018020521383732557
448.0,-0.0024014234077185392
480.0,-0.00026513851480558515
512.0,0.0007334179244935513
576.0,0.0008199295843951404
640.0,-0.00015533277473878115
704.0,-0.0002740509225986898
768.0,0.001789249712601304
832.0,-0.002766624791547656
896.0,0.002520445268601179
960.0,-0.00026452355086803436
1024.0,-6.629958807025105e-05
1152.0,-0.00073286920087412
1280.0,0.0006859792629256845
1408.0,-0.000554461614228785
1536.0,-0.000873708922881633
1664.0,-0.001806261483579874
1792.0,-0.0005000318051315844
1920.0,-8.327297837240621e-05
2048.0,-3.586068487493321e-05
2304.0,-0.00041996550862677395
2560.0,0.0006936490535736084
2816.0,-0.0007972588064149022
3072.0,-0.0002215325803263113
3328.0,-0.00015214894665405154
3584.0,0.0013876893790438771
3840.0,-0.0008655520505271852
4096.0,0.00037520105252042413
4608.0,0.0004500910290516913
5120.0,-5.135880201123655e-05
5632.0,0.0004334202385507524
6144.0,0.0006793462671339512
6656.0,-0.0002624611952342093
7168.0,-0.0007968913414515555
7680.0,-0.0017095162766054273
8192.0,0.00011282676132395864
9216.0,0.00024804286658763885
10240.0,0.00020132801728323102
11264.0,-6.714701157761738e-05
12288.0,-0.00041376438457518816
13312.0,0.0002803552197292447
14336.0,0.00023027161660138518
end
