version,3.0
numOfCh,1
type,point
parent_name,800-cuts
ch_type,1_1
kcount,1
numberNandB,1
brightnessNandB,1
carpet pos,0
pc,0
Time (ms),CH1 Auto-Correlation
1.0,0.025322237983345985
2.0,0.022212708368897438
3.0,0.019515350461006165
4.0,0.017266621813178062
5.0,0.015328066423535347
6.0,0.013665285892784595
7.0,0.012164376676082611
8.0,0.010881858877837658
9.0,0.009703705087304115
10.0,0.008722658269107342
11.0,0.007819769904017448
12.0,0.006995005998760462
13.0,0.0063737849704921246
14.0,0.005841294769197702
15.0,0.005383478477597237
16.0,0.004846027120947838
18.0,0.003790495451539755
20.0,0.0029830308631062508
22.0,0.0023814504966139793
24.0,0.0019822237081825733
26.0,0.0016018967144191265
28.0,0.0013038439210504293
30.0,0.0009842265862971544
32.0,0.0007896561292000115
36.0,0.000759088434278965
40.0,0.00022174757032189518
44.0,-0.0001633868960198015
48.0,-0.0002106440078932792
52.0,5.271544068818912e-05
56.0,7.004946382949129e-05
60.0,4.769298902829178e-05
64.0,9.814026998355985e-05
72.0,0.0002487902529537678
80.0,0.0003160526684951037
88.0,0.00036547431955114007
96.0,0.000586075650062412
104.0,0.0009537154110148549
112.0,0.001070306752808392
120.0,0.0013803435722365975
128.0,0.0014393622986972332
144.0,0.0005772247677668929
160.0,0.00046342264977283776
176.0,-0.00010397861478850245
192.0,-0.0007130239391699433
208.0,-0.000410477485274896
224.0,-8.992832590593025e-05
240.0,-0.00020631287770811468
256.0,-0.0002121974539477378
288.0,0.0003595626330934465
320.0,-0.00010833030682988465
352.0,0.00030612683622166514
384.0,-0.00031345413299277425
416.0,0.00015052195522002876
448.0,0.00023140799021348357
480.0,7.924163219286129e-05
512.0,0.0007331201923079789
576.0,8.841845556162298e-05
640.0,0.0002200456365244463
704.0,8.122041617752984e-05
768.0,0.00025985974934883416
832.0,-3.6899664337397553e-06
896.0,0.0011168888304382563
960.0,0.0005103586590848863
1024.0,2.8680971809080802e-05
1152.0,0.0003047350328415632
1280.0,-0.0006987100932747126
1408.0,6.000195207889192e-05
1536.0,-0.0005591653753072023
1664.0,-0.00042576142004691064
1792.0,0.00025865010684356093
1920.0,0.0003075363056268543
2048.0,-0.0003819075063802302
2304.0,-2.662725091795437e-05
2560.0,-0.0007738856365904212
2816.0,0.0001486021064920351
3072.0,1.673077349551022e-05
3328.0,0.0004026460519526154
3584.0,-1.0163599654333666e-05
3840.0,0.0004049134149681777
4096.0,0.0007272090879268944
4608.0,-0.00030228105606511235
5120.0,-0.00014928595919627696
5632.0,-0.00038019759813323617
6144.0,-0.00011400032963138074
6656.0,-0.0004530096484813839
7168.0,0.00011430486483732238
7680.0,4.6632601879537106e-05
8192.0,0.000220358808292076
9216.0,-0.0001661255519138649
10240.0,-0.0002875017235055566
11264.0,-5.988678367430111e-06
12288.0,0.00014063733397051692
13312.0,0.0005423949914984405
14336.0,0.00018632219871506095
end
