version,3.0
numOfCh,1
type,point
parent_name,800-cuts
ch_type,1_1
kcount,1
numberNandB,1
brightnessNandB,1
carpet pos,0
pc,0
Time (ms),CH1 Auto-Correlation
1.0,0.023968014866113663
2.0,0.02099107764661312
3.0,0.018431859090924263
4.0,0.01628427766263485
5.0,0.014423518441617489
6.0,0.012794275768101215
7.0,0.011400321498513222
8.0,0.010156984440982342
9.0,0.009084686636924744
10.0,0.008170601911842823
11.0,0.007401092443615198
12.0,0.00670915562659502
13.0,0.00606755493208766
14.0,0.005621853284537792
15.0,0.005276390351355076
16.0,0.0049356562085449696
18.0,0.004325649701058865
20.0,0.003678583074361086
22.0,0.0030830283649265766
24.0,0.0025969650596380234
26.0,0.0022695318330079317
28.0,0.00196045427583158
30.0,0.0016764110187068582
32.0,0.0013338109711185098
36.0,0.0010873713763430715
40.0,0.0007628077873960137
44.0,0.0002923211723100394
48.0,0.00010946409747703001
52.0,-0.00012175062875030562
56.0,-0.00045598496217280626
60.0,-0.0011472015175968409
64.0,-0.0015497951535508037
72.0,-0.0012936369748786092
80.0,-0.0006455716793425381
88.0,-0.00048534589586779475
96.0,-0.0002084298466797918
104.0,0.00028138840571045876
112.0,0.0004002265050075948
120.0,0.00036274504964239895
128.0,3.71489513781853e-05
144.0,-0.0004104140098206699
160.0,-0.0009630310232751071
176.0,-0.0009613335714675486
192.0,-0.0004945260589011014
208.0,0.0005122678121551871
224.0,0.0004086652770638466
240.0,-0.00015439718845300376
256.0,3.571618799469434e-05
288.0,6.192260480020195e-05
320.0,0.0005503014544956386
352.0,0.0010673468932509422
384.0,0.00024513830430805683
416.0,4.934710159432143e-05
448.0,-1.5818939573364332e-05
480.0,-0.00038796404260210693
512.0,0.00020492861222010106
576.0,-0.00016545211838092655
640.0,-0.00017909109010361135
704.0,-0.0008654249249957502
768.0,-0.0006575222359970212
832.0,0.00011335207091178745
896.0,0.00026022992096841335
960.0,-5.3660638513974845e-05
1024.0,-6.441178993554786e-05
1152.0,-0.00027855727239511907
1280.0,1.066426466422854e-05
1408.0,0.0008951298659667373
1536.0,-0.0005741339991800487
1664.0,-0.00037790395435877144
1792.0,0.0001267776679014787
1920.0,-3.2160256523638964e-05
2048.0,-0.00018428702605888247
2304.0,0.0005205640918575227
2560.0,-0.00012669649731833488
2816.0,4.591378092300147e-05
3072.0,-0.00043680609087459743
3328.0,-0.00014572404325008392
3584.0,-7.231579365907237e-05
3840.0,0.00027135692653246224
4096.0,-9.182740177493542e-05
4608.0,0.00020640791626647115
5120.0,1.432339286111528e-05
5632.0,-0.0001613986532902345
6144.0,9.871544898487628e-05
6656.0,-1.0557640962360892e-05
7168.0,-5.338382106856443e-05
7680.0,-0.000245128117967397
8192.0,-0.00018546699720900506
9216.0,-1.1183253263880033e-05
10240.0,3.486736386548728e-05
11264.0,-8.19917768239975e-05
12288.0,-0.0001739564904710278
13312.0,-6.766589649487287e-05
14336.0,0.0001026966274366714
end
