version,3.0
numOfCh,1
type,point
parent_name,800-cuts
ch_type,1_1
kcount,1
numberNandB,1
brightnessNandB,1
carpet pos,0
pc,0
Time (ms),CH1 Auto-Correlation
1.0,0.08005417138338089
2.0,0.07000065594911575
3.0,0.06171662360429764
4.0,0.05468597263097763
5.0,0.04867427051067352
6.0,0.04355155676603317
7.0,0.03906451538205147
8.0,0.03509131073951721
9.0,0.03172534704208374
10.0,0.028863759711384773
11.0,0.026317983865737915
12.0,0.024045506492257118
13.0,0.021829143166542053
14.0,0.019899029284715652
15.0,0.01815805397927761
16.0,0.016876185312867165
18.0,0.014356792904436588
20.0,0.01213139109313488
22.0,0.010797948576509953
24.0,0.008853395469486713
26.0,0.006940532475709915
28.0,0.005548237357288599
30.0,0.004655075259506702
32.0,0.00392061797901988
36.0,0.0031862324103713036
40.0,0.0025110619608312845
44.0,0.0011862626997753978
48.0,0.0007284714374691248
52.0,0.0015511903911828995
56.0,0.0026105837896466255
60.0,0.003209698712453246
64.0,0.003543352708220482
72.0,0.005829419009387493
80.0,0.004574145656079054
88.0,0.002921636449173093
96.0,0.0007465259404852986
104.0,0.0001568844891153276
112.0,9.018400305649266e-05
120.0,0.0006299198721535504
128.0,0.000997877330519259
144.0,-0.001610645093023777
160.0,-0.0019866267684847116
176.0,0.00015631319547537714
192.0,0.003325702855363488
208.0,0.001419181702658534
224.0,-0.0017180026043206453
240.0,0.00020059083180967718
256.0,0.002167413244023919
288.0,-0.0009188914555124938
320.0,-0.0017017096979543567
352.0,-0.0008279222529381514
384.0,-0.0010094838216900826
416.0,-0.0026218986604362726
448.0,0.00028932595159858465
480.0,0.00029549337341450155
512.0,0.0009264295222237706
576.0,0.002220405964180827
640.0,0.0030380780808627605
704.0,0.0015436550602316856
768.0,0.0014570604544132948
832.0,-0.0004237807297613472
896.0,-0.00019765718025155365
960.0,0.0005164130707271397
1024.0,0.000967562897130847
1152.0,-0.0003181335050612688
1280.0,0.0007373018306680024
1408.0,0.00038608035538345575
1536.0,-0.0015298688085749745
1664.0,-0.0005871574394404888
1792.0,0.0010714735835790634
1920.0,0.001408810610882938
2048.0,0.0013501329813152552
2304.0,9.414496889803559e-05
2560.0,-0.0008757907198742032
2816.0,0.0017923201667144895
3072.0,-0.0005072414642199874
3328.0,-0.0006802615826018155
3584.0,-0.00012732134200632572
3840.0,0.0010406812652945518
4096.0,0.0009251785813830793
4608.0,0.0004771774110849947
5120.0,-3.521690530305932e-07
5632.0,-0.0004941179067827761
6144.0,-0.001064978656359017
6656.0,0.000260175991570577
7168.0,-0.00022216634533833712
7680.0,-0.000888682494405657
8192.0,-0.0020684082992374897
9216.0,-0.0004565654380712658
10240.0,-0.0012463454622775316
11264.0,-0.00029872910818085074
12288.0,-0.0005939098191447556
13312.0,7.914390880614519e-05
14336.0,-2.910140210587997e-05
end
