version,3.0
numOfCh,1
type,point
parent_name,800-cuts
ch_type,1_1
kcount,1
numberNandB,1
brightnessNandB,1
carpet pos,0
pc,0
Time (ms),CH1 Auto-Correlation
1.0,0.024462636560201645
2.0,0.0215932484716177
3.0,0.019229717552661896
4.0,0.017163604497909546
5.0,0.015403220430016518
6.0,0.013829166069626808
7.0,0.012430604547262192
8.0,0.011301485821604729
9.0,0.010321547277271748
10.0,0.009472230449318886
11.0,0.008716320618987083
12.0,0.007984261959791183
13.0,0.007304327562451363
14.0,0.006644976790994406
15.0,0.006076402962207794
16.0,0.005581661593168974
18.0,0.004640486091375351
20.0,0.0037678168155252934
22.0,0.0030974631663411856
24.0,0.0026119747199118137
26.0,0.0022068882826715708
28.0,0.0017668958753347397
30.0,0.0014322677161544561
32.0,0.0011331638088449836
36.0,0.0006160404300317168
40.0,0.00025875429855659604
44.0,0.00030278880149126053
48.0,0.000454751803772524
52.0,0.0004736622213385999
56.0,0.00048428526497446
60.0,0.00021011063654441386
64.0,8.785570389591157e-05
72.0,0.00030614243587478995
80.0,0.0004120150115340948
88.0,8.51750883157365e-05
96.0,0.0004836996959056705
104.0,0.0010009590769186616
112.0,0.0009149557445198298
120.0,0.0008066072477959096
128.0,6.595187005586922e-05
144.0,0.00010595394996926188
160.0,0.0009994987631216645
176.0,0.00025013525737449527
192.0,-0.0010609837481752038
208.0,-0.0017118221148848534
224.0,-0.0004999261000193655
240.0,-0.0007187937735579908
256.0,-0.0009224569075740874
288.0,-0.0010494571179151535
320.0,-0.0005078042158856988
352.0,-0.0002803995448630303
384.0,-0.0004293791716918349
416.0,-0.0003669677535071969
448.0,-0.0003055684210266918
480.0,0.0005222830222919583
512.0,-1.479081856814446e-05
576.0,-0.00030155215063132346
640.0,-0.0003197095647919923
704.0,-0.0009946790523827076
768.0,-0.0007453399011865258
832.0,-4.157889634370804e-05
896.0,0.0004991193418391049
960.0,0.00020457408390939236
1024.0,0.00044663509470410645
1152.0,-0.000372469425201416
1280.0,-0.0006684944382868707
1408.0,0.0005088223842903972
1536.0,0.0002802919188980013
1664.0,-0.0003093236591666937
1792.0,-0.0010391103569418192
1920.0,0.0004955658805556595
2048.0,0.00026688328944146633
2304.0,6.0217775171622634e-05
2560.0,0.00027699832571670413
2816.0,0.0005783757660537958
3072.0,-3.8089870031399187e-06
3328.0,-0.00023628093185834587
3584.0,-0.0001787293003872037
3840.0,7.46142613934353e-05
4096.0,-0.0007985285483300686
4608.0,1.8899250790127553e-05
5120.0,6.0775601014029235e-05
5632.0,0.0001761156745487824
6144.0,2.2042759155738167e-05
6656.0,-0.0004852268029935658
7168.0,0.0002024185669142753
7680.0,2.635082637425512e-05
8192.0,0.00026147541939280927
9216.0,3.326083242427558e-05
10240.0,0.00012534212146420032
11264.0,-2.08065212063957e-05
12288.0,-0.00032676223781891167
13312.0,1.7288359231315553e-05
14336.0,0.0004748340288642794
end
