version,3.0
numOfCh,1
type,point
parent_name,800-cuts
ch_type,1_1
kcount,1
numberNandB,1
brightnessNandB,1
carpet pos,0
pc,0
Time (ms),CH1 Auto-Correlation
1.0,0.079709492623806
2.0,0.06966541707515717
3.0,0.061191871762275696
4.0,0.05405145883560181
5.0,0.047767262905836105
6.0,0.04212363064289093
7.0,0.037290651351213455
8.0,0.03292557969689369
9.0,0.029528986662626266
10.0,0.026558542624115944
11.0,0.0238626878708601
12.0,0.021453041583299637
13.0,0.019210319966077805
14.0,0.017416756600141525
15.0,0.016202613711357117
16.0,0.014956474304199219
18.0,0.01270986907184124
20.0,0.01089673861861229
22.0,0.009322522208094597
24.0,0.007709083147346973
26.0,0.006231836974620819
28.0,0.005088967736810446
30.0,0.004323399625718594
32.0,0.004168379120528698
36.0,0.003193614771589637
40.0,0.0021859859116375446
44.0,0.0022517803590744734
48.0,0.0026129628531634808
52.0,0.0027705866377800703
56.0,0.003002690151333809
60.0,0.002066453220322728
64.0,0.0013202130794525146
72.0,0.0019154517212882638
80.0,0.002631676383316517
88.0,0.0037517293822020292
96.0,0.003446907037869096
104.0,0.002246417570859194
112.0,0.0011842349776998162
120.0,0.001208784757182002
128.0,0.0021962567698210478
144.0,0.001741574378684163
160.0,0.003869258100166917
176.0,0.002758808434009552
192.0,0.0018031391082331538
208.0,-0.002204786753281951
224.0,-0.001781541621312499
240.0,-0.000410640292102471
256.0,-0.0017369325505569577
288.0,-0.0022770408540964127
320.0,-0.0010945395333692431
352.0,0.0008227630751207471
384.0,-0.0009221511427313089
416.0,-0.0007943022064864635
448.0,-0.0030429905746132135
480.0,0.0002070182526949793
512.0,0.0019966091495007277
576.0,0.0018467166228219867
640.0,0.0006532772094942629
704.0,0.002705242019146681
768.0,0.0011309495894238353
832.0,0.0009868228808045387
896.0,0.0013841897016391158
960.0,-0.00040672250906936824
1024.0,-0.001376490923576057
1152.0,-0.0013948328560218215
1280.0,0.0008938949904404581
1408.0,0.00021555407147388905
1536.0,0.00017436438065487891
1664.0,-0.0023677826393395662
1792.0,-0.000425725185777992
1920.0,2.3235281332745217e-05
2048.0,0.00018057094712276012
2304.0,-0.0018400476546958089
2560.0,-0.0015799396205693483
2816.0,0.0016143092652782798
3072.0,-0.0017888399306684732
3328.0,-0.0006102776969783008
3584.0,0.00045765709364786744
3840.0,-0.001118222251534462
4096.0,-0.0005704023642465472
4608.0,-0.0003878053976222873
5120.0,-0.0010128851281479
5632.0,0.0012214292073622346
6144.0,0.0006591432611458004
6656.0,0.0022182816173881292
7168.0,0.0008704620413482189
7680.0,0.0002793908060993999
8192.0,-0.0008293472928926349
9216.0,-0.0010800064774230123
10240.0,-0.0001829079701565206
11264.0,-0.0004951724549755454
12288.0,0.0005394397303462029
13312.0,0.0007224894361570477
14336.0,9.826692985370755e-05
end
