version,3.0
numOfCh,1
type,point
parent_name,800-cuts
ch_type,1_1
kcount,1
numberNandB,1
brightnessNandB,1
carpet pos,0
pc,0
Time (ms),CH1 Auto-Correlation
1.0,0.0261476282030344
2.0,0.022946797311306
3.0,0.02021723799407482
4.0,0.017857948318123817
5.0,0.015867825597524643
6.0,0.014169256202876568
7.0,0.012703195214271545
8.0,0.011363706551492214
9.0,0.010322040878236294
10.0,0.009371553547680378
11.0,0.0086211534217
12.0,0.007972278632223606
13.0,0.0073686400428414345
14.0,0.006790801417082548
15.0,0.006327920127660036
16.0,0.005915161222219467
18.0,0.005074214655905962
20.0,0.004463002551347017
22.0,0.003964684437960386
24.0,0.0035023302771151066
26.0,0.002941893646493554
28.0,0.002499006222933531
30.0,0.0022034680005162954
32.0,0.00193495093844831
36.0,0.0013343127211555839
40.0,0.0012943391920998693
44.0,0.0011567628243938088
48.0,0.001278716721571982
52.0,0.0011126616736873984
56.0,0.0008445242419838905
60.0,0.0007722110603936017
64.0,0.0006783137796446681
72.0,0.0010201490949839354
80.0,0.0006470363005064428
88.0,0.00020697906438726932
96.0,0.00039143659523688257
104.0,0.0009642788209021091
112.0,0.0005495587247423828
120.0,0.00044608465395867825
128.0,-0.00021997501607984304
144.0,3.8447131373686716e-05
160.0,-0.0005440596141852438
176.0,-0.0004168020386714488
192.0,-0.00022168060240801424
208.0,-0.000487498618895188
224.0,-0.0010292020160704851
240.0,-5.9746947954408824e-05
256.0,3.54348958353512e-05
288.0,-7.517899211961776e-05
320.0,0.0003843274025712162
352.0,6.314638449111953e-05
384.0,0.001068970188498497
416.0,0.0007321596494875848
448.0,-0.00039868021849542856
480.0,0.0004974262556061149
512.0,-0.00032933190232142806
576.0,-0.0017413034802302718
640.0,-0.0008602814050391316
704.0,-0.0008038616506382823
768.0,-0.00022201385581865907
832.0,0.0004775200504809618
896.0,-6.245281838346273e-05
960.0,-0.0010286029428243637
1024.0,-0.0005617665592581034
1152.0,0.0005548683111555874
1280.0,0.001114998129196465
1408.0,-0.00020633164967875928
1536.0,0.00042246212251484394
1664.0,0.0004817374865524471
1792.0,-0.0011787486728280783
1920.0,-0.00021923796157352626
2048.0,-0.0003840211720671505
2304.0,-9.197241888614371e-05
2560.0,0.0001512567832833156
2816.0,0.0002233952545793727
3072.0,-0.0003330826875753701
3328.0,-0.0007007469539530575
3584.0,-0.0002950405760202557
3840.0,0.00029779598116874695
4096.0,0.0007178412051871419
4608.0,-0.000363818253390491
5120.0,0.00042692170245572925
5632.0,9.09787995624356e-05
6144.0,0.00011370312859071419
6656.0,8.921301923692226e-05
7168.0,-0.000164507218869403
7680.0,-0.00031077268067747355
8192.0,0.00021971466776449233
9216.0,0.00022587341663893312
10240.0,-6.751799810444936e-05
11264.0,7.81206545070745e-05
12288.0,-0.0004802876792382449
13312.0,0.0005098528927192092
14336.0,-0.00042253578430972993
end
