version,3.0
numOfCh,1
type,point
parent_name,800-cuts
ch_type,1_1
kcount,1
numberNandB,1
brightnessNandB,1
carpet pos,0
pc,0
Time (ms),CH1 Auto-Correlation
1.0,0.02451431378722191
2.0,0.021483635529875755
3.0,0.01893528364598751
4.0,0.016773052513599396
5.0,0.015031346119940281
6.0,0.013494067825376987
7.0,0.012183940969407558
8.0,0.011038955301046371
9.0,0.01009339652955532
10.0,0.009200042113661766
11.0,0.008480709977447987
12.0,0.00780123844742775
13.0,0.007184094283729792
14.0,0.006713191978633404
15.0,0.006246922072023153
16.0,0.005887415260076523
18.0,0.005088220350444317
20.0,0.004337347578257322
22.0,0.003704835893586278
24.0,0.0032221176661551
26.0,0.0027841210830956697
28.0,0.0024780877865850925
30.0,0.00222772266715765
32.0,0.0018154779681935906
36.0,0.0010559961665421724
40.0,0.0007793880649842322
44.0,0.0007228286121971905
48.0,0.0008124389569275081
52.0,0.000554901547729969
56.0,5.452037657960318e-05
60.0,4.9485755880596116e-05
64.0,5.21341607964132e-05
72.0,0.00029630056815221906
80.0,0.0004521690425463021
88.0,0.0005999996792525053
96.0,0.0002730816195253283
104.0,-5.492541731655365e-06
112.0,-0.00014560759882442653
120.0,0.00019933530711568892
128.0,0.0003937949368264526
144.0,0.0005252112750895321
160.0,0.0009455943363718688
176.0,0.0004044452798552811
192.0,0.00021768247825093567
208.0,-5.206002970226109e-05
224.0,-0.00043185922550037503
240.0,-0.00013294524978846312
256.0,-0.0003817532560788095
288.0,-0.0007639258983545005
320.0,-0.000615922617726028
352.0,-0.0001992553152376786
384.0,-7.726557669229805e-05
416.0,3.0070175853325054e-05
448.0,0.00014088918396737427
480.0,-0.0008645495399832726
512.0,-0.00013760954607278109
576.0,-0.0004715845570899546
640.0,0.00030467979377135634
704.0,-0.0001850293338065967
768.0,0.0005230302922427654
832.0,-0.0005372005980461836
896.0,-0.00015361237456090748
960.0,0.000775515625718981
1024.0,-4.545030151348328e-06
1152.0,-0.0007083061500452459
1280.0,-0.0002777694317046553
1408.0,-0.0008326068636961281
1536.0,0.0001699312124401331
1664.0,0.0002336618199478835
1792.0,-0.00026212428929284215
1920.0,-0.0003015355614479631
2048.0,0.0003292684559710324
2304.0,2.6754860300570726e-05
2560.0,-0.000312112329993397
2816.0,-3.6319150240160525e-05
3072.0,3.744047353393398e-05
3328.0,-0.00028821162413805723
3584.0,4.8294463340425864e-05
3840.0,6.127237429609522e-05
4096.0,0.0003412328951526433
4608.0,4.960007208865136e-05
5120.0,-0.0001599173847353086
5632.0,0.00014392368029803038
6144.0,-0.00013284015585668385
6656.0,6.699138612020761e-05
7168.0,5.41119443369098e-05
7680.0,-0.00016227707965299487
8192.0,0.00011271443509031087
9216.0,-0.00027613886049948633
10240.0,0.0003631457220762968
11264.0,-0.00018360746616963297
12288.0,0.00023048701405059546
13312.0,-0.0006976635195314884
14336.0,0.00020821031648665667
end
