version,3.0
numOfCh,1
type,point
parent_name,800-cuts
ch_type,1_1
kcount,1
numberNandB,1
brightnessNandB,1
carpet pos,0
pc,0
Time (ms),CH1 Auto-Correlation
1.0,0.042143646627664566
2.0,0.03721204400062561
3.0,0.03320637345314026
4.0,0.029768137261271477
5.0,0.026807082816958427
6.0,0.02422521635890007
7.0,0.021936792880296707
8.0,0.019795546308159828
9.0,0.01769212633371353
10.0,0.015920883044600487
11.0,0.014441130682826042
12.0,0.013010293245315552
13.0,0.01180054061114788
14.0,0.010717825964093208
15.0,0.00981266051530838
16.0,0.008977734483778477
18.0,0.007643517572432756
20.0,0.006398927886039019
22.0,0.005412261001765728
24.0,0.004634188953787088
26.0,0.004055432043969631
28.0,0.003483171807602048
30.0,0.0030295175965875387
32.0,0.0028780086431652308
36.0,0.0024427673779428005
40.0,0.0016932591097429395
44.0,0.00140211614780128
48.0,0.0009952991968020797
52.0,-0.0001722184824757278
56.0,-0.0009169330587610602
60.0,-0.0014114311197772622
64.0,-0.002394009381532669
72.0,-0.0025506478268653154
80.0,-0.0019480157643556595
88.0,-0.0013630505418404937
96.0,-0.000996160670183599
104.0,-0.0006485641933977604
112.0,-0.0007563297403976321
120.0,0.0002739691117312759
128.0,0.0006360162515193224
144.0,4.465114398044534e-05
160.0,0.0013680928386747837
176.0,0.0022770508658140898
192.0,0.001254555070772767
208.0,0.0008413302712142467
224.0,-0.0004981390084140003
240.0,-0.0011596438707783818
256.0,-0.0007662242278456688
288.0,0.00014782119251322
320.0,-0.000997786526568234
352.0,0.0003659602371044457
384.0,0.0009195059537887573
416.0,0.0012800301192328334
448.0,7.999927765922621e-05
480.0,-0.0014144539600238204
512.0,-0.001912841689772904
576.0,-0.0012873203959316015
640.0,-0.0012055902043357491
704.0,-0.0005447074654512107
768.0,-0.0007173407357186079
832.0,-0.0012196202296763659
896.0,-0.00036072570946998894
960.0,-0.00023469542793463916
1024.0,-0.0006738868542015553
1152.0,0.0004148254811298102
1280.0,-0.0003030304505955428
1408.0,-0.00015906699991319329
1536.0,0.00015139707829803228
1664.0,0.00016175175551325083
1792.0,-0.00017931143520399928
1920.0,4.304715184844099e-05
2048.0,0.0007494007586501539
2304.0,0.00013941679208073765
2560.0,-0.000488574500195682
2816.0,1.1375248504919e-05
3072.0,-0.0002261474437545985
3328.0,0.0005288894753903151
3584.0,0.00018982533947564662
3840.0,0.00028231547912582755
4096.0,-0.0001575740025145933
4608.0,-0.0006222608499228954
5120.0,3.0151191822369583e-05
5632.0,0.00035393075086176395
6144.0,-0.0003612177388276905
6656.0,3.6476951208896935e-05
7168.0,0.0002910410694312304
7680.0,-0.0001500821381341666
8192.0,-0.000743572018109262
9216.0,0.0003328054735902697
10240.0,-0.00035132953780703247
11264.0,0.0003188729169778526
12288.0,-0.00027710478752851486
13312.0,0.00017818289052229375
14336.0,-0.00012679157953243703
end
