version,3.0
numOfCh,1
type,point
parent_name,800-cuts
ch_type,1_1
kcount,1
numberNandB,1
brightnessNandB,1
carpet pos,0
pc,0
Time (ms),CH1 Auto-Correlation
1.0,0.026209570467472076
2.0,0.023191489279270172
3.0,0.020579678937792778
4.0,0.018222196027636528
5.0,0.016200900077819824
6.0,0.014545786194503307
7.0,0.013099354691803455
8.0,0.011731168255209923
9.0,0.010563853196799755
10.0,0.00952629093080759
11.0,0.008794629015028477
12.0,0.00813150405883789
13.0,0.0075364368967711926
14.0,0.0070136534050107
15.0,0.006478951778262854
16.0,0.005936149973422289
18.0,0.005114750470966101
20.0,0.004357938654720783
22.0,0.003748327726498246
24.0,0.0032445096876472235
26.0,0.002851212164387107
28.0,0.0023673914838582277
30.0,0.0018311740132048726
32.0,0.0014168244088068604
36.0,0.0009682426461949944
40.0,0.00089363002916798
44.0,0.0009267391869798303
48.0,0.0008857499924488366
52.0,0.0006195456371642649
56.0,0.000272574630798772
60.0,0.00012733983749058098
64.0,-0.00024463082081638277
72.0,-0.0004231590428389609
80.0,-0.00020545770530588925
88.0,-0.00016790397057775408
96.0,-8.141648322634865e-06
104.0,-0.0001057942645275034
112.0,-0.0005424837581813335
120.0,-0.000324223714414984
128.0,-7.115015614544973e-05
144.0,-0.00018637851462699473
160.0,-0.0005395947373472154
176.0,0.0004492182342801243
192.0,0.00037732202326878905
208.0,-7.93638319009915e-05
224.0,-0.00028463665512390435
240.0,0.0005762287764810026
256.0,0.0005023144767619669
288.0,0.0005480640684254467
320.0,0.00017620531434658915
352.0,0.0007631369517184794
384.0,-6.38612182228826e-05
416.0,-0.00045311852591112256
448.0,0.00017389659478794783
480.0,0.001145614543929696
512.0,0.0003950028622057289
576.0,-0.0009369056206196547
640.0,-0.0004433566064108163
704.0,-0.00038932953611947596
768.0,-0.00018638023175299168
832.0,4.961922240909189e-05
896.0,0.0002917879319284111
960.0,-0.00011711136903613806
1024.0,0.00041768906521610916
1152.0,-0.0001329164078924805
1280.0,-0.00033253803849220276
1408.0,-0.0001962612586794421
1536.0,-0.0003537001903168857
1664.0,-0.00022285438899416476
1792.0,-0.000976722571067512
1920.0,0.0001343827898381278
2048.0,0.000205068223294802
2304.0,-0.00027987753855995834
2560.0,-0.0002469778119120747
2816.0,-0.00022836870630271733
3072.0,-9.60365214268677e-05
3328.0,-0.0002738366019912064
3584.0,-0.0002048197202384472
3840.0,0.00025383324827998877
4096.0,0.0007483295048587024
4608.0,0.0004241019778419286
5120.0,-5.9283225709805265e-05
5632.0,6.262346141738817e-05
6144.0,-0.00027460127603262663
6656.0,-0.0002167945640394464
7168.0,-0.0002437892835587263
7680.0,-0.00041918945498764515
8192.0,0.00031373894307762384
9216.0,0.00039387340075336397
10240.0,-0.00033527734922245145
11264.0,-0.00014728667156305164
12288.0,0.00034629905712790787
13312.0,-4.728477506432682e-05
14336.0,-8.03966831881553e-05
end
