version,3.0
numOfCh,1
type,point
parent_name,800-cuts
ch_type,1_1
kcount,1
numberNandB,1
brightnessNandB,1
carpet pos,0
pc,0
Time (ms),CH1 Auto-Correlation
1.0,0.09661591053009033
2.0,0.08571869879961014
3.0,0.07627033442258835
4.0,0.06779371201992035
5.0,0.06095588952302933
6.0,0.05512493476271629
7.0,0.049835216253995895
8.0,0.045097820460796356
9.0,0.041006240993738174
10.0,0.037518009543418884
11.0,0.03450179472565651
12.0,0.03174414113163948
13.0,0.029171619564294815
14.0,0.02684929035604
15.0,0.02478669211268425
16.0,0.02293894998729229
18.0,0.019458506256341934
20.0,0.016216542571783066
22.0,0.013303657062351704
24.0,0.011066223494708538
26.0,0.00986995454877615
28.0,0.009582317434251308
30.0,0.008898944593966007
32.0,0.0077588786371052265
36.0,0.005733754485845566
40.0,0.0033616500440984964
44.0,0.002155343536287546
48.0,0.0018202572828158736
52.0,0.00027788005536422133
56.0,-0.0006537169101648033
60.0,-0.0004034903540741652
64.0,-7.882262252678629e-06
72.0,0.0006335103535093367
80.0,0.0011061551049351692
88.0,0.00197030371055007
96.0,0.0008051057811826468
104.0,0.0018963527400046587
112.0,0.0019837412983179092
120.0,0.0004458471084944904
128.0,0.0008901195833459496
144.0,-0.0030592840630561113
160.0,-0.003754089353606105
176.0,-0.0028862461913377047
192.0,-0.0017140144482254982
208.0,0.0005754785961471498
224.0,3.856535840895958e-05
240.0,0.0005820385413244367
256.0,0.0012316580396145582
288.0,0.0004747496859636158
320.0,0.0023488649167120457
352.0,-0.00031169361318461597
384.0,-0.0064849029295146465
416.0,-0.0038716343697160482
448.0,-0.0006572725833393633
480.0,-0.001578567666001618
512.0,-0.0026659369468688965
576.0,0.003010277869179845
640.0,0.001967065501958132
704.0,0.0038047393318265676
768.0,0.001023501972667873
832.0,-0.00127581472042948
896.0,-0.00036332974559627473
960.0,-0.0004275126557331532
1024.0,-0.0003911949461326003
1152.0,0.0009216383914463222
1280.0,0.0023282908368855715
1408.0,0.0005372228333726525
1536.0,-0.0012474326649680734
1664.0,0.00031083240173757076
1792.0,-0.00030297014745883644
1920.0,0.003012504894286394
2048.0,0.0012757902732118964
2304.0,-0.00020683616457972676
2560.0,0.0002550540375523269
2816.0,-0.0004987333668395877
3072.0,0.0004996989737264812
3328.0,0.000559341860935092
3584.0,-0.00020639027934521437
3840.0,-0.0002944669686257839
4096.0,0.0015259914798662066
4608.0,-0.0010868222452700138
5120.0,-4.7515375626971945e-05
5632.0,-0.0009547132649458945
6144.0,0.00047269006608985364
6656.0,-0.0019491399871185422
7168.0,-0.0016462329076603055
7680.0,-0.00039333500899374485
8192.0,-0.00034041961771436036
9216.0,5.733417492592707e-05
10240.0,-0.00034079066244885325
11264.0,-0.0009935591369867325
12288.0,0.00017810195276979357
13312.0,0.0005554751842282712
14336.0,-0.00014434801414608955
end
