version,3.0
numOfCh,1
type,point
parent_name,800-cuts
ch_type,1_1
kcount,1
numberNandB,1
brightnessNandB,1
carpet pos,0
pc,0
Time (ms),CH1 Auto-Correlation
1.0,0.08444932848215103
2.0,0.0736549124121666
3.0,0.06440399587154388
4.0,0.05688273161649704
5.0,0.05059214308857918
6.0,0.04568138346076012
7.0,0.04131791740655899
8.0,0.037219587713479996
9.0,0.03395269438624382
10.0,0.03137258440256119
11.0,0.02907072752714157
12.0,0.026982862502336502
13.0,0.02505279704928398
14.0,0.023539796471595764
15.0,0.021651526913046837
16.0,0.019950587302446365
18.0,0.017401043325662613
20.0,0.01524767279624939
22.0,0.013052471913397312
24.0,0.011114089749753475
26.0,0.009471305646002293
28.0,0.008358468301594257
30.0,0.007979870773851871
32.0,0.007892932742834091
36.0,0.007074811961501837
40.0,0.005734976381063461
44.0,0.004605777561664581
48.0,0.002761164680123329
52.0,0.0011381094809621572
56.0,-0.0007347161881625652
60.0,-0.002106273081153631
64.0,-0.0020093140192329884
72.0,-0.0011351254070177674
80.0,-0.0012844002339988947
88.0,-0.0016311940271407366
96.0,-0.001576860435307026
104.0,-0.0014730641851201653
112.0,-0.0013985376572236419
120.0,-0.0024687035474926233
128.0,-0.003990538883954287
144.0,-0.002020951360464096
160.0,-0.0030555042903870344
176.0,-0.0038729433435946703
192.0,-0.003768275026232004
208.0,-0.003314277855679393
224.0,-0.004151082132011652
240.0,-0.00206060241907835
256.0,0.0010452832793816924
288.0,0.0007620208780281246
320.0,0.001081844326108694
352.0,0.0010096206096932292
384.0,-6.757895607734099e-05
416.0,0.002531095640733838
448.0,0.0006836833199486136
480.0,-0.0013497743057087064
512.0,-0.000308888586005196
576.0,-0.0010851462138816714
640.0,-0.0008822234231047332
704.0,0.0009693009778857231
768.0,-0.0007097808411344886
832.0,-0.0009438277338631451
896.0,0.0018892044899985194
960.0,0.0033021478448063135
1024.0,0.0007883212529122829
1152.0,-0.001116779982112348
1280.0,-0.0016128981951624155
1408.0,-0.0006191927241161466
1536.0,-0.0012675359612330794
1664.0,0.0015837365062907338
1792.0,-0.0009636198519729078
1920.0,-0.0001524065446574241
2048.0,-0.00024791984469629824
2304.0,-0.0014354215236380696
2560.0,0.0001352922699879855
2816.0,0.001317505957558751
3072.0,-0.000576822436414659
3328.0,-0.0004316153354011476
3584.0,0.00018751865718513727
3840.0,-0.0006101043545641005
4096.0,0.0009077988797798753
4608.0,0.0002546083997003734
5120.0,0.00036430684849619865
5632.0,0.0005375655018724501
6144.0,0.00011162102600792423
6656.0,-0.0010196332586929202
7168.0,-0.00011897490185219795
7680.0,-0.0010767914354801178
8192.0,0.0004930884460918605
9216.0,-0.00011164612806169316
10240.0,0.00034704720019362867
11264.0,0.00037456434802152216
12288.0,-0.0011119305854663253
13312.0,0.00039831537287682295
14336.0,0.0005794808967038989
end
