version,3.0
numOfCh,1
type,point
parent_name,800-cuts
ch_type,1_1
kcount,1
numberNandB,1
brightnessNandB,1
carpet pos,0
pc,0
Time (ms),CH1 Auto-Correlation
1.0,0.04005473107099533
2.0,0.035054583102464676
3.0,0.030880512669682503
4.0,0.02736671082675457
5.0,0.024431338533759117
6.0,0.021787378937005997
7.0,0.019596867263317108
8.0,0.017578236758708954
9.0,0.01574791595339775
10.0,0.014334927313029766
11.0,0.013264150358736515
12.0,0.012360512278974056
13.0,0.011475038714706898
14.0,0.01042779628187418
15.0,0.009538386017084122
16.0,0.008887688629329205
18.0,0.007663274649530649
20.0,0.006698423530906439
22.0,0.005748038180172443
24.0,0.005219423212110996
26.0,0.004498347640037537
28.0,0.003596133552491665
30.0,0.00262026977725327
32.0,0.0018611517734825611
36.0,0.0011550403432920575
40.0,0.0005613927496597171
44.0,0.00010840039612958208
48.0,-0.0002297905011801049
52.0,-0.00014671788085252047
56.0,-0.00012573278218042105
60.0,0.00012384849833324552
64.0,0.0006572205456905067
72.0,0.0008395630866289139
80.0,0.000490753969643265
88.0,0.00020714709535241127
96.0,-0.0010956149781122804
104.0,-0.0012192821595817804
112.0,-0.000500289024785161
120.0,0.00011508427269291133
128.0,5.828372741234489e-05
144.0,-0.0010245292214676738
160.0,-0.0011628702050074935
176.0,0.0004020524793304503
192.0,0.0005596553673967719
208.0,-0.0008899054955691099
224.0,-0.0015955317066982388
240.0,0.00021096995624247938
256.0,0.0004030660493299365
288.0,-0.001631785649806261
320.0,-0.0013594552874565125
352.0,0.00032191062928177416
384.0,-0.0003809531044680625
416.0,-0.0017981714336201549
448.0,-0.00037393663660623133
480.0,-0.0003365827433299273
512.0,-0.0010612020269036293
576.0,-0.0004551373131107539
640.0,5.85330453759525e-05
704.0,-0.0005287611857056618
768.0,-0.0014236592687666416
832.0,-3.249863948440179e-05
896.0,-0.0003890036605298519
960.0,-8.01084897830151e-05
1024.0,0.0013453441206365824
1152.0,0.0003358109970577061
1280.0,2.463365308358334e-05
1408.0,-0.0008104618173092604
1536.0,-0.0005227660876698792
1664.0,3.487033609417267e-05
1792.0,0.00018975083366967738
1920.0,-0.0006386649911291897
2048.0,-0.0002721514902077615
2304.0,0.0004763376200571656
2560.0,0.0006039707805030048
2816.0,-0.00031619431683793664
3072.0,-0.0011530822375789285
3328.0,0.0007668814505450428
3584.0,8.871623140294105e-05
3840.0,-0.0004847102100029588
4096.0,-0.0005382689996622503
4608.0,0.0009186137467622757
5120.0,-0.0005357356276363134
5632.0,5.938015237916261e-05
6144.0,-0.00021723700047004968
6656.0,0.00021249549172353
7168.0,0.0002539282140787691
7680.0,-0.0003956790314987302
8192.0,0.00018539906886871904
9216.0,5.4119031119626015e-05
10240.0,-4.0656199416844174e-05
11264.0,8.953491487773135e-05
12288.0,-3.0139339287416078e-05
13312.0,-0.00016720160783734173
14336.0,0.00011305613588774577
end
