version,3.0
numOfCh,1
type,point
parent_name,800-cuts
ch_type,1_1
kcount,1
numberNandB,1
brightnessNandB,1
carpet pos,0
pc,0
Time (ms),CH1 Auto-Correlation
1.0,0.03551056608557701
2.0,0.03123772330582142
3.0,0.027590138837695122
4.0,0.024383479729294777
5.0,0.021647565066814423
6.0,0.019326386973261833
7.0,0.017314482480287552
8.0,0.015524793416261673
9.0,0.014029319398105145
10.0,0.012737929821014404
11.0,0.011606210842728615
12.0,0.01057329960167408
13.0,0.00963733159005642
14.0,0.008728617802262306
15.0,0.007900598458945751
16.0,0.0070861815474927425
18.0,0.00581889133900404
20.0,0.004971663001924753
22.0,0.004177180118858814
24.0,0.0033272497821599245
26.0,0.0025515842717140913
28.0,0.002076843287795782
30.0,0.0016493652947247028
32.0,0.0012718848884105682
36.0,0.0002719607437029481
40.0,-0.0008859977824613452
44.0,-0.0015180703485384583
48.0,-0.0021084523759782314
52.0,-0.0026107165031135082
56.0,-0.00260817795060575
60.0,-0.0019484073854982853
64.0,-0.0010662686545401812
72.0,2.6217051072308095e-06
80.0,0.0006722098914906383
88.0,0.00144850998185575
96.0,0.002142846118658781
104.0,0.0023554430808871984
112.0,0.0023648454807698727
120.0,0.0014018157962709665
128.0,0.001012754044495523
144.0,-0.0012158361496403813
160.0,-0.0006258371286094189
176.0,-0.0005328410188667476
192.0,0.0010423066560178995
208.0,0.0010270315688103437
224.0,-0.00015455964603461325
240.0,0.0008106593159027398
256.0,0.001043439726345241
288.0,-0.0010402282932773232
320.0,0.0006105359643697739
352.0,-6.489072256954387e-05
384.0,-0.0013144470285624266
416.0,0.00023720359604340047
448.0,0.0010042692301794887
480.0,-0.0007971657905727625
512.0,-0.0007433411665260792
576.0,0.0010257815010845661
640.0,0.0009073155815713108
704.0,-3.130424374830909e-05
768.0,-7.575612107757479e-05
832.0,0.0006240832153707743
896.0,-0.0004836980369873345
960.0,-0.001039896858856082
1024.0,-0.0004533061000984162
1152.0,-9.722832328407094e-05
1280.0,0.000157798029249534
1408.0,-0.0001788310328265652
1536.0,-4.635258392227115e-06
1664.0,-0.00012285250704735518
1792.0,1.0264026059303433e-05
1920.0,0.0005261701880954206
2048.0,-0.0002395673654973507
2304.0,-0.00016115936159621924
2560.0,-0.000283782253973186
2816.0,-0.0002916599914897233
3072.0,-0.0002811734739225358
3328.0,-0.0010087102418765426
3584.0,0.0003668479039333761
3840.0,1.4869464393996168e-05
4096.0,-0.00011464181443443522
4608.0,0.000608869013376534
5120.0,9.473174577578902e-05
5632.0,-0.00027216674061492085
6144.0,0.00037139642518013716
6656.0,0.0001553673791931942
7168.0,-0.00012663545203395188
7680.0,-0.0002880490792449564
8192.0,-0.0006048046634532511
9216.0,-0.00015945504128467292
10240.0,0.00013290510105434805
11264.0,0.00033468587207607925
12288.0,-0.00042860349640250206
13312.0,-0.0002676899894140661
14336.0,3.8010002754163e-05
end
