version,3.0
numOfCh,1
type,point
parent_name,800-cuts
ch_type,1_1
kcount,1
numberNandB,1
brightnessNandB,1
carpet pos,0
pc,0
Time (ms),CH1 Auto-Correlation
1.0,0.03788822144269943
2.0,0.03339844569563866
3.0,0.029561471194028854
4.0,0.026256265118718147
5.0,0.02329307422041893
6.0,0.020897647365927696
7.0,0.01877409592270851
8.0,0.016898320987820625
9.0,0.015283534303307533
10.0,0.013864840380847454
11.0,0.012617120519280434
12.0,0.011381675489246845
13.0,0.010249587707221508
14.0,0.009336622431874275
15.0,0.0084652965888381
16.0,0.007625477854162455
18.0,0.006407605018466711
20.0,0.005553196184337139
22.0,0.004991851281374693
24.0,0.004504008684307337
26.0,0.0038637917023152113
28.0,0.0031835497356951237
30.0,0.0025075192097574472
32.0,0.001955848652869463
36.0,0.0012343870475888252
40.0,0.00018219192861579359
44.0,-0.00014449305308517069
48.0,-0.0006651314906775951
52.0,-0.0010473865550011396
56.0,-0.0012185935629531741
60.0,-0.0013124807737767696
64.0,-0.0012297582579776645
72.0,-0.0007302599842660129
80.0,-0.00030912234797142446
88.0,0.0006002025329507887
96.0,0.001266129082068801
104.0,0.00016769813373684883
112.0,-0.00023247499484568834
120.0,0.0006690103327855468
128.0,0.001189095200970769
144.0,0.0015229909913614392
160.0,0.0012839905684813857
176.0,0.0005964189767837524
192.0,-0.000336283614160493
208.0,-4.581375833367929e-05
224.0,0.0002933162322733551
240.0,0.00039155062404461205
256.0,-5.46479677723255e-05
288.0,0.0007765102200210094
320.0,0.001293342444114387
352.0,0.0001489415008109063
384.0,-0.00021082721650600433
416.0,-0.0010244003497064114
448.0,-0.0014822446973994374
480.0,0.0009103952324949205
512.0,0.0004975897609256208
576.0,-0.0005270185065455735
640.0,0.000557069550268352
704.0,-0.0008019322995096445
768.0,-0.00011724745854735374
832.0,-0.0006941903266124427
896.0,-0.000990819069556892
960.0,0.0007298029377125204
1024.0,-0.000617281417362392
1152.0,-1.1022026228602044e-05
1280.0,0.0001535878691356629
1408.0,-0.0004345717607066035
1536.0,0.0007623204146511853
1664.0,9.589746332494542e-05
1792.0,0.0008661281317472458
1920.0,-0.0002303865330759436
2048.0,0.0007309955544769764
2304.0,-0.0001080595247913152
2560.0,9.089926606975496e-05
2816.0,-0.0002497507957741618
3072.0,7.078174530761316e-05
3328.0,-0.0001963379472726956
3584.0,0.00014012712927069515
3840.0,0.0002908608003053814
4096.0,0.0008668666705489159
4608.0,-0.000661714468151331
5120.0,-0.0002506825840100646
5632.0,0.00022110207646619529
6144.0,3.473247852525674e-05
6656.0,-0.0007745095645077527
7168.0,1.4123181244940497e-05
7680.0,-0.00021918024867773056
8192.0,0.0001868021790869534
9216.0,-0.00036485999589785933
10240.0,3.1338087865151465e-05
11264.0,-0.00016275339294224977
12288.0,1.639236415940104e-06
13312.0,-0.00011987816833425313
14336.0,1.4960446605982725e-05
end
