version,3.0
numOfCh,1
type,point
parent_name,800-cuts
ch_type,1_1
kcount,1
numberNandB,1
brightnessNandB,1
carpet pos,0
pc,0
Time (ms),CH1 Auto-Correlation
1.0,0.0891588106751442
2.0,0.07768701016902924
3.0,0.06835182756185532
4.0,0.06044517830014229
5.0,0.053538039326667786
6.0,0.047934066504240036
7.0,0.04325250908732414
8.0,0.039214231073856354
9.0,0.03554512560367584
10.0,0.03233707696199417
11.0,0.029049092903733253
12.0,0.02599850855767727
13.0,0.023652950301766396
14.0,0.021478774026036263
15.0,0.02003205567598343
16.0,0.018631909042596817
18.0,0.01543267909437418
20.0,0.012052223086357117
22.0,0.009525983594357967
24.0,0.008083092980086803
26.0,0.006935682147741318
28.0,0.006110862363129854
30.0,0.005497296806424856
32.0,0.005145213566720486
36.0,0.004540314897894859
40.0,0.00440990598872304
44.0,0.003860372118651867
48.0,0.002920827828347683
52.0,0.0018429732881486416
56.0,0.0020607993938028812
60.0,0.0024367652367800474
64.0,0.0025977028999477625
72.0,0.0027126099448651075
80.0,0.0026989274192601442
88.0,0.004337804391980171
96.0,0.006618224550038576
104.0,0.0069452631287276745
112.0,0.0041432688012719154
120.0,0.001575346803292632
128.0,0.0008983465377241373
144.0,-0.0027871341444551945
160.0,-0.003346656681969762
176.0,0.00025897339219227433
192.0,0.000434463145211339
208.0,0.0012919778237119317
224.0,0.0008138007833622396
240.0,-0.0006880045984871686
256.0,-0.002013463294133544
288.0,6.13427473581396e-05
320.0,-0.0022288428153842688
352.0,-8.303324284497648e-05
384.0,0.0007335449336096644
416.0,-0.00028067873790860176
448.0,-0.0005213887197896838
480.0,-0.0035973545163869858
512.0,0.0006595633458346128
576.0,-0.0011892494512721896
640.0,-0.0004577393119689077
704.0,-0.0015551983378827572
768.0,-0.0003734334313776344
832.0,0.0007048464613035321
896.0,0.00013478264736477286
960.0,5.959530608379282e-05
1024.0,-0.00039685479714535177
1152.0,0.0011862393002957106
1280.0,-0.0016710365889593959
1408.0,-0.0005651722894981503
1536.0,0.0002943144936580211
1664.0,0.0002613924734760076
1792.0,0.0002399426739430055
1920.0,-0.00012221962970215827
2048.0,-0.0021670637652277946
2304.0,0.0005576268886215985
2560.0,-0.0010123745305463672
2816.0,0.000443800789071247
3072.0,-0.000765071774367243
3328.0,-0.0016653267666697502
3584.0,0.00016266820603050292
3840.0,0.0009811610216274858
4096.0,0.0010894385632127523
4608.0,-0.0006873180973343551
5120.0,-0.00047821077168919146
5632.0,-0.0009271064191125333
6144.0,-0.0002195248962379992
6656.0,0.0003797460813075304
7168.0,-4.325480404077098e-05
7680.0,-0.00014341477071866393
8192.0,-0.00024018560361582786
9216.0,0.00011167919001309201
10240.0,0.0008925108704715967
11264.0,0.0011576737742871046
12288.0,-0.001298442599363625
13312.0,-0.0002592449018266052
14336.0,-0.0004224796430207789
end
