version,3.0
numOfCh,1
type,point
parent_name,800-cuts
ch_type,1_1
kcount,1
numberNandB,1
brightnessNandB,1
carpet pos,0
pc,0
Time (ms),CH1 Auto-Correlation
1.0,0.0860491394996643
2.0,0.07603782415390015
3.0,0.06764575093984604
4.0,0.060593269765377045
5.0,0.05450764670968056
6.0,0.048997532576322556
7.0,0.04418522119522095
8.0,0.039742693305015564
9.0,0.03594594821333885
10.0,0.032599493861198425
11.0,0.029530731961131096
12.0,0.026844698935747147
13.0,0.024584993720054626
14.0,0.02251088246703148
15.0,0.020560644567012787
16.0,0.018557416275143623
18.0,0.015569271519780159
20.0,0.013177048414945602
22.0,0.010923433117568493
24.0,0.009263340383768082
26.0,0.008193053305149078
28.0,0.0073057361878454685
30.0,0.006576957181096077
32.0,0.006422358099371195
36.0,0.00558057427406311
40.0,0.005490207113325596
44.0,0.004706425592303276
48.0,0.0036281533539295197
52.0,0.002072032541036606
56.0,0.00151039136108011
60.0,0.0004325738991610706
64.0,-0.0009601977071724832
72.0,-0.0006046152557246387
80.0,0.0004976236377842724
88.0,0.0007858577882871032
96.0,0.0007680376875214279
104.0,0.001257095136679709
112.0,0.0009422797593288124
120.0,0.00189813447650522
128.0,0.0020988371688872576
144.0,0.001399897038936615
160.0,0.0005112921353429556
176.0,0.00013937364565208554
192.0,0.004014674574136734
208.0,0.0027493909001350403
224.0,0.0011933478526771069
240.0,-0.0013722609728574753
256.0,-0.003037356538698077
288.0,-0.001372294849716127
320.0,0.0020908669102936983
352.0,0.003735044738277793
384.0,-0.0003100528265349567
416.0,5.141632937011309e-05
448.0,-0.002720736898481846
480.0,-0.0006960205500945449
512.0,0.0015241968212649226
576.0,0.0014713435666635633
640.0,0.0018656346946954727
704.0,0.0017782228533178568
768.0,-0.0013708920450881124
832.0,0.00023217870329972357
896.0,-0.0010550065198913217
960.0,-0.004927302710711956
1024.0,-0.0011171599617227912
1152.0,-0.0029763297643512487
1280.0,5.923727439949289e-05
1408.0,0.0007968287682160735
1536.0,-0.0011662071337923408
1664.0,-0.0006536863511428237
1792.0,-0.0002392213064013049
1920.0,-0.0001010176056297496
2048.0,-0.0004690836649388075
2304.0,-0.0012064144248142838
2560.0,0.0005444284179247916
2816.0,-0.0004074733587913215
3072.0,-0.00018383465067017823
3328.0,0.0008103756117634475
3584.0,-0.001413425779901445
3840.0,-0.0006889582145959139
4096.0,-1.2402750144246966e-05
4608.0,0.000976787880063057
5120.0,0.000949356472119689
5632.0,-0.0001308764040004462
6144.0,-0.0011987905018031597
6656.0,1.689548844296951e-05
7168.0,0.00011916876974282786
7680.0,2.970601235574577e-05
8192.0,-0.0010811511892825365
9216.0,0.0005302409990690649
10240.0,0.0012021111324429512
11264.0,-0.0010747353080660105
12288.0,0.000352990347892046
13312.0,-0.0009464220493100584
14336.0,0.0002006500872084871
end
