version,3.0
numOfCh,1
type,point
parent_name,800-cuts
ch_type,1_1
kcount,1
numberNandB,1
brightnessNandB,1
carpet pos,0
pc,0
Time (ms),CH1 Auto-Correlation
1.0,0.09866210073232651
2.0,0.08748751878738403
3.0,0.07796371728181839
4.0,0.06979943066835403
5.0,0.06272919476032257
6.0,0.056632593274116516
7.0,0.05142341926693916
8.0,0.04669506847858429
9.0,0.04276340827345848
10.0,0.039199940860271454
11.0,0.03587060794234276
12.0,0.03315460681915283
13.0,0.03047291189432144
14.0,0.02799404039978981
15.0,0.02537420019507408
16.0,0.023246683180332184
18.0,0.01994948647916317
20.0,0.01709882542490959
22.0,0.01430556084960699
24.0,0.01166467647999525
26.0,0.009118609130382538
28.0,0.006724658887833357
30.0,0.004963023588061333
32.0,0.003821278689429164
36.0,0.0034377137199044228
40.0,0.003607847960665822
44.0,0.0029400819912552834
48.0,0.0014307036763057113
52.0,-0.00024216280144173652
56.0,-0.0034990236163139343
60.0,-0.00477956747636199
64.0,-0.004026757553219795
72.0,-0.00393828796222806
80.0,-0.002959950128570199
88.0,-0.0029812029097229242
96.0,-0.0018200462218374014
104.0,-0.0022392948158085346
112.0,-0.0019653146155178547
120.0,-0.0013440074399113655
128.0,-0.0023985877633094788
144.0,-0.0010161848040297627
160.0,0.0006258342764340341
176.0,0.0007820821483619511
192.0,0.0005571137298829854
208.0,-0.0006005762261338532
224.0,-0.0015360262477770448
240.0,-0.002203411655500531
256.0,-0.002525197109207511
288.0,0.0004763107281178236
320.0,0.005414961837232113
352.0,0.0026989032048732042
384.0,-0.00017346189997624606
416.0,-0.0027437699027359486
448.0,-0.00034703477285802364
480.0,-0.0010301024885848165
512.0,-0.0013298438861966133
576.0,-0.0007300625438801944
640.0,-0.0004593773919623345
704.0,-0.0018237157491967082
768.0,0.0014802950900048018
832.0,-0.0024986560456454754
896.0,-0.0019600081723183393
960.0,-0.0023098743986338377
1024.0,0.00046053665573708713
1152.0,0.00012717992649413645
1280.0,0.00011584915046114475
1408.0,0.0016813662368804216
1536.0,-0.0006829780759289861
1664.0,-0.001284441095776856
1792.0,-0.001642060000449419
1920.0,0.001691440469585359
2048.0,-0.0014536278322339058
2304.0,0.0006055528065189719
2560.0,0.0003783873689826578
2816.0,-0.00012083741603419185
3072.0,-0.0007071590516716242
3328.0,0.0005999306449666619
3584.0,-0.0008479988318867981
3840.0,-0.002064123982563615
4096.0,-0.001119660446420312
4608.0,0.0006406831089407206
5120.0,-8.991262438939884e-05
5632.0,6.815772940171883e-05
6144.0,0.00042376338387839496
6656.0,-0.0002993391244672239
7168.0,0.0006753313355147839
7680.0,0.0013185435673221946
8192.0,-0.001381365000270307
9216.0,0.00020415331528056413
10240.0,-0.00028293218929320574
11264.0,-7.600396929774433e-05
12288.0,-0.00025045627262443304
13312.0,-5.444323687697761e-05
14336.0,0.0006491596577689052
end
