version,3.0
numOfCh,1
type,point
parent_name,800-cuts
ch_type,1_1
kcount,1
numberNandB,1
brightnessNandB,1
carpet pos,0
pc,0
Time (ms),CH1 Auto-Correlation
1.0,0.07796371728181839
2.0,0.06766132265329361
3.0,0.05889293551445007
4.0,0.051578301936388016
5.0,0.04514739662408829
6.0,0.039642222225666046
7.0,0.03516107425093651
8.0,0.030764713883399963
9.0,0.02691996842622757
10.0,0.023396944627165794
11.0,0.020076196640729904
12.0,0.01721273362636566
13.0,0.014802341349422932
14.0,0.012640397064387798
15.0,0.010769309476017952
16.0,0.009183025918900967
18.0,0.006997270509600639
20.0,0.005778949707746506
22.0,0.00550758745521307
24.0,0.005465168505907059
26.0,0.004862121306359768
28.0,0.004350151866674423
30.0,0.004221231676638126
32.0,0.004179864656180143
36.0,0.003725693328306079
40.0,0.003146653063595295
44.0,0.0026276346761733294
48.0,0.002049896400421858
52.0,0.0007087906124070287
56.0,-0.0007384344353340566
60.0,-0.0013223245041444898
64.0,-0.0020609379280358553
72.0,-0.00033416313817724586
80.0,0.00100984750315547
88.0,8.664101187605411e-05
96.0,-0.0006679358193650842
104.0,-0.0029407215770334005
112.0,-0.0029946446884423494
120.0,-0.0014176217373460531
128.0,-0.0014820105861872435
144.0,-0.0007496348116546869
160.0,0.0013260324485599995
176.0,0.001231730100698769
192.0,-0.002271984238177538
208.0,-0.0037307864986360073
224.0,-0.002489997074007988
240.0,-0.0014586759498342872
256.0,-0.0009454656392335892
288.0,-0.0004762157332152128
320.0,0.0013808998046442866
352.0,0.0015437282854691148
384.0,0.0020490274764597416
416.0,0.0005562835140153766
448.0,-0.0013998913345858455
480.0,-0.0018439317354932427
512.0,0.0014327451353892684
576.0,0.0006209781859070063
640.0,-0.0006860148278065026
704.0,-0.001330321072600782
768.0,-0.00020723995112348348
832.0,-0.000776071276050061
896.0,-0.00011046179133700207
960.0,0.0006560332258231938
1024.0,0.0016111877048388124
1152.0,0.0010579023510217667
1280.0,-0.0013567985733971
1408.0,0.000747585785575211
1536.0,0.001354149542748928
1664.0,0.0010852940613403916
1792.0,-0.00044866951066069305
1920.0,-0.0007655064109712839
2048.0,0.0007755330880172551
2304.0,-0.001015230780467391
2560.0,0.0003539699246175587
2816.0,-0.0012225948739796877
3072.0,-0.0003145025693811476
3328.0,-4.346889181761071e-05
3584.0,0.0005276644951663911
3840.0,-0.0008471832261420786
4096.0,-0.0009522989857941866
4608.0,0.0004610593314282596
5120.0,-0.0003379383124411106
5632.0,0.00011928396270377561
6144.0,-0.0008945380104705691
6656.0,-0.00017543220019433647
7168.0,0.0002768664271570742
7680.0,-0.0010148768778890371
8192.0,0.0009804896544665098
9216.0,0.0008194788824766874
10240.0,0.0006510810926556587
11264.0,-0.0004875992890447378
12288.0,-0.0008721384219825268
13312.0,-0.0003049541264772415
14336.0,0.0003554833529051393
end
