version,3.0
numOfCh,1
type,point
parent_name,800-cuts
ch_type,1_1
kcount,1
numberNandB,1
brightnessNandB,1
carpet pos,0
pc,0
Time (ms),CH1 Auto-Correlation
1.0,0.0292659942060709
2.0,0.02581695467233658
3.0,0.022893931716680527
4.0,0.02056111767888069
5.0,0.01844765432178974
6.0,0.01661699078977108
7.0,0.015013536438345909
8.0,0.013656497932970524
9.0,0.012444141320884228
10.0,0.011376475915312767
11.0,0.010435516014695168
12.0,0.009605108760297298
13.0,0.008810984902083874
14.0,0.008066518232226372
15.0,0.007325268816202879
16.0,0.006644928362220526
18.0,0.005684662610292435
20.0,0.005194559693336487
22.0,0.004690596368163824
24.0,0.0043281433172523975
26.0,0.003922182135283947
28.0,0.003420398337766528
30.0,0.0029912879690527916
32.0,0.002351888921111822
36.0,0.0014329227851703763
40.0,0.0007911944994702935
44.0,0.000273653568001464
48.0,0.0001915028551593423
52.0,0.0001479453785577789
56.0,0.0005356986075639725
60.0,0.0008790820720605552
64.0,0.0011103576980531216
72.0,-8.08296499599237e-06
80.0,-0.00034619419602677226
88.0,-0.00042803710675798357
96.0,-0.00022957967303227633
104.0,-0.00027370022144168615
112.0,-0.000965255603659898
120.0,-0.001580420765094459
128.0,-0.0012671002186834812
144.0,-0.0012439314741641283
160.0,0.0002320028725080192
176.0,0.0003174896992277354
192.0,0.0006719692028127611
208.0,0.0003084161726292223
224.0,-0.00043234520126134157
240.0,-0.0003889102954417467
256.0,-0.0006672987947240472
288.0,-0.0006396741373464465
320.0,-0.00024175498401746154
352.0,0.0001494481839472428
384.0,-0.0006188718252815306
416.0,-0.0008128118352033198
448.0,-0.0010952944867312908
480.0,-0.0001328387443209067
512.0,-0.0002527599863242358
576.0,-0.0005205988418310881
640.0,-0.0002412388421362266
704.0,0.0004358285223133862
768.0,-0.00046508744708262384
832.0,1.392151079926407e-05
896.0,-0.0006692527676932514
960.0,0.0006892484962008893
1024.0,0.0009994584834203124
1152.0,0.0001859809854067862
1280.0,0.00016422894259449095
1408.0,-0.00030135310953482985
1536.0,-0.00011363620433257893
1664.0,-0.0004780552990268916
1792.0,-0.000123033911222592
1920.0,0.0003435305261518806
2048.0,-2.923708780144807e-05
2304.0,-0.00037251473986543715
2560.0,0.0003027972998097539
2816.0,-0.00011877072392962873
3072.0,9.867084008874372e-05
3328.0,5.969946869299747e-05
3584.0,-0.00019576675549615175
3840.0,1.094710910365393e-06
4096.0,0.0004183478595223278
4608.0,-0.0001836727897170931
5120.0,3.169007322867401e-05
5632.0,-0.00024513897369615734
6144.0,0.0001420044427504763
6656.0,1.8930713849840686e-05
7168.0,0.00023512639745604247
7680.0,-2.068357207463123e-05
8192.0,-1.0213389032287523e-05
9216.0,-7.592701877001673e-05
10240.0,-0.00010813259723363444
11264.0,0.0003439969150349498
12288.0,-0.0007142144604586065
13312.0,0.00035513547481969
14336.0,0.0007226078305393457
end
