version,3.0
numOfCh,1
type,point
parent_name,800-cuts
ch_type,1_1
kcount,1
numberNandB,1
brightnessNandB,1
carpet pos,0
pc,0
Time (ms),CH1 Auto-Correlation
1.0,0.025029486045241356
2.0,0.021988485008478165
3.0,0.019435223191976547
4.0,0.017227577045559883
5.0,0.015230153687298298
6.0,0.013431454077363014
7.0,0.011841257102787495
8.0,0.01046844758093357
9.0,0.009210394695401192
10.0,0.008221069350838661
11.0,0.007398160174489021
12.0,0.006681198254227638
13.0,0.006076539400964975
14.0,0.005544054321944714
15.0,0.005094568710774183
16.0,0.004693911876529455
18.0,0.004097446799278259
20.0,0.0036866795271635056
22.0,0.0034430366940796375
24.0,0.003265589475631714
26.0,0.0030463077127933502
28.0,0.0028616124764084816
30.0,0.002463962882757187
32.0,0.002152537927031517
36.0,0.0018908357014879584
40.0,0.0014214334078133106
44.0,0.0010148341534659266
48.0,0.0009191071731038392
52.0,0.0005222458858042955
56.0,0.0001926627883221954
60.0,0.00010840895265573636
64.0,-5.311880158842541e-05
72.0,1.7895627024699934e-05
80.0,-0.0006175680900923908
88.0,-0.0009195544407702982
96.0,-0.001060200622305274
104.0,-0.0010483042569831014
112.0,-0.0006778336828574538
120.0,-0.0003004904428962618
128.0,0.0002778481284622103
144.0,0.00019281188724562526
160.0,0.00021815441141370684
176.0,0.0003392898361198604
192.0,0.00037745077861472964
208.0,0.0003445958427619189
224.0,-0.0011901507386937737
240.0,-0.001042452990077436
256.0,-0.0007018918404355645
288.0,-0.0008355513564310968
320.0,9.473910176893696e-05
352.0,-8.955868543125689e-05
384.0,0.0002631401002872735
416.0,7.826323417248204e-05
448.0,0.0003275743220001459
480.0,-8.29029522719793e-05
512.0,0.00035028380807489157
576.0,0.0010403423802927136
640.0,-0.0005202273023314774
704.0,-0.0002688692766241729
768.0,6.784321158193052e-05
832.0,-0.00025775423273444176
896.0,0.0001833870046539232
960.0,0.0002149125502910465
1024.0,-0.0006942938780412078
1152.0,-0.0006458301795646548
1280.0,6.685919652227312e-05
1408.0,0.0002931744384113699
1536.0,5.0080547225661576e-05
1664.0,0.00023818138288334012
1792.0,-0.00013575727643910795
1920.0,0.00014409178402274847
2048.0,-0.0003804024599958211
2304.0,0.00019172705651726574
2560.0,-0.0003154317964799702
2816.0,6.982545164646581e-05
3072.0,-0.0004890067502856255
3328.0,0.0003652552841231227
3584.0,-5.015805800212547e-05
3840.0,0.0002219330781372264
4096.0,0.000508280354551971
4608.0,0.0001395285944454372
5120.0,0.00010942463995888829
5632.0,0.0001273063535336405
6144.0,-0.0001938149071065709
6656.0,-0.0002333420270588249
7168.0,-0.00024172688426915556
7680.0,-0.0001250694622285664
8192.0,0.00015454973618034273
9216.0,0.00014323940558824688
10240.0,-0.0001376630534650758
11264.0,-0.0003982725611422211
12288.0,0.00015187173266895115
13312.0,-2.1879815903957933e-05
14336.0,-0.0004522764647845179
end
