version,3.0
numOfCh,1
type,point
parent_name,800-cuts
ch_type,1_1
kcount,1
numberNandB,1
brightnessNandB,1
carpet pos,0
pc,0
Time (ms),CH1 Auto-Correlation
1.0,0.027226874604821205
2.0,0.024075672030448914
3.0,0.021414119750261307
4.0,0.019185461103916168
5.0,0.01723368838429451
6.0,0.015525761060416698
7.0,0.014016983099281788
8.0,0.01266848761588335
9.0,0.01144919078797102
10.0,0.01038502436131239
11.0,0.009496483951807022
12.0,0.008656524121761322
13.0,0.007956483401358128
14.0,0.007332478184252977
15.0,0.006833499297499657
16.0,0.00645111920312047
18.0,0.005846431478857994
20.0,0.005123388022184372
22.0,0.0044526634737849236
24.0,0.0039442372508347034
26.0,0.0035224356688559055
28.0,0.0033344205003231764
30.0,0.0030614801216870546
32.0,0.002818706911057234
36.0,0.0021441809367388487
40.0,0.0016163327964022756
44.0,0.0011751187266781926
48.0,0.0006865534815005958
52.0,0.0001402982888976112
56.0,-0.0002686458465177566
60.0,-0.0005158265703357756
64.0,-0.00015145375800784677
72.0,6.350677722366527e-05
80.0,-0.00011969941260758787
88.0,-1.6884805518202484e-05
96.0,0.0003116139560006559
104.0,0.0009559693280607462
112.0,0.0007642194395884871
120.0,0.00017229699005838484
128.0,-0.00013588396541308612
144.0,-0.0004695483949035406
160.0,-0.0006818075780756772
176.0,-0.0004737729032058269
192.0,1.5567045920761302e-05
208.0,-0.0005000212113372982
224.0,-0.0008250891114585102
240.0,-0.00016139226499944925
256.0,-0.00033047457691282034
288.0,0.0006389182526618242
320.0,0.0008414898766204715
352.0,-0.00023823752417229116
384.0,-4.521154914982617e-05
416.0,-0.0007206650916486979
448.0,-0.0005153768579475582
480.0,-0.0007539500948041677
512.0,-0.0009983479976654053
576.0,-0.0005089054466225207
640.0,8.172998786903918e-05
704.0,0.00036081383586861193
768.0,0.0003534721035975963
832.0,0.000642167404294014
896.0,-0.00035144833964295685
960.0,0.000831538112834096
1024.0,-0.00016536421026103199
1152.0,-0.000116910865472164
1280.0,8.284818613901734e-05
1408.0,0.00047190944314934313
1536.0,-0.0003844978054985404
1664.0,-0.0009762162226252258
1792.0,-0.000858356652315706
1920.0,-0.0009809995535761118
2048.0,0.0005594955873675644
2304.0,9.970151586458087e-05
2560.0,-0.0001325297198491171
2816.0,0.0002363327657803893
3072.0,0.00038541987305507064
3328.0,0.00014131474017631263
3584.0,0.0002099935372825712
3840.0,-4.1320763557450846e-05
4096.0,-0.0003673063183669001
4608.0,-0.0003354827349539846
5120.0,-0.0002603990724310279
5632.0,-7.653618376934901e-05
6144.0,0.0002336378674954176
6656.0,0.00037132902070879936
7168.0,-0.00023545182193629444
7680.0,2.4948383725131862e-05
8192.0,-0.00013357285934034735
9216.0,-2.7242416763328947e-05
10240.0,-9.105327626457438e-05
11264.0,-1.4449927220994141e-05
12288.0,-0.0001281267323065549
13312.0,-3.298662704764865e-05
14336.0,0.00015293198521248996
end
