version,3.0
numOfCh,1
type,point
parent_name,800-cuts
ch_type,1_1
kcount,1
numberNandB,1
brightnessNandB,1
carpet pos,0
pc,0
Time (ms),CH1 Auto-Correlation
1.0,0.08268850296735764
2.0,0.07230807095766068
3.0,0.06346522271633148
4.0,0.05602157488465309
5.0,0.04967702552676201
6.0,0.04462186247110367
7.0,0.0402468703687191
8.0,0.036432698369026184
9.0,0.03342384099960327
10.0,0.030728962272405624
11.0,0.02849302627146244
12.0,0.026399703696370125
13.0,0.024177299812436104
14.0,0.022449659183621407
15.0,0.020674649626016617
16.0,0.018962107598781586
18.0,0.01612750254571438
20.0,0.01379998866468668
22.0,0.011898119002580643
24.0,0.010078363120555878
26.0,0.008334537036716938
28.0,0.006030062213540077
30.0,0.003730623284354806
32.0,0.002361422637477517
36.0,0.0003509985690470785
40.0,-0.000910053844563663
44.0,-0.0006753612542524934
48.0,-0.0006848109769634902
52.0,-0.001342611387372017
56.0,-0.002097196877002716
60.0,-0.0016676618251949549
64.0,-0.0018359104869887233
72.0,-0.001447677961550653
80.0,-0.0019753803499042988
88.0,-0.0014360754285007715
96.0,-0.001965049421414733
104.0,-0.002807202283293009
112.0,-0.001494825934059918
120.0,-0.0007676337263546884
128.0,8.759826596360654e-05
144.0,-0.0028053370770066977
160.0,-0.0031830319203436375
176.0,-0.0021051205694675446
192.0,0.0001289976789848879
208.0,0.003703838214278221
224.0,0.002827824093401432
240.0,0.00010578675573924556
256.0,-0.00182968785520643
288.0,-0.004550235811620951
320.0,-0.0018793808994814754
352.0,-0.0002255723811686039
384.0,0.001108300406485796
416.0,0.0013571511954069138
448.0,0.0011804435634985566
480.0,-0.0005251214024610817
512.0,0.00120882922783494
576.0,-0.0022347921039909124
640.0,-0.0019202607218176126
704.0,0.000431768101407215
768.0,0.001604208373464644
832.0,-0.0032146295998245478
896.0,-0.0007740645669400692
960.0,-0.0016621901886537671
1024.0,0.000682797865010798
1152.0,0.0017060873797163367
1280.0,-0.0008178976131603122
1408.0,-0.0015597251476719975
1536.0,0.0016451252158731222
1664.0,-1.328711641690461e-05
1792.0,-0.0001465537934564054
1920.0,-0.000828106130938977
2048.0,-0.0002595521218609065
2304.0,0.00023783881624694914
2560.0,-0.0004626416484825313
2816.0,0.0002450731990393251
3072.0,0.0001607724407222122
3328.0,-0.00025865703355520964
3584.0,-0.0005320592317730188
3840.0,-6.091796967666596e-05
4096.0,1.909716047521215e-05
4608.0,0.0004539045912679285
5120.0,-0.00032813564757816494
5632.0,0.0005645754281431437
6144.0,-0.0007680897251702845
6656.0,0.0008119920385070145
7168.0,-0.0011975170345976949
7680.0,0.0004772408283315599
8192.0,0.0003441761073190719
9216.0,0.0003912301908712834
10240.0,-0.00019772328960243613
11264.0,-0.0004922702792100608
12288.0,-0.000156169684487395
13312.0,0.00047405247460119426
14336.0,8.309023542096838e-05
end
