version,3.0
numOfCh,1
type,point
parent_name,800-cuts
ch_type,1_1
kcount,1
numberNandB,1
brightnessNandB,1
carpet pos,0
pc,0
Time (ms),CH1 Auto-Correlation
1.0,0.02606099657714367
2.0,0.022724060341715813
3.0,0.01998305507004261
4.0,0.01770622469484806
5.0,0.015706608071923256
6.0,0.01391204260289669
7.0,0.012324228882789612
8.0,0.010961422696709633
9.0,0.00984800886362791
10.0,0.008928580209612846
11.0,0.008062769658863544
12.0,0.007252939976751804
13.0,0.006530364975333214
14.0,0.0059983497485518456
15.0,0.005568886175751686
16.0,0.005121424328535795
18.0,0.004172596149146557
20.0,0.0032336334697902203
22.0,0.002411443740129471
24.0,0.0017885684501379728
26.0,0.001312148873694241
28.0,0.001038251561112702
30.0,0.0008977842517197132
32.0,0.000910063914489001
36.0,0.0005613951361738145
40.0,0.000454214692581445
44.0,0.00043700230889953673
48.0,0.0005625853082165122
52.0,0.00042169555672444403
56.0,0.00015017880650702864
60.0,-0.00017585016030352563
64.0,-0.00015767637523822486
72.0,0.0005045427242293954
80.0,0.0011702176416292787
88.0,0.0010111492592841387
96.0,0.0010622157715260983
104.0,0.0010921626817435026
112.0,0.0005755648599006236
120.0,0.00021416525123640895
128.0,-0.00022485354566015303
144.0,-3.972608828917146e-05
160.0,0.0007292528171092272
176.0,0.0001282626180909574
192.0,0.00022826560598332435
208.0,7.086410914780572e-05
224.0,0.00022942875511944294
240.0,-7.430683035636321e-05
256.0,-0.00015441796858794987
288.0,-0.0003070936945732683
320.0,-0.00025561905931681395
352.0,0.0007751195807941258
384.0,0.0005409475415945053
416.0,0.0010070862481370568
448.0,0.0014603817835450172
480.0,-0.0004924058448523283
512.0,-0.0007476664031855762
576.0,-9.271167800761759e-05
640.0,-0.00042227114317938685
704.0,0.0004326821945142001
768.0,-2.2131940568215214e-05
832.0,0.0009186427923850715
896.0,0.00015572068514302373
960.0,5.29725912201684e-05
1024.0,0.00020409993885550648
1152.0,0.00031640936504118145
1280.0,0.0003529119130689651
1408.0,-0.00017710454994812608
1536.0,-0.00031627065618522465
1664.0,0.0004594014317262918
1792.0,0.0005556028918363154
1920.0,0.0002122171426890418
2048.0,0.00019165530102327466
2304.0,7.283438026206568e-05
2560.0,-0.0003427714400459081
2816.0,0.00014059816021472216
3072.0,-0.00022636527137365192
3328.0,0.00031577618210576475
3584.0,8.202646313293371e-06
3840.0,0.0003643491363618523
4096.0,0.0004888304392807186
4608.0,0.0003036774869542569
5120.0,-4.3069048842880875e-06
5632.0,2.765666749837692e-06
6144.0,-0.0003615586902014911
6656.0,9.293746552430093e-05
7168.0,-0.0001687803160166368
7680.0,0.0002919988473877311
8192.0,-7.241356797749177e-05
9216.0,-0.0003252153692301363
10240.0,-0.00025728848413564265
11264.0,-0.0010889479890465736
12288.0,0.00035248961648903787
13312.0,-0.000854760583024472
14336.0,-0.0004450999840628356
end
