version,3.0
numOfCh,1
type,point
parent_name,800-cuts
ch_type,1_1
kcount,1
numberNandB,1
brightnessNandB,1
carpet pos,0
pc,0
Time (ms),CH1 Auto-Correlation
1.0,0.0841873288154602
2.0,0.07420181483030319
3.0,0.06549501419067383
4.0,0.05846871808171272
5.0,0.052693746984004974
6.0,0.04752746969461441
7.0,0.042885612696409225
8.0,0.03924025967717171
9.0,0.035979218780994415
10.0,0.03289425000548363
11.0,0.029957707971334457
12.0,0.027310866862535477
13.0,0.025087378919124603
14.0,0.022997170686721802
15.0,0.021004199981689453
16.0,0.01879839040338993
18.0,0.015092482790350914
20.0,0.012186095118522644
22.0,0.010047723539173603
24.0,0.007824224419891834
26.0,0.0056901960633695126
28.0,0.003960379399359226
30.0,0.003319232491776347
32.0,0.0030032715294510126
36.0,0.0027692746371030807
40.0,0.001853989320807159
44.0,0.0016613435000181198
48.0,0.0011040529934689403
52.0,-0.0005322593497112393
56.0,-0.0006782908458262682
60.0,-0.00034268369199708104
64.0,0.0001908386911964044
72.0,0.0004397943848744035
80.0,-0.0002881864784285426
88.0,0.0004023255896754563
96.0,0.000801043410319835
104.0,0.0010593375191092491
112.0,0.0023945257999002934
120.0,0.002463418059051037
128.0,0.0004460750496946275
144.0,-0.0013180390233173966
160.0,-0.003723939647898078
176.0,-0.004923848435282707
192.0,-0.00447156373411417
208.0,-0.001843109610490501
224.0,-0.0007070732535794377
240.0,-0.00043992733117192984
256.0,0.0005293125286698341
288.0,-0.0010211629560217261
320.0,-0.0015421046409755945
352.0,-0.00019045294902753085
384.0,0.0020079570822417736
416.0,0.0005623876350000501
448.0,-0.0034792101942002773
480.0,-0.0024179909378290176
512.0,0.0003455683181528002
576.0,-0.0008214732515625656
640.0,5.147222054802114e-06
704.0,0.0004915755125693977
768.0,0.000658193661365658
832.0,-0.001535033923573792
896.0,4.7941921366145834e-05
960.0,-0.0018690682481974363
1024.0,-0.00013079380732961
1152.0,-0.0005481132538989186
1280.0,-0.0014962904388085008
1408.0,-0.0009129563695751131
1536.0,0.0015752280596643686
1664.0,0.0009344688151031733
1792.0,-7.125586876099987e-07
1920.0,0.0008569576311856508
2048.0,-6.572489655809477e-05
2304.0,0.0007621810655109584
2560.0,-0.0007751485100015998
2816.0,0.00044340622844174504
3072.0,-0.0006843276787549257
3328.0,0.0010563090909272432
3584.0,-0.0011030789464712143
3840.0,8.029045420698822e-05
4096.0,0.001024696626700461
4608.0,0.0004828553646802902
5120.0,-0.0006954652490094304
5632.0,-0.0007950409199111164
6144.0,0.0011626179330050945
6656.0,-0.0003748311719391495
7168.0,-0.000709298241417855
7680.0,0.00045393226901069283
8192.0,0.00032243176246993244
9216.0,-9.801900887396187e-06
10240.0,-0.0006129224202595651
11264.0,0.00031444805790670216
12288.0,0.00022814438852947205
13312.0,-0.000396713730879128
14336.0,-0.0010444526560604572
end
