version,3.0
numOfCh,1
type,point
parent_name,800-cuts
ch_type,1_1
kcount,1
numberNandB,1
brightnessNandB,1
carpet pos,0
pc,0
Time (ms),CH1 Auto-Correlation
1.0,0.04000385105609894
2.0,0.03513592109084129
3.0,0.030884942039847374
4.0,0.027237551286816597
5.0,0.024115201085805893
6.0,0.021320343017578125
7.0,0.018904248252511024
8.0,0.016876891255378723
9.0,0.015190524980425835
10.0,0.013758103363215923
11.0,0.0124391820281744
12.0,0.011300076730549335
13.0,0.010366289876401424
14.0,0.009480965323746204
15.0,0.008822578005492687
16.0,0.008230666629970074
18.0,0.007060019299387932
20.0,0.006049690768122673
22.0,0.005195629317313433
24.0,0.004483902361243963
26.0,0.004099642857909203
28.0,0.003677703905850649
30.0,0.0032807053066790104
32.0,0.0031957963947206736
36.0,0.003007972612977028
40.0,0.002262319903820753
44.0,0.0013531609438359737
48.0,0.000841058325022459
52.0,0.0006406253087334335
56.0,0.0004964926629327238
60.0,9.072770626517013e-05
64.0,0.0003552071575541049
72.0,0.0009420892456546426
80.0,0.0006761545082554221
88.0,0.000309537019347772
96.0,-8.249751408584416e-05
104.0,-0.0013891967246308923
112.0,-0.0015594408614560962
120.0,-0.002001409884542227
128.0,-0.002661725739017129
144.0,-0.0021365652792155743
160.0,-0.0010089921997860074
176.0,-0.00016934642917476594
192.0,0.0005524497828446329
208.0,-0.0001362680777674541
224.0,2.483935713826213e-05
240.0,0.0008651716052554548
256.0,0.00031263651908375323
288.0,-0.0006252587772905827
320.0,-0.0010587371652945876
352.0,-0.0006526153883896768
384.0,0.0001815255673136562
416.0,0.0014706801157444715
448.0,-0.00035931944148615
480.0,-1.9640214304672554e-05
512.0,-0.00024404702708125114
576.0,1.181398874905426e-05
640.0,-0.0003921616589650512
704.0,-0.000854324025567621
768.0,-0.0009584894287399948
832.0,0.00021360056416597217
896.0,0.0018679645145311952
960.0,0.00018622646166477352
1024.0,-0.00014910548634361476
1152.0,-0.00026089223683811724
1280.0,-0.00012481962039601058
1408.0,0.0001787451037671417
1536.0,-0.000568458519410342
1664.0,-0.0006584511138498783
1792.0,-0.0008074307115748525
1920.0,-9.542048064759001e-05
2048.0,-0.0004202609125059098
2304.0,7.383367483271286e-05
2560.0,-0.0006097883451730013
2816.0,-0.0003905517514795065
3072.0,0.00043313682544976473
3328.0,0.0004375343269202858
3584.0,-0.00023427614360116422
3840.0,-0.00025361290317960083
4096.0,0.0005875995848327875
4608.0,0.00016020052134990692
5120.0,-7.75151693233056e-06
5632.0,-0.00019554182654246688
6144.0,0.00026316355797462165
6656.0,-0.0005363102536648512
7168.0,-0.00019204019918106496
7680.0,-5.600010126727284e-07
8192.0,0.00014408187416847795
9216.0,4.785183773492463e-05
10240.0,-0.0005318989278748631
11264.0,6.61891172057949e-05
12288.0,0.0005166868213564157
13312.0,-7.359031587839127e-05
14336.0,-0.00044703501043841243
end
