version,3.0
numOfCh,1
type,point
parent_name,800-cuts
ch_type,1_1
kcount,1
numberNandB,1
brightnessNandB,1
carpet pos,0
pc,0
Time (ms),CH1 Auto-Correlation
1.0,0.025247665122151375
2.0,0.022125577554106712
3.0,0.019369225949048996
4.0,0.017027171328663826
5.0,0.014954809099435806
6.0,0.013175878673791885
7.0,0.011618291027843952
8.0,0.010227059945464134
9.0,0.009059873409569263
10.0,0.007999035529792309
11.0,0.007090551313012838
12.0,0.006343885790556669
13.0,0.005717323161661625
14.0,0.0051345741376280785
15.0,0.004776605870574713
16.0,0.004415146540850401
18.0,0.0036883156280964613
20.0,0.0031878675799816847
22.0,0.0030095474794507027
24.0,0.002803011564537883
26.0,0.002684809034690261
28.0,0.0024855330120772123
30.0,0.002407032996416092
32.0,0.0022559440694749355
36.0,0.001944269402883947
40.0,0.0018480403814464808
44.0,0.0016315319808200002
48.0,0.00117973773740232
52.0,0.0007145237759687006
56.0,0.00020900543313473463
60.0,-0.00012664103996939957
64.0,-0.00012192701979074627
72.0,0.0004715115064755082
80.0,0.0006533305859193206
88.0,0.00027610312099568546
96.0,-2.9943883419036865e-05
104.0,-5.969127232674509e-05
112.0,0.00040125520899891853
120.0,0.0008112597279250622
128.0,0.0008923147106543183
144.0,0.0006767748855054379
160.0,5.406053605838679e-05
176.0,0.00035297212889418006
192.0,0.000712814275175333
208.0,0.001469247741624713
224.0,0.000981199904344976
240.0,-0.00017821895016822964
256.0,-0.00042008812306448817
288.0,-2.1426553757919464e-06
320.0,0.00023588126350659877
352.0,0.0001314764958806336
384.0,9.82778783509275e-06
416.0,0.0006267802673391998
448.0,0.00034739950206130743
480.0,4.3503536289790645e-05
512.0,-0.0004460344498511404
576.0,-0.0006028274074196815
640.0,-0.00012786455044988543
704.0,-0.00033168899244628847
768.0,-0.0011223210021853447
832.0,-1.4630749319621827e-05
896.0,-0.0004518940986599773
960.0,-0.00046307191951200366
1024.0,0.0003998411411885172
1152.0,-0.0005260502803139389
1280.0,-0.00047533735050819814
1408.0,6.763748388038948e-06
1536.0,0.00029225650359876454
1664.0,0.0007603049743920565
1792.0,0.00029352883575484157
1920.0,0.0005273116403259337
2048.0,0.000123723890283145
2304.0,9.070877240446862e-06
2560.0,-0.00019629060989245772
2816.0,-0.0001799649908207357
3072.0,-0.00023188625345937908
3328.0,2.398158130745287e-06
3584.0,0.0004286926123313606
3840.0,0.0005118618719279766
4096.0,0.00015261840599123389
4608.0,-0.000875094672665
5120.0,-0.000350245856679976
5632.0,0.0004107564745936543
6144.0,-0.00032985195866785944
6656.0,-0.00016803594189696014
7168.0,0.0004504558746702969
7680.0,-4.782087853527628e-05
8192.0,-0.00032283703330904245
9216.0,0.0002448436280246824
10240.0,0.00010728643974289298
11264.0,-9.679685172159225e-05
12288.0,-2.0774892618646845e-05
13312.0,-5.9467594837769866e-05
14336.0,-0.0001321978634223342
end
