version,3.0
numOfCh,1
type,point
parent_name,800-cuts
ch_type,1_1
kcount,1
numberNandB,1
brightnessNandB,1
carpet pos,0
pc,0
Time (ms),CH1 Auto-Correlation
1.0,0.026107661426067352
2.0,0.022923648357391357
3.0,0.020229550078511238
4.0,0.017901845276355743
5.0,0.015859901905059814
6.0,0.014125308953225613
7.0,0.012617910280823708
8.0,0.011304783634841442
9.0,0.010107764042913914
10.0,0.009044948033988476
11.0,0.00815604068338871
12.0,0.007359545677900314
13.0,0.006680934689939022
14.0,0.00605200557038188
15.0,0.005530875641852617
16.0,0.004992637783288956
18.0,0.004299077671021223
20.0,0.0038147936575114727
22.0,0.0034154963213950396
24.0,0.00315286498516798
26.0,0.002906469628214836
28.0,0.0028238575905561447
30.0,0.0026102345436811447
32.0,0.002444145968183875
36.0,0.0017503970302641392
40.0,0.0010961695807054639
44.0,0.0006973214331083
48.0,0.0005595203838311136
52.0,0.0008955920347943902
56.0,0.0014605557080358267
60.0,0.001685807597823441
64.0,0.0015447571640834212
72.0,0.0007977267378009856
80.0,0.00039126910269260406
88.0,9.715432497614529e-06
96.0,9.062325261766091e-05
104.0,0.00022481770429294556
112.0,0.0006259527872316539
120.0,0.0010256145615130663
128.0,0.0005610533989965916
144.0,0.00032836158061400056
160.0,-0.0002904847206082195
176.0,0.0006979549652896821
192.0,0.0013635116629302502
208.0,0.0015967097133398056
224.0,0.0004579189117066562
240.0,-0.00037437884020619094
256.0,0.0007243421277962625
288.0,0.0005835084011778235
320.0,-2.0788143956451677e-05
352.0,-4.256871761754155e-05
384.0,0.00023717251315247267
416.0,0.00017389055574312806
448.0,0.00011028733570128679
480.0,0.00044318466098047793
512.0,0.0002728068211581558
576.0,5.550387140829116e-05
640.0,0.00019613384210970253
704.0,-0.00021817535161972046
768.0,-0.00010034174920292571
832.0,0.0005372920422814786
896.0,0.00014998421829659492
960.0,0.00011762599751818925
1024.0,0.0009936949936673045
1152.0,-0.00044098871876485646
1280.0,0.00034336792305111885
1408.0,-2.0319568648119457e-05
1536.0,-0.0002873115590773523
1664.0,-0.00015242042718455195
1792.0,-0.0002738320326898247
1920.0,-0.0004576948413159698
2048.0,-0.000806585478130728
2304.0,-0.00039713369915261865
2560.0,0.00021434536029119045
2816.0,-0.00026163423899561167
3072.0,-0.0003814364899881184
3328.0,-0.0003451673255767673
3584.0,-2.5258068490074947e-05
3840.0,0.00019560480723157525
4096.0,0.0005870190798304975
4608.0,3.3308431738987565e-05
5120.0,0.0001188169262604788
5632.0,-0.00034608086571097374
6144.0,-8.701418846612796e-05
6656.0,0.000137151189846918
7168.0,-0.00036809692392125726
7680.0,-0.00017871712043415755
8192.0,-0.0005811992450617254
9216.0,0.0001619253307580948
10240.0,0.000428277620812878
11264.0,0.00020150115597061813
12288.0,2.671085712790955e-05
13312.0,-6.132071575848386e-06
14336.0,-0.00010800352902151644
end
