version,3.0
numOfCh,1
type,point
parent_name,800-cuts
ch_type,1_1
kcount,1
numberNandB,1
brightnessNandB,1
carpet pos,0
pc,0
Time (ms),CH1 Auto-Correlation
1.0,0.0797792375087738
2.0,0.07017248868942261
3.0,0.06213546544313431
4.0,0.055459242314100266
5.0,0.04931354150176048
6.0,0.04433441162109375
7.0,0.04003279283642769
8.0,0.03617491200566292
9.0,0.03272027149796486
10.0,0.02973419986665249
11.0,0.026895152404904366
12.0,0.024136442691087723
13.0,0.022014930844306946
14.0,0.019996440038084984
15.0,0.01827249303460121
16.0,0.01660766266286373
18.0,0.013408981263637543
20.0,0.011092916131019592
22.0,0.008931673131883144
24.0,0.0074040573090314865
26.0,0.0067961812019348145
28.0,0.005940528120845556
30.0,0.005223243031650782
32.0,0.004839502274990082
36.0,0.003780439030379057
40.0,0.0028908532112836838
44.0,0.0021744242403656244
48.0,0.002179099712520838
52.0,0.0024721487425267696
56.0,0.002250732621178031
60.0,0.0011901832185685635
64.0,0.0011084286961704493
72.0,0.0016069527482613921
80.0,0.002142090117558837
88.0,0.0033611543476581573
96.0,0.003102166811004281
104.0,0.001641712267883122
112.0,0.0013084698002785444
120.0,-0.0009376067901030183
128.0,-0.0005710683763027191
144.0,0.0006530207465402782
160.0,0.002637464553117752
176.0,0.0031532971188426018
192.0,0.002732969122007489
208.0,0.0008624215261079371
224.0,0.0014461555983871222
240.0,0.0021576914004981518
256.0,0.004494705703109503
288.0,0.0001502854429418221
320.0,-0.00019428023369982839
352.0,0.0003229783906135708
384.0,0.0022228965535759926
416.0,0.0017277600709348917
448.0,0.00016933880397118628
480.0,0.0012640758650377393
512.0,-0.001595865935087204
576.0,-0.0022350805811583996
640.0,-0.0014279745519161224
704.0,0.001044537522830069
768.0,-0.0012408823240548372
832.0,-0.0013938096817582846
896.0,-0.001640227041207254
960.0,-0.0012684958055615425
1024.0,-0.002028853865340352
1152.0,0.00022177321079652756
1280.0,-0.003882237011566758
1408.0,-0.0012013448867946863
1536.0,-0.0007147340220399201
1664.0,-0.002722862409427762
1792.0,-0.0007877525058574975
1920.0,0.0022505945526063442
2048.0,0.0005771096330136061
2304.0,0.0011128209298476577
2560.0,0.00021422521967906505
2816.0,0.000533194572199136
3072.0,0.0005525668966583908
3328.0,-0.000381071848096326
3584.0,-0.0020572056528180838
3840.0,-0.0014029265148565173
4096.0,0.0008958452381193638
4608.0,-0.0004350084054749459
5120.0,0.0008930256590247154
5632.0,-0.0001377907901769504
6144.0,0.0009943477343767881
6656.0,-0.0007236501551233232
7168.0,-0.00033796727075241506
7680.0,-0.0011821141233667731
8192.0,0.0010844501666724682
9216.0,0.00043650742736645043
10240.0,-0.0011270048562437296
11264.0,0.00034430038067512214
12288.0,-0.0008927323506213725
13312.0,0.0006304269190877676
14336.0,0.001142432913184166
end
