version,3.0
numOfCh,1
type,point
parent_name,800-cuts
ch_type,1_1
kcount,1
numberNandB,1
brightnessNandB,1
carpet pos,0
pc,0
Time (ms),CH1 Auto-Correlation
1.0,0.09119711071252823
2.0,0.08097885549068451
3.0,0.07239379733800888
4.0,0.06506212800741196
5.0,0.05851056054234505
6.0,0.05277338996529579
7.0,0.04770965129137039
8.0,0.04316796362400055
9.0,0.03922993689775467
10.0,0.03571275621652603
11.0,0.03237796574831009
12.0,0.029431946575641632
13.0,0.0269949771463871
14.0,0.024946965277194977
15.0,0.023202313110232353
16.0,0.021832847967743874
18.0,0.019389290362596512
20.0,0.016633817926049232
22.0,0.014263850636780262
24.0,0.01235031709074974
26.0,0.010826154612004757
28.0,0.009306407533586025
30.0,0.008211343549191952
32.0,0.006733579095453024
36.0,0.004250719677656889
40.0,0.002930628601461649
44.0,0.0021572194527834654
48.0,0.003449356183409691
52.0,0.003801316022872925
56.0,0.0033880770206451416
60.0,0.0033082691952586174
64.0,0.0036995585542172194
72.0,0.003790617221966386
80.0,0.002980384510010481
88.0,-0.00032268022187054157
96.0,-0.0011118024121969938
104.0,-0.0012477091513574123
112.0,-0.0027277979534119368
120.0,-0.0022571012377738953
128.0,-0.0013417556183412671
144.0,-0.0016800923040136695
160.0,-0.002158760791644454
176.0,-0.0015903745079413056
192.0,-0.0024269430432468653
208.0,-0.0020752320997416973
224.0,-2.445120844640769e-05
240.0,-0.0019151377491652966
256.0,-0.0015474031679332256
288.0,0.0032210906501859426
320.0,0.00022370798978954554
352.0,4.905579044134356e-05
384.0,0.0004214583896100521
416.0,-0.0012482706224545836
448.0,-0.0017775273881852627
480.0,-0.003135205712169409
512.0,0.003993934951722622
576.0,0.001052273903042078
640.0,-0.002126038074493408
704.0,-0.0012798591051250696
768.0,0.0022359490394592285
832.0,0.00021673967421520501
896.0,0.0018181647174060345
960.0,-0.000247589050559327
1024.0,-4.4958447688259184e-05
1152.0,-0.0008107443572953343
1280.0,-0.0008539235568605363
1408.0,-6.557859887834638e-05
1536.0,0.002362912055104971
1664.0,0.0007375703426077962
1792.0,0.0013430563267320395
1920.0,-0.00044684403110295534
2048.0,-0.0013472355203703046
2304.0,-0.000571348296944052
2560.0,0.0012854539090767503
2816.0,-0.001973098609596491
3072.0,-0.0008541304850950837
3328.0,-0.0005072431522421539
3584.0,-0.0015329573070630431
3840.0,-0.00093973393086344
4096.0,0.001086379517801106
4608.0,0.0006085325730964541
5120.0,-9.191369463223964e-05
5632.0,0.0002950729976873845
6144.0,-0.0003244226099923253
6656.0,0.00011148977500852197
7168.0,0.0004759081930387765
7680.0,-0.0007410616963170469
8192.0,-0.0012029033387079835
9216.0,-0.00016795031842775643
10240.0,-0.0009208762785419822
11264.0,0.0008406366687268019
12288.0,0.0005639214650727808
13312.0,0.00027245699311606586
14336.0,-0.00010809382365550846
end
