version,3.0
numOfCh,1
type,point
parent_name,800-cuts
ch_type,1_1
kcount,1
numberNandB,1
brightnessNandB,1
carpet pos,0
pc,0
Time (ms),CH1 Auto-Correlation
1.0,0.03816862776875496
2.0,0.033384453505277634
3.0,0.029465533792972565
4.0,0.026363203302025795
5.0,0.023798823356628418
6.0,0.021507898345589638
7.0,0.019477104768157005
8.0,0.01778547652065754
9.0,0.016275955364108086
10.0,0.014978468418121338
11.0,0.013728324323892593
12.0,0.012522687204182148
13.0,0.011570309288799763
14.0,0.010467998683452606
15.0,0.009587803855538368
16.0,0.008999565616250038
18.0,0.008124914951622486
20.0,0.0073175327852368355
22.0,0.006600202526897192
24.0,0.005871011409908533
26.0,0.005205586086958647
28.0,0.004429312888532877
30.0,0.0035104884300380945
32.0,0.002662962768226862
36.0,0.0014020944945514202
40.0,0.0004961384693160653
44.0,-2.083070830849465e-05
48.0,7.962136442074552e-05
52.0,-0.0003057741851080209
56.0,-0.0005829558940604329
60.0,-0.00045007216976955533
64.0,-0.0003206950786989182
72.0,-0.0014963456196710467
80.0,-0.0014555518282577395
88.0,-0.00038038540515117347
96.0,-2.112057882186491e-05
104.0,5.7714009017217904e-05
112.0,-0.00018769489543046802
120.0,-0.0007885739905759692
128.0,-0.000747362500987947
144.0,0.0009016876574605703
160.0,-0.0002236052241642028
176.0,-0.0015998028684407473
192.0,-0.0011043912963941693
208.0,-0.0010379374725744128
224.0,-0.00014209152141120285
240.0,0.00045383619726635516
256.0,0.0003109161334577948
288.0,-0.0008482697303406894
320.0,-0.00043496652506291866
352.0,-0.00045827135909348726
384.0,-0.00047220272244885564
416.0,-0.0006315493956208229
448.0,-0.0011674928246065974
480.0,8.727037493372336e-05
512.0,0.0004719005955848843
576.0,-0.00026058434741571546
640.0,0.0007477861363440752
704.0,0.0008212486864067614
768.0,-0.0001896105386549607
832.0,-0.0003581141645554453
896.0,0.00022650261234957725
960.0,0.0002449449384585023
1024.0,-0.0012220930075272918
1152.0,-0.0008963263826444745
1280.0,-0.0009018121636472642
1408.0,0.0002621571475174278
1536.0,6.0295937146293e-05
1664.0,-0.0001930474245455116
1792.0,0.00016917292668949813
1920.0,-0.000762484036386013
2048.0,0.0004973048344254494
2304.0,0.00030752920429222286
2560.0,-8.740356133785099e-05
2816.0,0.00043608303531073034
3072.0,8.154223178280517e-05
3328.0,-0.0005343378288671374
3584.0,0.00011394365719752386
3840.0,0.0001971586752915755
4096.0,0.0003465243789833039
4608.0,5.341181804396911e-06
5120.0,-0.00023741772747598588
5632.0,-0.00036203369381837547
6144.0,0.00011095404624938965
6656.0,0.0005010297754779458
7168.0,-0.00015888798225205392
7680.0,-0.00013630744069814682
8192.0,-0.00028974629822187126
9216.0,0.0001198890240630135
10240.0,-4.592169352690689e-05
11264.0,0.00019016805163118988
12288.0,-0.00041958445217460394
13312.0,0.0006232291925698519
14336.0,-0.0006344894063659012
end
