version,3.0
numOfCh,1
type,point
parent_name,800-cuts
ch_type,1_1
kcount,1
numberNandB,1
brightnessNandB,1
carpet pos,0
pc,0
Time (ms),CH1 Auto-Correlation
1.0,0.027999965474009514
2.0,0.02469390258193016
3.0,0.02205454744398594
4.0,0.01985527016222477
5.0,0.017932234331965446
6.0,0.016153035685420036
7.0,0.014539343304932117
8.0,0.013193758204579353
9.0,0.011995931155979633
10.0,0.011116818524897099
11.0,0.010404855012893677
12.0,0.009875583462417126
13.0,0.009393940679728985
14.0,0.00883367657661438
15.0,0.008269420824944973
16.0,0.00779595784842968
18.0,0.006968940608203411
20.0,0.006039147265255451
22.0,0.0052295103669166565
24.0,0.004395956173539162
26.0,0.003865988925099373
28.0,0.0035323272459208965
30.0,0.0031202242244035006
32.0,0.0028103627264499664
36.0,0.002438500989228487
40.0,0.0021504955366253853
44.0,0.002028094604611397
48.0,0.0018353001214563847
52.0,0.0017308794194832444
56.0,0.0015073427930474281
60.0,0.0011358479969203472
64.0,0.0010306246113032103
72.0,0.0006463502650149167
80.0,0.0002757044567260891
88.0,0.0006250220467336476
96.0,0.0007781297899782658
104.0,0.00041466960101388395
112.0,0.00023228861391544342
120.0,-5.381766823120415e-05
128.0,-0.00022929588158149272
144.0,0.0003403761947993189
160.0,0.0006645935936830938
176.0,0.0002603203756734729
192.0,7.197830564109609e-05
208.0,-0.00034831903758458793
224.0,5.349515413399786e-05
240.0,0.0008663908811286092
256.0,0.0008229293744079769
288.0,0.000685442762915045
320.0,-0.000616971927229315
352.0,-0.0009498260915279388
384.0,-7.452645513694733e-05
416.0,0.00042986724292859435
448.0,3.4441509342286736e-05
480.0,1.615697874512989e-05
512.0,-6.029934957041405e-05
576.0,-0.0006424635648727417
640.0,0.00036000541877001524
704.0,0.00028167490381747484
768.0,0.0006533362320624292
832.0,-0.00047655063099227846
896.0,-0.0001351053360849619
960.0,-4.993500260752626e-05
1024.0,0.0003567247185856104
1152.0,-0.0002780335780698806
1280.0,-0.0006926644127815962
1408.0,-0.000447693164460361
1536.0,-0.0005295497830957174
1664.0,-0.00023880939988885075
1792.0,0.0003155054000671953
1920.0,-0.00020641151058953255
2048.0,-7.918046321719885e-05
2304.0,-0.0003754879580810666
2560.0,-0.0004950467846356332
2816.0,0.00010298490815330297
3072.0,-0.00012512035027612
3328.0,7.50480976421386e-05
3584.0,0.0002618150319904089
3840.0,0.0006707849679514766
4096.0,-0.0003684891853481531
4608.0,0.00037212722236290574
5120.0,-0.0001718378916848451
5632.0,-0.0004919252824038267
6144.0,-0.0005878079682588577
6656.0,0.0008270608959719539
7168.0,0.00020326771482359618
7680.0,0.00013075066090095788
8192.0,0.00015794095816090703
9216.0,-0.00041179536492563784
10240.0,9.205935930367559e-05
11264.0,-8.381549559999257e-05
12288.0,-0.0001698638079687953
13312.0,-0.0003972934791818261
14336.0,0.00019131060980726033
end
