version,3.0
numOfCh,1
type,point
parent_name,800-cuts
ch_type,1_1
kcount,1
numberNandB,1
brightnessNandB,1
carpet pos,0
pc,0
Time (ms),CH1 Auto-Correlation
1.0,0.027309486642479897
2.0,0.024007169529795647
3.0,0.02118702046573162
4.0,0.01876222714781761
5.0,0.016690583899617195
6.0,0.014934508129954338
7.0,0.01355548296123743
8.0,0.012236682698130608
9.0,0.011141614057123661
10.0,0.010204206220805645
11.0,0.009340893477201462
12.0,0.0085448008030653
13.0,0.007838304154574871
14.0,0.007126528304070234
15.0,0.006531334016472101
16.0,0.005958606954663992
18.0,0.004867795389145613
20.0,0.003869244595989585
22.0,0.003041147952899337
24.0,0.002416832372546196
26.0,0.001992081990465522
28.0,0.0016186775173991919
30.0,0.0013164664851501584
32.0,0.0010883670765906572
36.0,0.0008916509686969221
40.0,0.0007354633416980505
44.0,0.0006626625545322895
48.0,0.0004928717971779406
52.0,0.0003542802296578884
56.0,0.0001987830182770267
60.0,0.00018072428065352142
64.0,0.00015990383690223098
72.0,-0.00022543642262462527
80.0,-0.00020610693900380284
88.0,0.00039702068897895515
96.0,0.0005671041435562074
104.0,0.00047311984235420823
112.0,0.0004904964589513838
120.0,0.0011648471700027585
128.0,0.0009908797219395638
144.0,-0.0005246215150691569
160.0,-0.0012814662186428905
176.0,6.958104495424777e-05
192.0,0.00023603183217346668
208.0,-5.909850733587518e-05
224.0,-0.0002246711665065959
240.0,-0.0003112426493316889
256.0,-0.00021500512957572937
288.0,-0.0006976890726946294
320.0,0.0001811948895920068
352.0,0.0004471220599953085
384.0,0.00017835883772931993
416.0,0.000620621838606894
448.0,-9.092044638236985e-05
480.0,0.00011890473251696676
512.0,6.835959356976673e-05
576.0,8.52217708597891e-05
640.0,8.940211409935728e-05
704.0,-0.0002964994346257299
768.0,0.0005319606279954314
832.0,-0.0005767169059254229
896.0,-0.0002151439111912623
960.0,0.00038286129711195827
1024.0,0.0005483082495629787
1152.0,-0.00023739082098472863
1280.0,-0.00013010724796913564
1408.0,-0.0004250885103829205
1536.0,-0.00039727953844703734
1664.0,-6.11141076660715e-05
1792.0,5.3752006351714954e-05
1920.0,0.00016486542881466448
2048.0,0.0004207576275803149
2304.0,-0.0002082716819131747
2560.0,-0.0006486939964815974
2816.0,-0.00035447085974738
3072.0,-6.918387953191996e-05
3328.0,2.3675696866121143e-05
3584.0,-0.0002352163864998147
3840.0,0.00034863234031945467
4096.0,0.0004472204891499132
4608.0,0.00017690102686174214
5120.0,0.0002735788584686816
5632.0,-0.00020864490943495184
6144.0,-8.444236300420016e-05
6656.0,-0.00017028536240104586
7168.0,-2.3810840502846986e-05
7680.0,-0.00016305931785609573
8192.0,0.0001747148926369846
9216.0,4.940706639899872e-05
10240.0,-0.00021893181838095188
11264.0,-0.0001441480708308518
12288.0,0.0003242388484068215
13312.0,-7.557718345196918e-05
14336.0,-0.0003577734751161188
end
