version,3.0
numOfCh,1
type,point
parent_name,800-cuts
ch_type,1_1
kcount,1
numberNandB,1
brightnessNandB,1
carpet pos,0
pc,0
Time (ms),CH1 Auto-Correlation
1.0,0.0812106654047966
2.0,0.07117240875959396
3.0,0.062852643430233
4.0,0.05586126446723938
5.0,0.05013895407319069
6.0,0.045025378465652466
7.0,0.04041005298495293
8.0,0.03649451583623886
9.0,0.03292960673570633
10.0,0.029724037274718285
11.0,0.026592707261443138
12.0,0.023712780326604843
13.0,0.02141893096268177
14.0,0.019330358132719994
15.0,0.017726071178913116
16.0,0.016377732157707214
18.0,0.014442680403590202
20.0,0.013227696530520916
22.0,0.01190511230379343
24.0,0.010647145099937916
26.0,0.009530964307487011
28.0,0.008461014367640018
30.0,0.007846544496715069
32.0,0.0071968636475503445
36.0,0.006322288885712624
40.0,0.00512187834829092
44.0,0.003198163118213415
48.0,0.0019241418922320008
52.0,0.0015685268444940448
56.0,0.002417173935100436
60.0,0.0029641774017363787
64.0,0.0024111310485750437
72.0,0.0004826804215554148
80.0,-0.001697872532531619
88.0,-0.0007043872028589249
96.0,-9.968582162400708e-05
104.0,-0.002541579771786928
112.0,-0.0055313496850430965
120.0,-0.003102692775428295
128.0,-0.0013072944711893797
144.0,-0.0015709084691479802
160.0,0.0005304816295392811
176.0,0.0005845357081852853
192.0,0.00116779247764498
208.0,-0.0012896950356662273
224.0,-0.0010468133259564638
240.0,-0.0006367182359099388
256.0,-0.0012282751267775893
288.0,-0.001939509529620409
320.0,-3.0600720492657274e-05
352.0,-0.0022259217221289873
384.0,-0.002327537862583995
416.0,-0.001123411813750863
448.0,-0.003245861269533634
480.0,0.0002895844227168709
512.0,0.0025035629514604807
576.0,0.0022894523572176695
640.0,-0.0005756353493779898
704.0,-0.0011034085182473063
768.0,0.0012175488518550992
832.0,0.0015300214290618896
896.0,0.0011247667716816068
960.0,-0.0012192933354526758
1024.0,-0.0011473881313577294
1152.0,-0.0016001957701519132
1280.0,-0.0016218265518546104
1408.0,-0.0014769891276955605
1536.0,-0.00015691858425270766
1664.0,-0.0010731490328907967
1792.0,0.0020684096962213516
1920.0,0.0011968627804890275
2048.0,-0.001257393159903586
2304.0,0.0002214934502262622
2560.0,0.001315029920078814
2816.0,-0.0005357542540878057
3072.0,-0.00099548464640975
3328.0,0.0006411372451111674
3584.0,-0.0014454813208431005
3840.0,-0.00023984785366337746
4096.0,-2.969634806504473e-06
4608.0,0.0004595074860844761
5120.0,-0.0004773676337208599
5632.0,-5.478364255395718e-05
6144.0,-0.0009749987511895597
6656.0,0.0009390370105393231
7168.0,0.0002972499351017177
7680.0,-0.0006291595636866987
8192.0,-0.00017935605137608945
9216.0,0.00033789878943935037
10240.0,0.00018736699712462723
11264.0,-0.0007606224389746785
12288.0,0.000148120874655433
13312.0,0.0001641151902731508
14336.0,-0.0015201569767668843
end
