version,3.0
numOfCh,1
type,point
parent_name,800-cuts
ch_type,1_1
kcount,1
numberNandB,1
brightnessNandB,1
carpet pos,0
pc,0
Time (ms),CH1 Auto-Correlation
1.0,0.07850755751132965
2.0,0.06864090263843536
3.0,0.060526493936777115
4.0,0.05378138646483421
5.0,0.04792386665940285
6.0,0.04281017556786537
7.0,0.038193441927433014
8.0,0.034135423600673676
9.0,0.03067869320511818
10.0,0.027504947036504745
11.0,0.0247955359518528
12.0,0.022365450859069824
13.0,0.020179271697998047
14.0,0.0185488723218441
15.0,0.01681038737297058
16.0,0.015010633505880833
18.0,0.01223865244537592
20.0,0.00986203458160162
22.0,0.00822093803435564
24.0,0.006500357761979103
26.0,0.005299527198076248
28.0,0.003255108604207635
30.0,0.001867417711764574
32.0,0.0008074453216977417
36.0,-0.0009490374359302223
40.0,-0.0019878505263477564
44.0,-0.001893510576337576
48.0,-0.0021012129727751017
52.0,-0.0018614627188071609
56.0,-5.759429404861294e-05
60.0,0.0005962788709439337
64.0,-8.684238127898425e-05
72.0,-0.002154241083189845
80.0,-0.0021271638106554747
88.0,-0.001890216488391161
96.0,-0.00213814084418118
104.0,-0.0013196401996538043
112.0,-0.0014404475223273039
120.0,-0.002031647600233555
128.0,-0.004377008881419897
144.0,-0.0015329323941841722
160.0,0.0027155340649187565
176.0,0.00040284686838276684
192.0,0.0008165123290382326
208.0,0.0018102177418768406
224.0,0.0009979883907362819
240.0,0.0005434982012957335
256.0,0.00013005804794374853
288.0,0.0007839865866117179
320.0,0.00196765991859138
352.0,0.0015626167878508568
384.0,-0.0007408468518406153
416.0,-0.0016493193106725812
448.0,-0.0028529204428195953
480.0,0.0014364512171596289
512.0,0.0022567869164049625
576.0,0.0007297353004105389
640.0,0.0009641003562137485
704.0,-0.00024158647283911705
768.0,-0.0004115752235520631
832.0,-0.0012044949689880013
896.0,-0.0007477502222172916
960.0,0.0008588132332079113
1024.0,-0.002274877391755581
1152.0,-0.0010674776276573539
1280.0,-0.0019408524967730045
1408.0,0.002584116766229272
1536.0,-0.0023075926583260298
1664.0,-8.25496590550756e-06
1792.0,-0.0015117687871679664
1920.0,-0.001662942348048091
2048.0,0.001184489345178008
2304.0,0.0007652729982510209
2560.0,-0.0004627110611181706
2816.0,0.000171616644365713
3072.0,-0.0015341024845838547
3328.0,-0.00023344517103396356
3584.0,-0.0004747597558889538
3840.0,0.0003730889584403485
4096.0,0.0008742253994569182
4608.0,0.000667608343064785
5120.0,1.1921782061108388e-05
5632.0,-0.0008725157240405679
6144.0,0.00021608048700727522
6656.0,0.0007145871641114354
7168.0,0.0007377741276286542
7680.0,0.0005154366954229772
8192.0,-0.001239326666109264
9216.0,0.0003334246575832367
10240.0,-0.0006538735469803214
11264.0,0.0008951122290454805
12288.0,-0.0003417670086491853
13312.0,0.00046301260590553284
14336.0,5.535882155527361e-05
end
