version,3.0
numOfCh,1
type,point
parent_name,800-cuts
ch_type,1_1
kcount,1
numberNandB,1
brightnessNandB,1
carpet pos,0
pc,0
Time (ms),CH1 Auto-Correlation
1.0,0.08895917981863022
2.0,0.07809487730264664
3.0,0.06912177801132202
4.0,0.06129384785890579
5.0,0.05474255606532097
6.0,0.049226485192775726
7.0,0.044404398649930954
8.0,0.04047766700387001
9.0,0.037015851587057114
10.0,0.03401900455355644
11.0,0.031473949551582336
12.0,0.028877152130007744
13.0,0.026750821620225906
14.0,0.024827569723129272
15.0,0.023038141429424286
16.0,0.02151702530682087
18.0,0.01869654282927513
20.0,0.015942851081490517
22.0,0.013356449082493782
24.0,0.010436343029141426
26.0,0.008304617367684841
28.0,0.007020911201834679
30.0,0.006784567143768072
32.0,0.006406543776392937
36.0,0.005973742809146643
40.0,0.005038300063461065
44.0,0.0041696662083268166
48.0,0.0036229121033102274
52.0,0.0017180596478283405
56.0,0.0003621854120865464
60.0,-0.0008228713413700461
64.0,-0.00030311543378047645
72.0,0.001430399832315743
80.0,0.0025246236473321915
88.0,0.0024551835376769304
96.0,0.0011397911002859473
104.0,-0.00020431373559404165
112.0,0.001625550095923245
120.0,0.0028266198933124542
128.0,0.0034289711620658636
144.0,0.0030533962417393923
160.0,0.002726190024986863
176.0,0.0018917443230748177
192.0,0.0005150857614353299
208.0,-0.0006438100826926529
224.0,-0.001592388260178268
240.0,-0.002237672219052911
256.0,0.001440550433471799
288.0,-0.0015902332961559296
320.0,-0.0021802608389407396
352.0,0.001444796216674149
384.0,-0.0004746556223835796
416.0,-0.0007045793463476002
448.0,0.0005657225847244263
480.0,-0.0005219752783887088
512.0,0.0009078106377273798
576.0,-0.0005227510118857026
640.0,0.0001392706617480144
704.0,-0.0007525571854785085
768.0,0.00045497246901504695
832.0,-0.0008005163399502635
896.0,-0.00042947204201482236
960.0,0.002314335899427533
1024.0,-8.768268162384629e-05
1152.0,0.00035246595507487655
1280.0,-0.0009223846718668938
1408.0,4.1947565478039905e-05
1536.0,0.0016212704358622432
1664.0,0.0012895032996311784
1792.0,-0.0005348608829081059
1920.0,-0.001563763478770852
2048.0,-0.0011635762639343739
2304.0,-0.0026991430204361677
2560.0,-0.00030112298554740846
2816.0,-0.00018523931794334203
3072.0,8.869986777426675e-05
3328.0,-0.00296034081839025
3584.0,-0.0014724071370437741
3840.0,-0.0013304706662893295
4096.0,0.00018295663176104426
4608.0,0.00013422046322375536
5120.0,0.000632156094070524
5632.0,0.001205344102345407
6144.0,0.0009033572277985513
6656.0,0.0017335076117888093
7168.0,-0.000889528717380017
7680.0,0.0008919578394852579
8192.0,-0.0014498148811981082
9216.0,-0.0010469924891367555
10240.0,-0.0007412981940433383
11264.0,0.0006220610812306404
12288.0,0.0003498248115647584
13312.0,0.0007071239524520934
14336.0,0.0001590340252732858
end
