version,3.0
numOfCh,1
type,point
parent_name,800-cuts
ch_type,1_1
kcount,1
numberNandB,1
brightnessNandB,1
carpet pos,0
pc,0
Time (ms),CH1 Auto-Correlation
1.0,0.08868252485990524
2.0,0.07829544693231583
3.0,0.06972535699605942
4.0,0.06234058737754822
5.0,0.05595288425683975
6.0,0.050226107239723206
7.0,0.04524950683116913
8.0,0.040729884058237076
9.0,0.03660495951771736
10.0,0.033118829131126404
11.0,0.029981696978211403
12.0,0.027038095518946648
13.0,0.024613358080387115
14.0,0.022440731525421143
15.0,0.020465191453695297
16.0,0.0187452994287014
18.0,0.015772050246596336
20.0,0.013241501525044441
22.0,0.011147827841341496
24.0,0.009444760158658028
26.0,0.007344418670982122
28.0,0.0056364405900239944
30.0,0.004539164714515209
32.0,0.003577563678845763
36.0,0.003057208377867937
40.0,0.002840097062289715
44.0,0.0029071038588881493
48.0,0.002038321690633893
52.0,0.0011957503156736493
56.0,0.0005890933680348098
60.0,-8.809428982203826e-05
64.0,-9.296855569118634e-05
72.0,0.0023991845082491636
80.0,0.004432431422173977
88.0,0.004171336069703102
96.0,0.0017466866411268711
104.0,0.001041222712956369
112.0,-0.0016120265936478972
120.0,-0.0027280128560960293
128.0,-0.0020386616233736277
144.0,-0.0006093684351071715
160.0,-0.0002038824459305033
176.0,-0.0007769568474031985
192.0,-0.003188231261447072
208.0,0.00014022232790011913
224.0,-7.879904296714813e-05
240.0,0.0002887603477574885
256.0,0.0011702392948791385
288.0,-0.0028674586210399866
320.0,-0.0051589785143733025
352.0,-0.0018435087986290455
384.0,0.00034551756107248366
416.0,0.0010926936520263553
448.0,-0.0003556366136763245
480.0,-0.0012848820770159364
512.0,-0.0006852683145552874
576.0,-0.0005358223570510745
640.0,-0.00013274002412799746
704.0,-0.000982642755843699
768.0,-0.0013004995416849852
832.0,0.00044172772322781384
896.0,0.0014339013723656535
960.0,0.0004891490680165589
1024.0,-0.0021421590354293585
1152.0,0.0003331430780235678
1280.0,0.0006475927075371146
1408.0,-0.0010724258609116077
1536.0,-0.0008956353412941098
1664.0,0.00022416790307033807
1792.0,0.00015001054271124303
1920.0,-0.0004053995362482965
2048.0,0.0010793390683829784
2304.0,-0.00021276454208418727
2560.0,0.0008792427834123373
2816.0,-0.0016892374260351062
3072.0,0.001110302866436541
3328.0,-0.0011710863327607512
3584.0,0.0014656175626441836
3840.0,0.000866736110765487
4096.0,-0.0017115779919549823
4608.0,0.00030057705589570105
5120.0,-0.0006979249883443117
5632.0,-0.0006341259577311575
6144.0,0.00013604048581328243
6656.0,0.00040721657569520175
7168.0,-0.00015350058674812317
7680.0,0.0015796241350471973
8192.0,-0.0019721542485058308
9216.0,0.000565367576200515
10240.0,-0.0003402230504434556
11264.0,8.47050832817331e-05
12288.0,-0.0006944648339413106
13312.0,0.00017457846843171865
14336.0,0.0007438088650815189
end
