version,3.0
numOfCh,1
type,point
parent_name,800-cuts
ch_type,1_1
kcount,1
numberNandB,1
brightnessNandB,1
carpet pos,0
pc,0
Time (ms),CH1 Auto-Correlation
1.0,0.041921455413103104
2.0,0.03693874552845955
3.0,0.03271683678030968
4.0,0.029125479981303215
5.0,0.025975342839956284
6.0,0.023224620148539543
7.0,0.02094804309308529
8.0,0.018985480070114136
9.0,0.017060760408639908
10.0,0.015261650085449219
11.0,0.013735859654843807
12.0,0.012381240725517273
13.0,0.011182835325598717
14.0,0.01022234745323658
15.0,0.009373817592859268
16.0,0.008640593849122524
18.0,0.007230713032186031
20.0,0.006103668827563524
22.0,0.005388964433223009
24.0,0.004684629384428263
26.0,0.003979930654168129
28.0,0.0032148046884685755
30.0,0.0027230950072407722
32.0,0.002543435199186206
36.0,0.0023781482595950365
40.0,0.0021165129728615284
44.0,0.002014248166233301
48.0,0.0016698365798220038
52.0,0.0011446839198470116
56.0,0.0010803567711263895
60.0,0.0006498239235952497
64.0,0.0002577368577476591
72.0,-0.000560099957510829
80.0,-0.0010923997033387423
88.0,-0.0013010002439841628
96.0,-0.0011629794025793672
104.0,-0.0008985056774690747
112.0,-0.0004247698525432497
120.0,-9.148647950496525e-05
128.0,0.00012877132394351065
144.0,-0.0006464123725891113
160.0,-0.0005463375709950924
176.0,0.000977511634118855
192.0,0.000875749858096242
208.0,1.707948831608519e-05
224.0,-0.0010100321378558874
240.0,-0.00152985577005893
256.0,-0.00040211991290561855
288.0,0.00011251791147515178
320.0,0.00044722785241901875
352.0,0.0005184373585507274
384.0,-7.767654460621998e-05
416.0,-0.00025646353606134653
448.0,-0.0016511119902133942
480.0,-0.002585276961326599
512.0,9.32535549509339e-05
576.0,-0.0007641109405085444
640.0,-0.0006995301228016615
704.0,0.0014500573743134737
768.0,-2.424004014756065e-05
832.0,0.000177776426426135
896.0,-0.00016539082571398467
960.0,-0.0008734374423511326
1024.0,0.0003587808459997177
1152.0,-0.0002329574344912544
1280.0,-0.0006659150822088122
1408.0,-0.0006174063310027122
1536.0,0.0013751197839155793
1664.0,7.639328032382764e-07
1792.0,-5.806203989777714e-05
1920.0,0.00031025841599330306
2048.0,-0.0005263872444629669
2304.0,0.0006787488819099963
2560.0,1.220791909872787e-05
2816.0,-0.00029473865288309753
3072.0,-0.00023248614161275327
3328.0,0.00042549354839138687
3584.0,0.00031476106960326433
3840.0,-0.0008451327448710799
4096.0,-0.0005533770890906453
4608.0,0.0001821298646973446
5120.0,0.00025667104637250304
5632.0,-0.0002782231895253062
6144.0,0.0004715684335678816
6656.0,-0.00016398417938034981
7168.0,-0.00033466226886957884
7680.0,3.269971057306975e-05
8192.0,0.00019272961071692407
9216.0,-0.0001259005512110889
10240.0,-0.00016237453382927924
11264.0,-0.00019840721506625414
12288.0,4.831495607504621e-05
13312.0,9.432103979634121e-05
14336.0,0.0003033223911188543
end
