version,3.0
numOfCh,1
type,point
parent_name,800-cuts
ch_type,1_1
kcount,1
numberNandB,1
brightnessNandB,1
carpet pos,0
pc,0
Time (ms),CH1 Auto-Correlation
1.0,0.03975144773721695
2.0,0.03488992154598236
3.0,0.030953070148825645
4.0,0.027687253430485725
5.0,0.024939391762018204
6.0,0.02248546853661537
7.0,0.020268723368644714
8.0,0.018393075093626976
9.0,0.01658259518444538
10.0,0.015109676867723465
11.0,0.013779189437627792
12.0,0.012614650651812553
13.0,0.01150684803724289
14.0,0.010605551302433014
15.0,0.009832780808210373
16.0,0.00914228055626154
18.0,0.008074835874140263
20.0,0.006954547483474016
22.0,0.006104678846895695
24.0,0.00550985150039196
26.0,0.005084793083369732
28.0,0.004579218104481697
30.0,0.0042425403371453285
32.0,0.003932610619813204
36.0,0.0033157786820083857
40.0,0.002759520197287202
44.0,0.002803799929097295
48.0,0.002906671492382884
52.0,0.002692407462745905
56.0,0.0018464645836502314
60.0,0.0009093922562897205
64.0,0.0007395767024718225
72.0,0.0010157041251659393
80.0,0.0016194210620597005
88.0,0.0009686026023700833
96.0,0.0008349421550519764
104.0,0.0005828944849781692
112.0,0.00074988161213696
120.0,0.000386013591196388
128.0,0.0003373999788891524
144.0,0.0011185432085767388
160.0,0.0007643795106559992
176.0,-0.0006956805591471493
192.0,-0.000611034978646785
208.0,-0.0008410589653067291
224.0,-0.000776234024669975
240.0,-0.0009047375642694533
256.0,-0.0011264968197792768
288.0,-0.0011556374374777079
320.0,0.0002120788412867114
352.0,-0.0005157910636626184
384.0,6.811397179262713e-05
416.0,-0.0005400818190537393
448.0,-0.0007939948118291795
480.0,-0.00023189255443867296
512.0,0.0003614861925598234
576.0,-0.00032585248118266463
640.0,-0.00048013069317676127
704.0,0.0006154647562652826
768.0,4.6089196985121816e-05
832.0,-0.001350412960164249
896.0,-0.0010988576104864478
960.0,0.001115403021685779
1024.0,0.001598641974851489
1152.0,0.0004421415214892477
1280.0,0.0007456986350007355
1408.0,0.0005514149670489132
1536.0,0.0005341554642654955
1664.0,-0.0005365668912418187
1792.0,-0.0013615292264148593
1920.0,-0.0015975168207660317
2048.0,0.0005357784684747458
2304.0,0.000801026588305831
2560.0,-0.000354457413777709
2816.0,-0.00030822466942481697
3072.0,-0.0013576551573351026
3328.0,-1.2261310757821775e-06
3584.0,-0.0001902775256894529
3840.0,-0.00021075771655887365
4096.0,-0.000647734384983778
4608.0,-0.00015364022692665458
5120.0,7.664836448384449e-05
5632.0,0.0005877201328985393
6144.0,-0.0002370786969549954
6656.0,0.000592602591495961
7168.0,0.0003792261122725904
7680.0,-0.00012932525714859366
8192.0,0.00046282936818897724
9216.0,0.0002496608649380505
10240.0,-0.0003385088057257235
11264.0,-0.00025355591787956655
12288.0,-0.00043570558773353696
13312.0,0.00011979982809862122
14336.0,0.0007089610444381833
end
