version,3.0
numOfCh,1
type,point
parent_name,800-cuts
ch_type,1_1
kcount,1
numberNandB,1
brightnessNandB,1
carpet pos,0
pc,0
Time (ms),CH1 Auto-Correlation
1.0,0.04201454296708107
2.0,0.03710523620247841
3.0,0.03290991112589836
4.0,0.029511140659451485
5.0,0.02654116228222847
6.0,0.023991229012608528
7.0,0.021677624434232712
8.0,0.019627029076218605
9.0,0.01770990900695324
10.0,0.015988798812031746
11.0,0.014487676322460175
12.0,0.01327570341527462
13.0,0.012369169853627682
14.0,0.011273899115622044
15.0,0.010271196253597736
16.0,0.009495669044554234
18.0,0.00810193084180355
20.0,0.006658785976469517
22.0,0.005509256385266781
24.0,0.004318247549235821
26.0,0.003499980317428708
28.0,0.0028780580032616854
30.0,0.002518461085855961
32.0,0.0023905241396278143
36.0,0.0018062462331727147
40.0,0.0011488106101751328
44.0,0.0005898794624954462
48.0,-8.568613702664152e-05
52.0,-2.6227166927128565e-06
56.0,-0.00024932544329203665
60.0,-0.000715157832019031
64.0,-0.0011459558736532927
72.0,-0.0010489096166566014
80.0,-0.000623539846856147
88.0,-2.2599448129767552e-05
96.0,4.8185520427068695e-05
104.0,0.00148793775588274
112.0,0.0024664676748216152
120.0,0.0028234226629137993
128.0,0.0025593393947929144
144.0,0.00225415569730103
160.0,0.0006134355789981782
176.0,-0.001777938916347921
192.0,-0.0019446314545348287
208.0,-0.0013430361868813634
224.0,0.0005016367067582905
240.0,0.0014455027412623167
256.0,0.001096236053854227
288.0,-0.0011187335476279259
320.0,0.0011037857038900256
352.0,0.00034693730412982404
384.0,-0.00017744331853464246
416.0,0.0001839694014051929
448.0,0.001436741673387587
480.0,-0.00025104277301579714
512.0,-0.0028960024937987328
576.0,0.0007681658025830984
640.0,-0.0006387651665136218
704.0,0.00128480966668576
768.0,0.0004394829156808555
832.0,-0.0016910481499508023
896.0,-0.0002503256837371737
960.0,-0.0003793883661273867
1024.0,6.559376197401434e-05
1152.0,-0.0005034204223193228
1280.0,-0.0006635627360083163
1408.0,-0.0004126244457438588
1536.0,-0.0009236111072823405
1664.0,0.0005559131386689842
1792.0,-0.00031590016442351043
1920.0,3.696374187711626e-05
2048.0,0.00025399390142410994
2304.0,0.00012979420716874301
2560.0,0.0005682465271092951
2816.0,2.0409099306561984e-05
3072.0,0.00010750563524197787
3328.0,0.0007264488958753645
3584.0,-0.0005945144221186638
3840.0,-0.00020143526489846408
4096.0,0.0002374674950260669
4608.0,-0.000133533583721146
5120.0,-0.00020408416457939893
5632.0,-3.440239015617408e-05
6144.0,-0.0003243546234443784
6656.0,2.4342994947801344e-05
7168.0,0.00022434591664932668
7680.0,-0.00021189048129599541
8192.0,-0.00027116015553474426
9216.0,-9.98713294393383e-05
10240.0,0.00029127689776942134
11264.0,-0.0009935287525877357
12288.0,0.002098864410072565
13312.0,-0.0014198336284607649
14336.0,3.6752576306753326e-06
end
