version,3.0
numOfCh,1
type,point
parent_name,800-cuts
ch_type,1_1
kcount,1
numberNandB,1
brightnessNandB,1
carpet pos,0
pc,0
Time (ms),CH1 Auto-Correlation
1.0,0.02606496959924698
2.0,0.022742968052625656
3.0,0.019950566813349724
4.0,0.017695408314466476
5.0,0.015706073492765427
6.0,0.013977233320474625
7.0,0.01242276094853878
8.0,0.011114208959043026
9.0,0.010034735314548016
10.0,0.008957439102232456
11.0,0.008076630532741547
12.0,0.007251403294503689
13.0,0.006514030508697033
14.0,0.0059281825087964535
15.0,0.005355150438845158
16.0,0.004847879987210035
18.0,0.004054099787026644
20.0,0.003442862769588828
22.0,0.0029546506702899933
24.0,0.0026435116305947304
26.0,0.0023079034872353077
28.0,0.0019194266060367227
30.0,0.0016492150025442243
32.0,0.001490836963057518
36.0,0.0013653438072651625
40.0,0.0011858366196975112
44.0,0.0006784682045690715
48.0,0.0006242662202566862
52.0,0.0007953172898851335
56.0,0.0008100849809125066
60.0,0.0008740734774619341
64.0,0.0006874290411360562
72.0,0.0003066719800699502
80.0,-0.00044591462938115
88.0,-0.0007222290732897818
96.0,-0.0009092485415749252
104.0,-0.0012188655091449618
112.0,-0.0009495051926933229
120.0,-0.0005847862339578569
128.0,-0.0007066942052915692
144.0,-0.0008328625117428601
160.0,-0.0006999119650572538
176.0,-0.00027285292162559927
192.0,-0.0005446712602861226
208.0,-0.0010694218799471855
224.0,-0.0004844751674681902
240.0,0.00013666525774169713
256.0,0.0004537016211543232
288.0,0.00023006409173831344
320.0,0.0008038861560635269
352.0,0.0008283600909635425
384.0,9.166116797132418e-05
416.0,-0.00031781356665305793
448.0,0.0004188872699160129
480.0,0.0001947567507158965
512.0,1.682113179413136e-05
576.0,0.00033253972651436925
640.0,5.2967337978770956e-05
704.0,0.0006697408389300108
768.0,0.0008858251385390759
832.0,0.0011687215883284807
896.0,-0.0004303507739678025
960.0,-0.00010837348236236721
1024.0,0.00012219732161611319
1152.0,-1.682491657106766e-08
1280.0,0.000637976685538888
1408.0,8.256598812295124e-05
1536.0,-0.0004430210101418197
1664.0,0.0006410045898519456
1792.0,0.0002764877863228321
1920.0,-8.862011782184709e-06
2048.0,0.000604923814535141
2304.0,0.00023047925787977874
2560.0,0.0001685835886746645
2816.0,-0.00016119303472805768
3072.0,0.00015213731967378408
3328.0,1.53610799316084e-05
3584.0,-0.00023481152311433107
3840.0,9.103876072913408e-05
4096.0,-0.00010417462908662856
4608.0,-3.632518200902268e-05
5120.0,-8.604395407019183e-05
5632.0,-0.00018148095114156604
6144.0,-0.00021162655320949852
6656.0,-0.00010397371806902811
7168.0,0.00011082034325227141
7680.0,-1.4340161214931868e-05
8192.0,-5.506039451574907e-05
9216.0,-5.797092671855353e-05
10240.0,1.1777464123952086e-06
11264.0,-0.00018025105237029493
12288.0,-0.0005576100083999336
13312.0,-0.00048043474089354277
14336.0,-0.0005265422514639795
end
