version,3.0
numOfCh,1
type,point
parent_name,800-cuts
ch_type,1_1
kcount,1
numberNandB,1
brightnessNandB,1
carpet pos,0
pc,0
Time (ms),CH1 Auto-Correlation
1.0,0.09936007857322693
2.0,0.08859347552061081
3.0,0.07895373553037643
4.0,0.07068279385566711
5.0,0.0635443851351738
6.0,0.05701766908168793
7.0,0.05116378515958786
8.0,0.04631275311112404
9.0,0.04172699898481369
10.0,0.03791778162121773
11.0,0.034278545528650284
12.0,0.03105839528143406
13.0,0.027866173535585403
14.0,0.02504734881222248
15.0,0.02230750396847725
16.0,0.02006196416914463
18.0,0.016468595713377
20.0,0.01364114973694086
22.0,0.011584003455936909
24.0,0.009340139105916023
26.0,0.007297011557966471
28.0,0.00581382168456912
30.0,0.004172571934759617
32.0,0.003319366602227092
36.0,0.0022108072880655527
40.0,0.001147547154687345
44.0,-0.00087469641584903
48.0,-0.0017683967016637325
52.0,-0.002371867187321186
56.0,-0.002615109086036682
60.0,-0.00272379070520401
64.0,-0.0032965175341814756
72.0,-0.004364555701613426
80.0,-0.0010865844087675214
88.0,-0.0025949575938284397
96.0,-0.004507993347942829
104.0,-0.006114272866398096
112.0,-0.006539451889693737
120.0,-0.0065809269435703754
128.0,-0.005883400794118643
144.0,-0.0017376160249114037
160.0,-0.0002653638075571507
176.0,-0.0007649692124687135
192.0,-0.0018956345738843083
208.0,-0.0031066113151609898
224.0,-0.0019587241113185883
240.0,0.0031479441095143557
256.0,0.0044181374832987785
288.0,-0.001233391580171883
320.0,-0.002303043380379677
352.0,-0.000924954132642597
384.0,0.00033934827661141753
416.0,-0.0004294399986974895
448.0,0.002370411530137062
480.0,0.001571770990267396
512.0,0.0003857339033856988
576.0,-0.0007818829617463052
640.0,0.002189039485529065
704.0,-0.001530635403469205
768.0,0.0014464221894741058
832.0,-0.0007029682165011764
896.0,0.004234654363244772
960.0,-0.0025547132827341557
1024.0,-0.002496889792382717
1152.0,0.00120994180906564
1280.0,-0.0008869765442796052
1408.0,0.0018939725123345852
1536.0,0.0022866264916956425
1664.0,-0.0006907206261530519
1792.0,0.002417617244645953
1920.0,-0.002151548396795988
2048.0,-0.0013866916997358203
2304.0,0.001787331304512918
2560.0,0.0006572172860614955
2816.0,-0.0023015676997601986
3072.0,0.0014471780741587281
3328.0,-0.0006665619439445436
3584.0,-0.0011337484465911984
3840.0,0.002144978381693363
4096.0,0.00039708625990897417
4608.0,0.00015047495253384113
5120.0,-0.00020089770259801298
5632.0,0.00046055071288719773
6144.0,0.0008734949515201151
6656.0,-1.1546889254532289e-05
7168.0,-0.00012175504525657743
7680.0,-0.00027099926955997944
8192.0,-0.0011473540216684341
9216.0,-0.00026794092264026403
10240.0,-0.0002052255003945902
11264.0,-0.0010953961173072457
12288.0,-1.6265375961665995e-05
13312.0,-0.000942903570830822
14336.0,-0.00232691434212029
end
