version,3.0
numOfCh,1
type,point
parent_name,800-cuts
ch_type,1_1
kcount,1
numberNandB,1
brightnessNandB,1
carpet pos,0
pc,0
Time (ms),CH1 Auto-Correlation
1.0,0.026883285492658615
2.0,0.02351911924779415
3.0,0.020647898316383362
4.0,0.01819974184036255
5.0,0.016077086329460144
6.0,0.014256921596825123
7.0,0.012683819979429245
8.0,0.011397281661629677
9.0,0.010100994259119034
10.0,0.009030964225530624
11.0,0.00807936955243349
12.0,0.00722942128777504
13.0,0.006513902451843023
14.0,0.005857790820300579
15.0,0.0053283232264220715
16.0,0.0048248255625367165
18.0,0.0037259834352880716
20.0,0.00291260308586061
22.0,0.002405185718089342
24.0,0.001948396791703999
26.0,0.0014068791642785072
28.0,0.0009873706148937345
30.0,0.0006764849531464279
32.0,0.00040499132592231035
36.0,-6.415579264285043e-06
40.0,-6.2381891439144965e-06
44.0,-0.00013728166231885552
48.0,-0.00029178420663811266
52.0,-0.0003466431226115674
56.0,-0.00032633592491038144
60.0,-0.00040280362009070814
64.0,-0.0001859195326687768
72.0,-0.0003186483518220484
80.0,-0.0002572595258243382
88.0,-0.00014643953181803226
96.0,-0.0006236042827367783
104.0,-0.000895696459338069
112.0,-0.0012768263695761561
120.0,-0.0011471068719401956
128.0,-0.001058219000697136
144.0,-0.0009375577210448682
160.0,-0.00029114584322087467
176.0,0.0005361229414120317
192.0,0.0015748223522678018
208.0,0.0011916342191398144
224.0,0.0009034440736286342
240.0,0.0008425723644904792
256.0,-0.00016705601592548192
288.0,-0.00022399508452508599
320.0,-8.947490277932957e-05
352.0,-0.00033608649391680956
384.0,0.0005732217687182128
416.0,0.0001590770116308704
448.0,-0.00032980888499878347
480.0,-0.0008939990075305104
512.0,-0.00014579520211555064
576.0,6.247179408092052e-05
640.0,-0.00016559560026507825
704.0,-0.0007426462252624333
768.0,-0.0003835755633190274
832.0,4.625994915841147e-05
896.0,-0.0003145107766613364
960.0,-0.00032740988535806537
1024.0,-0.00040526059456169605
1152.0,0.00058415113016963
1280.0,-0.0002637003199197352
1408.0,-0.0004688262124545872
1536.0,-9.628088446334004e-05
1664.0,0.0002478801761753857
1792.0,3.524165322232875e-06
1920.0,0.00016325851902365685
2048.0,-0.0005161866429261863
2304.0,0.0006527973455376923
2560.0,-0.00016541031072847545
2816.0,3.35226213792339e-05
3072.0,-0.0004906930262222886
3328.0,0.0004116656491532922
3584.0,-0.0001740197476465255
3840.0,0.00027086713816970587
4096.0,-2.1915873730904423e-05
4608.0,0.00021034419478382915
5120.0,-0.0002491480263415724
5632.0,0.0002380706137046218
6144.0,-0.00021746369020547718
6656.0,-9.193443838739768e-05
7168.0,8.959604747360572e-05
7680.0,5.192588287172839e-05
8192.0,-0.0001419664768036455
9216.0,-0.00012338761007413268
10240.0,0.00038093849434517324
11264.0,-0.00040790828643366694
12288.0,-4.8671572585590184e-05
13312.0,6.295775528997183e-05
14336.0,0.0002151811495423317
end
