version,3.0
numOfCh,1
type,point
parent_name,800-cuts
ch_type,1_1
kcount,1
numberNandB,1
brightnessNandB,1
carpet pos,0
pc,0
Time (ms),CH1 Auto-Correlation
1.0,0.07659672200679779
2.0,0.06664278358221054
3.0,0.058317702263593674
4.0,0.05161761865019798
5.0,0.04613795876502991
6.0,0.041342880576848984
7.0,0.03709803521633148
8.0,0.03296992927789688
9.0,0.029222220182418823
10.0,0.02584955468773842
11.0,0.023090504109859467
12.0,0.020614366978406906
13.0,0.01847016252577305
14.0,0.016911767423152924
15.0,0.015602676197886467
16.0,0.013885779306292534
18.0,0.011506888084113598
20.0,0.00905423890799284
22.0,0.006990943569689989
24.0,0.005649849772453308
26.0,0.00477720657363534
28.0,0.0041197617538273335
30.0,0.003288000589236617
32.0,0.0026899853255599737
36.0,0.0017111781053245068
40.0,0.0009508100338280201
44.0,0.0013333178358152509
48.0,0.0016656976658850908
52.0,0.0017122220015153289
56.0,0.0013647375162690878
60.0,0.0001248128100996837
64.0,-0.00023017506464384496
72.0,0.0021832052152603865
80.0,0.0026857524644583464
88.0,0.002330005867406726
96.0,0.003120306646451354
104.0,0.0031755277886986732
112.0,0.002609685994684696
120.0,0.0008170282817445695
128.0,2.6058874937007204e-05
144.0,-0.0023906747810542583
160.0,-0.0006959489546716213
176.0,0.0020305307116359472
192.0,0.0032365822698920965
208.0,0.003338797949254513
224.0,-0.00040294876089319587
240.0,2.4013515940168872e-05
256.0,0.0002705134393181652
288.0,-0.000409201456932351
320.0,-0.00027382123516872525
352.0,-0.0002361737278988585
384.0,0.0013704118318855762
416.0,-0.0017949683824554086
448.0,0.000590209907386452
480.0,0.0026123502757400274
512.0,-0.0010621089022606611
576.0,0.002024502493441105
640.0,0.0011143849696964025
704.0,0.00012873510422650725
768.0,0.0014258173760026693
832.0,-0.002154255984351039
896.0,0.0010086027905344963
960.0,0.0015069760847836733
1024.0,0.0018099242588505149
1152.0,0.0013772380771115422
1280.0,-0.0008944680448621511
1408.0,0.001000079559162259
1536.0,-0.0010282313451170921
1664.0,0.0008121634600684047
1792.0,9.26536085898988e-05
1920.0,-0.001069694641046226
2048.0,0.0010951209114864469
2304.0,-0.0004034156445413828
2560.0,0.0007134898332878947
2816.0,0.0009762500994838774
3072.0,-0.0009937102440744638
3328.0,0.0007965616532601416
3584.0,-0.0013939408818259835
3840.0,0.000649746973067522
4096.0,0.00027411547489464283
4608.0,-0.001537488424219191
5120.0,-0.00045706710079684854
5632.0,-0.0014351471327245235
6144.0,-0.001027179998345673
6656.0,0.00014324765652418137
7168.0,-0.000849738426040858
7680.0,0.00044196416274644434
8192.0,-0.000946659711189568
9216.0,-0.00017412329907529056
10240.0,0.000884643173776567
11264.0,0.00020990859775338322
12288.0,-0.00015864578017499298
13312.0,-0.00046673091128468513
14336.0,0.0019509389530867338
end
