version,3.0
numOfCh,1
type,point
parent_name,800-cuts
ch_type,1_1
kcount,1
numberNandB,1
brightnessNandB,1
carpet pos,0
pc,0
Time (ms),CH1 Auto-Correlation
1.0,0.03973659127950668
2.0,0.034863006323575974
3.0,0.030748657882213593
4.0,0.027200082316994667
5.0,0.02420930378139019
6.0,0.02166564390063286
7.0,0.019491450861096382
8.0,0.01755899004638195
9.0,0.0158550962805748
10.0,0.01441213209182024
11.0,0.013121714815497398
12.0,0.012104447931051254
13.0,0.011409923434257507
14.0,0.010679587721824646
15.0,0.01015824731439352
16.0,0.009625287726521492
18.0,0.008460061624646187
20.0,0.0072593106888234615
22.0,0.0063349106349051
24.0,0.00545592000707984
26.0,0.004568316973745823
28.0,0.004185094963759184
30.0,0.00411812961101532
32.0,0.004134051036089659
36.0,0.0035554307978600264
40.0,0.0032141339033842087
44.0,0.002426540246233344
48.0,0.0017457461217418313
52.0,0.0012132847914472222
56.0,0.000907799054402858
60.0,0.0005490531912073493
64.0,0.00031231780303642154
72.0,-0.00029018803616054356
80.0,-0.0012021458242088556
88.0,0.00019252620404586196
96.0,-0.00012832625361625105
104.0,2.7333982870914042e-05
112.0,-0.00014182706945575774
120.0,0.00038083293475210667
128.0,0.0005419284570962191
144.0,2.980505996674765e-05
160.0,-0.0010304648894816637
176.0,-0.0006046275375410914
192.0,0.00021173049753997475
208.0,0.0004618433304131031
224.0,0.00042582632158882916
240.0,0.00033703725785017014
256.0,-0.0008295587613247335
288.0,-0.00126986566465348
320.0,-5.493368735187687e-05
352.0,0.0006405983585864305
384.0,-0.00022910902043804526
416.0,0.00019001326290890574
448.0,-0.00023480925301555544
480.0,-0.0005805381224490702
512.0,-0.0005096079548820853
576.0,-0.001457342179492116
640.0,-0.0006401051068678498
704.0,0.0007643467979505658
768.0,0.00032186738098971546
832.0,0.0003507350629661232
896.0,0.0014929320896044374
960.0,-0.0005852797185070813
1024.0,-0.00023518310626968741
1152.0,0.0005420345696620643
1280.0,0.00045208432129584253
1408.0,-0.001181543106213212
1536.0,-0.0005966772441752255
1664.0,-0.0004473685985431075
1792.0,-0.0004450195119716227
1920.0,0.0005312770954333246
2048.0,-0.00024817994562909007
2304.0,-0.00034337156102992594
2560.0,-0.0006333950441330671
2816.0,-0.00040156178874894977
3072.0,4.1566843719920143e-05
3328.0,-0.00044277109554968774
3584.0,-0.0001129984375438653
3840.0,-0.0005596709670498967
4096.0,0.00033734162570908666
4608.0,-0.0004173377819824964
5120.0,0.00031214251066558063
5632.0,0.000726089405361563
6144.0,-0.00026297522708773613
6656.0,0.0003795058000832796
7168.0,4.6274406486190856e-05
7680.0,0.0003993254795204848
8192.0,-0.0003039910807274282
9216.0,-0.0006151591660454869
10240.0,-0.0002763177326414734
11264.0,0.00045909680193290114
12288.0,0.0002118768752552569
13312.0,-0.00017505370487924665
14336.0,-0.0003351583145558834
end
