version,3.0
numOfCh,1
type,point
parent_name,800-cuts
ch_type,1_1
kcount,1
numberNandB,1
brightnessNandB,1
carpet pos,0
pc,0
Time (ms),CH1 Auto-Correlation
1.0,0.028328971937298775
2.0,0.024938900023698807
3.0,0.022164443507790565
4.0,0.01979348249733448
5.0,0.017786124721169472
6.0,0.015933940187096596
7.0,0.014325260184705257
8.0,0.012791136279702187
9.0,0.011432241648435593
10.0,0.010254337452352047
11.0,0.009323984384536743
12.0,0.008557036519050598
13.0,0.00783107616007328
14.0,0.00707382895052433
15.0,0.006400367710739374
16.0,0.005948311183601618
18.0,0.005126056261360645
20.0,0.004402185324579477
22.0,0.003942855633795261
24.0,0.0035083910916000605
26.0,0.002959232311695814
28.0,0.0023317968007177114
30.0,0.0017187230987474322
32.0,0.0013230293989181519
36.0,0.0013216693187132478
40.0,0.0013689571060240269
44.0,0.0013058179756626487
48.0,0.0013375442940741777
52.0,0.0010838786838576198
56.0,0.0009648824925534427
60.0,0.0007875293376855552
64.0,0.0006471946253441274
72.0,0.0005312705179676414
80.0,1.2261266419955064e-05
88.0,-0.00016781514568720013
96.0,-0.0003906305937562138
104.0,-9.502427565166727e-05
112.0,-0.00036720267962664366
120.0,-0.0008024695562198758
128.0,-0.000911818933673203
144.0,-0.0006693215691484511
160.0,-1.9537330445018597e-05
176.0,0.00021276499319355935
192.0,-5.7326589740114287e-05
208.0,0.0008029452874325216
224.0,-0.0008967109606601298
240.0,-0.0016058383043855429
256.0,-0.0017438541399315
288.0,-0.0003092285187449306
320.0,-0.0007356999558396637
352.0,-0.00012992108531761914
384.0,0.00025967328110709786
416.0,-0.00022503500804305077
448.0,-0.00022606838319916278
480.0,-0.001002640463411808
512.0,-0.001030771411024034
576.0,0.00023130603949539363
640.0,-0.00046997444587759674
704.0,2.0439782019820996e-05
768.0,0.0003837714612018317
832.0,-0.000547702016774565
896.0,-0.0006726195570081472
960.0,0.0001841079501900822
1024.0,-0.0008528976468369365
1152.0,9.058797877514735e-05
1280.0,0.00019022170454263687
1408.0,0.00024686247343197465
1536.0,-0.0002179478615289554
1664.0,0.0009629462147131562
1792.0,-0.0003547274391166866
1920.0,-0.00043025717604905367
2048.0,0.0004651069175451994
2304.0,-0.0003689287696033716
2560.0,5.4161696425580885e-06
2816.0,-3.995048245997168e-05
3072.0,0.00040099534089677036
3328.0,0.0002947437751572579
3584.0,-0.00013345543993636966
3840.0,-0.0002858162915799767
4096.0,7.896126044215634e-05
4608.0,9.191338904201984e-06
5120.0,0.00022080057533457875
5632.0,-0.000555141014046967
6144.0,0.00047512922901660204
6656.0,0.00025749157066456974
7168.0,-0.0004799639282282442
7680.0,0.00047323419130407274
8192.0,-0.0002346643159398809
9216.0,0.00010630160250002518
10240.0,-0.0001385493960697204
11264.0,6.736994691891596e-05
12288.0,-0.00014160730643197894
13312.0,0.00010621448745951056
14336.0,5.620835872832686e-05
end
