version,3.0
numOfCh,1
type,point
parent_name,800-cuts
ch_type,1_1
kcount,1
numberNandB,1
brightnessNandB,1
carpet pos,0
pc,0
Time (ms),CH1 Auto-Correlation
1.0,0.025923725217580795
2.0,0.02277946285903454
3.0,0.02023085579276085
4.0,0.018007289618253708
5.0,0.016120510175824165
6.0,0.014408665709197521
7.0,0.012993809767067432
8.0,0.011727382428944111
9.0,0.010608276352286339
10.0,0.009736143052577972
11.0,0.008964717388153076
12.0,0.00835528876632452
13.0,0.007725839968770742
14.0,0.0071649630554020405
15.0,0.00665992172434926
16.0,0.006175451911985874
18.0,0.005471744574606419
20.0,0.004924010019749403
22.0,0.00431534368544817
24.0,0.0038671852089464664
26.0,0.003307206556200981
28.0,0.002883853856474161
30.0,0.002524475334212184
32.0,0.00210787495598197
36.0,0.0014510933542624116
40.0,0.0009133100393228233
44.0,0.00017791545542422682
48.0,-0.0002981382131110877
52.0,-0.0004725465551018715
56.0,-0.0004436842864379287
60.0,-0.0005525847082026303
64.0,-0.0007179757812991738
72.0,-0.0007038631592877209
80.0,-4.500619979808107e-05
88.0,0.0004652583447750658
96.0,0.0002004670532187447
104.0,0.00022593853645958006
112.0,0.0006441879668273032
120.0,0.0008854900952428579
128.0,0.0007079787901602685
144.0,0.00035093282349407673
160.0,-7.671456114621833e-05
176.0,-0.000536230334546417
192.0,-0.0012751799076795578
208.0,-0.001122835441492498
224.0,-0.0007104459800757468
240.0,-0.0002290694392286241
256.0,0.00045434077037498355
288.0,-0.00030051820795051754
320.0,-0.0010535831097513437
352.0,-0.0011171926744282246
384.0,-0.00043272910988889635
416.0,-0.0003945549251511693
448.0,0.00016773570678196847
480.0,0.0004524793184828013
512.0,-0.00023775552108418196
576.0,0.0010461877100169659
640.0,-0.0001712847879389301
704.0,0.0004586178984027356
768.0,-0.00021025650494266301
832.0,-0.0005731915007345378
896.0,0.00012151955888839439
960.0,-0.0006262774695642292
1024.0,0.0005294091533869505
1152.0,0.0005212440737523139
1280.0,0.0002649834204930812
1408.0,0.00041285602492280304
1536.0,0.00019742695440072566
1664.0,0.0001865548692876473
1792.0,-0.0007069637067615986
1920.0,-3.1509487598668784e-05
2048.0,0.0002557600091677159
2304.0,-0.00031519943149760365
2560.0,0.0004260883142706007
2816.0,0.0001696132094366476
3072.0,-0.000676764058880508
3328.0,0.0005393310566432774
3584.0,0.00011204693873878568
3840.0,-5.488629176397808e-05
4096.0,0.0002631050592754036
4608.0,-0.0001012004868243821
5120.0,0.00012028224591631442
5632.0,-0.0002738476323429495
6144.0,0.0002449924068059772
6656.0,-0.0003227773413527757
7168.0,-1.6511328794877045e-05
7680.0,-0.00022381459712050855
8192.0,0.00016428172239102423
9216.0,-0.00015299476217478514
10240.0,-1.65765577548882e-05
11264.0,-0.0003370102494955063
12288.0,-0.0002511453058104962
13312.0,-1.17631207103841e-05
14336.0,-0.00012407012400217354
end
