version,3.0
numOfCh,1
type,point
parent_name,800-cuts
ch_type,1_1
kcount,1
numberNandB,1
brightnessNandB,1
carpet pos,0
pc,0
Time (ms),CH1 Auto-Correlation
1.0,0.026238106191158295
2.0,0.023035207763314247
3.0,0.02038724347949028
4.0,0.018089568242430687
5.0,0.016085587441921234
6.0,0.014308926649391651
7.0,0.012828375212848186
8.0,0.011602459475398064
9.0,0.01043423730880022
10.0,0.009457118809223175
11.0,0.00853993184864521
12.0,0.007718842942267656
13.0,0.006941736210137606
14.0,0.006226630415767431
15.0,0.005621761549264193
16.0,0.005153675097972155
18.0,0.004253762308508158
20.0,0.0033511645160615444
22.0,0.002590204356238246
24.0,0.00205929484218359
26.0,0.0014481099788099527
28.0,0.0009709944715723395
30.0,0.0006738472147844732
32.0,0.00033886238816194236
36.0,-0.00011988114420091733
40.0,-0.00020952362683601677
44.0,-0.00025120729696936905
48.0,-6.720898909406969e-06
52.0,-8.051212353166193e-05
56.0,-0.00026273305411450565
60.0,-0.000201862640096806
64.0,2.367232445976697e-05
72.0,0.00038639173726551235
80.0,0.000770471291616559
88.0,0.0011399174109101295
96.0,0.0009839076083153486
104.0,0.0005011761095374823
112.0,0.0005428488366305828
120.0,0.00013578739890363067
128.0,-0.0002989641507156193
144.0,-0.0009275793563574553
160.0,-0.000431602296885103
176.0,-0.0005924561410211027
192.0,0.0009287722059525549
208.0,0.0015181107446551323
224.0,0.0009716901695355773
240.0,0.0007390517275780439
256.0,0.00015769273159094155
288.0,0.0002772922453004867
320.0,-0.0003927905927412212
352.0,-0.00025905517395585775
384.0,-0.00032101498800329864
416.0,0.0005147306364960968
448.0,0.0006368084577843547
480.0,-0.0002351989969611168
512.0,-0.00038825112278573215
576.0,-0.00014657060091849416
640.0,5.3292249504011124e-05
704.0,-0.00021128988009877503
768.0,-0.00021076828124932945
832.0,-0.0005145071190781891
896.0,-0.0002053829375654459
960.0,-0.0001290797517867759
1024.0,0.000552540470380336
1152.0,-0.00021092347742523998
1280.0,3.688591095851734e-05
1408.0,-3.1764451705385e-05
1536.0,-2.3022754248813726e-05
1664.0,-0.00014026364078745246
1792.0,-0.0005604954203590751
1920.0,2.16072476177942e-05
2048.0,0.000874868652317673
2304.0,0.0004122034879401326
2560.0,0.0004222206480335444
2816.0,-0.00011214606638532132
3072.0,-0.0002874485217034817
3328.0,0.0004454774607438594
3584.0,0.0005680897156707942
3840.0,-0.00025290626217611134
4096.0,-0.00025721790734678507
4608.0,1.5919466022751294e-05
5120.0,-0.000204008276341483
5632.0,-3.1193634640658274e-05
6144.0,-0.00013001840852666646
6656.0,4.256157990312204e-05
7168.0,-0.00023251946549862623
7680.0,-4.045386958750896e-05
8192.0,-0.0001283064193557948
9216.0,-0.00044424229417927563
10240.0,0.0002083398139802739
11264.0,-0.0004426328232511878
12288.0,1.7217131244251505e-05
13312.0,0.00019418132433202118
14336.0,-0.00033530895598232746
end
