version,3.0
numOfCh,1
type,point
parent_name,800-cuts
ch_type,1_1
kcount,1
numberNandB,1
brightnessNandB,1
carpet pos,0
pc,0
Time (ms),CH1 Auto-Correlation
1.0,0.039086051285266876
2.0,0.03414682298898697
3.0,0.030060920864343643
4.0,0.02667834982275963
5.0,0.023768052458763123
6.0,0.021215323358774185
7.0,0.01900055818259716
8.0,0.01710616424679756
9.0,0.015293311327695847
10.0,0.013832914642989635
11.0,0.01251470297574997
12.0,0.01135278306901455
13.0,0.010440926998853683
14.0,0.009772426448762417
15.0,0.00915255956351757
16.0,0.008498732931911945
18.0,0.0071788690984249115
20.0,0.005933448206633329
22.0,0.005056146532297134
24.0,0.004282685928046703
26.0,0.0034682212863117456
28.0,0.0029199901036918163
30.0,0.0026376801542937756
32.0,0.002103396225720644
36.0,0.001020056544803083
40.0,0.0006969866808503866
44.0,0.0004501341609284282
48.0,0.00013823686458636075
52.0,-0.00021629624825436622
56.0,-0.0002721768105402589
60.0,-0.0008685909560881555
64.0,-0.0013193401973694563
72.0,3.648253914434463e-05
80.0,0.00011041583638871089
88.0,-0.0006113408016972244
96.0,-0.0007140418165363371
104.0,-0.000695351860485971
112.0,-0.0004273766535334289
120.0,-0.0011253025149926543
128.0,-0.001118417363613844
144.0,0.00033827999141067266
160.0,0.0008720013429410756
176.0,0.0009352818015031517
192.0,0.0009368066093884408
208.0,-5.3592251788359135e-05
224.0,-0.0006752470508217812
240.0,-0.0006930699455551803
256.0,-0.00010920570639427751
288.0,-0.0003082788025494665
320.0,0.00045207221410237253
352.0,0.0007998421206139028
384.0,-0.00019649972091428936
416.0,0.0008659170707687736
448.0,-0.0008864455739967525
480.0,-0.0008828675490804017
512.0,-0.0010608794400468469
576.0,-0.0005818706704303622
640.0,-7.444427319569513e-05
704.0,0.0006152499699965119
768.0,-0.0010287071345373988
832.0,0.0004496130277402699
896.0,0.0012166317319497466
960.0,0.0001210004702443257
1024.0,0.0005809800932183862
1152.0,0.0001954820763785392
1280.0,0.0002790353028103709
1408.0,2.3279813831322826e-05
1536.0,0.0008315657032653689
1664.0,4.998911026632413e-05
1792.0,-0.0001612650230526924
1920.0,-5.358509952202439e-05
2048.0,-0.0005093723302707076
2304.0,0.00016267923638224602
2560.0,-0.0003127114032395184
2816.0,-0.0003444658359512687
3072.0,-0.00020413650781847537
3328.0,-0.0003589022089727223
3584.0,-0.000304845831124112
3840.0,-0.0002149551291950047
4096.0,-0.0005015821079723537
4608.0,-0.0003982227644883096
5120.0,-5.134119055583142e-05
5632.0,-0.00016373564722016454
6144.0,3.258769356762059e-05
6656.0,0.00018310078303329647
7168.0,9.591373964212835e-05
7680.0,0.00037546243402175605
8192.0,-0.00012232996232341975
9216.0,-2.9650094802491367e-05
10240.0,-0.00013559222861658782
11264.0,4.81450988445431e-05
12288.0,7.665527664357796e-05
13312.0,-6.654427124885842e-05
14336.0,2.764222153928131e-05
end
