version,3.0
numOfCh,1
type,point
parent_name,800-cuts
ch_type,1_1
kcount,1
numberNandB,1
brightnessNandB,1
carpet pos,0
pc,0
Time (ms),CH1 Auto-Correlation
1.0,0.08280997723340988
2.0,0.07320553064346313
3.0,0.06527259945869446
4.0,0.05862324684858322
5.0,0.052769869565963745
6.0,0.047847770154476166
7.0,0.04347072169184685
8.0,0.03948896750807762
9.0,0.035980042070150375
10.0,0.03273754194378853
11.0,0.02987309917807579
12.0,0.027203863486647606
13.0,0.02467424049973488
14.0,0.022582266479730606
15.0,0.020780213177204132
16.0,0.018875960260629654
18.0,0.015592262148857117
20.0,0.012803716585040092
22.0,0.01048832293599844
24.0,0.007928538136184216
26.0,0.005945349112153053
28.0,0.004619408864527941
30.0,0.003780065104365349
32.0,0.003289205487817526
36.0,0.0017538154497742653
40.0,0.00044048213749192655
44.0,-0.0013108855346217752
48.0,-0.002423230092972517
52.0,-0.0023127722088247538
56.0,-0.0008744466467760503
60.0,0.0005855659255757928
64.0,0.0013347846688702703
72.0,0.0018364455318078399
80.0,0.0027666501700878143
88.0,0.004009580705314875
96.0,0.0031928971875458956
104.0,0.0020918368827551603
112.0,0.000480185030028224
120.0,-0.0007355710840784013
128.0,-2.0561299606924877e-05
144.0,0.00015885458560660481
160.0,0.001402570866048336
176.0,0.0001131480312324129
192.0,-0.001688657677732408
208.0,-0.002701212652027607
224.0,-0.0015326212160289288
240.0,-0.0005524209118448198
256.0,-0.0019041571067646146
288.0,-0.001993610756471753
320.0,-0.0003338950627949089
352.0,0.0018920695874840021
384.0,-0.004289164207875729
416.0,0.0015212908620014787
448.0,0.0017082297708839178
480.0,-0.000564104353543371
512.0,0.0007989060832187533
576.0,0.0003903348697349429
640.0,-0.0022470157127827406
704.0,-0.0008856438216753304
768.0,-0.0023579902481287718
832.0,-0.0015168238896876574
896.0,0.0025039755273610353
960.0,0.00022528345289174467
1024.0,0.004814120475202799
1152.0,-0.0019060041522607207
1280.0,0.0009668520069681108
1408.0,0.0013506883988156915
1536.0,0.00038472498999908566
1664.0,-7.0107071223901585e-06
1792.0,0.0006135923904366791
1920.0,-0.0009368483442813158
2048.0,-0.0013398898299783468
2304.0,0.00019306734611745924
2560.0,-0.001274860929697752
2816.0,0.0002599164436105639
3072.0,0.00019882607739418745
3328.0,-0.0009789899922907352
3584.0,0.0010670858900994062
3840.0,-0.001559869502671063
4096.0,0.0015261040534824133
4608.0,-0.0007907701074145734
5120.0,-0.00018223552615381777
5632.0,0.0004496370966080576
6144.0,-0.00018551733228377998
6656.0,0.00043626572005450726
7168.0,0.0006938072037883103
7680.0,-5.618969680654118e-07
8192.0,-0.001317325746640563
9216.0,-0.00016259611584246159
10240.0,0.00010751658555818722
11264.0,-0.00043044984340667725
12288.0,0.00019196115317754447
13312.0,-5.991964280838147e-05
14336.0,-0.000246713258093223
end
