version,3.0
numOfCh,1
type,point
parent_name,800-cuts
ch_type,1_1
kcount,1
numberNandB,1
brightnessNandB,1
carpet pos,0
pc,0
Time (ms),CH1 Auto-Correlation
1.0,0.09507720172405243
2.0,0.08419723808765411
3.0,0.0750698372721672
4.0,0.06738743931055069
5.0,0.06095096468925476
6.0,0.055479273200035095
7.0,0.05039084330201149
8.0,0.04578930512070656
9.0,0.04180823266506195
10.0,0.03858795017004013
11.0,0.035432469099760056
12.0,0.032571230083703995
13.0,0.02948654070496559
14.0,0.026811227202415466
15.0,0.024311281740665436
16.0,0.022340917959809303
18.0,0.018962543457746506
20.0,0.015968631953001022
22.0,0.013707353733479977
24.0,0.011592070572078228
26.0,0.009857418946921825
28.0,0.008673571050167084
30.0,0.007734791375696659
32.0,0.006802478805184364
36.0,0.0048612686805427074
40.0,0.0024838645476847887
44.0,0.00043473366531543434
48.0,-0.001438898965716362
52.0,-0.002210084581747651
56.0,-0.0030370336025953293
60.0,-0.0034198693465441465
64.0,-0.002840388799086213
72.0,-0.001619310467503965
80.0,-0.002512911334633827
88.0,-0.0019127906998619437
96.0,-0.0014061812544241548
104.0,-0.0019448905950412154
112.0,-0.002182571915909648
120.0,-0.0013656526571139693
128.0,0.0008424310944974422
144.0,0.004357929807156324
160.0,0.003943348303437233
176.0,0.0011436139466241002
192.0,-0.002625467022880912
208.0,-0.002445436315611005
224.0,0.0009885062463581562
240.0,-0.0017086805310100317
256.0,-0.0014144765445962548
288.0,0.0013087374391034245
320.0,-0.0005260827019810677
352.0,0.0014986327150836587
384.0,0.0016705467132851481
416.0,-0.00023579753178637475
448.0,-0.0014255139976739883
480.0,-0.0004803381743840873
512.0,0.0020749636460095644
576.0,-9.558336751069874e-05
640.0,0.000768001948017627
704.0,-0.0008916783262975514
768.0,-0.0013691509375348687
832.0,0.0008780311327427626
896.0,-0.00032265554182231426
960.0,-0.000983203761279583
1024.0,0.00034174532629549503
1152.0,0.0011288381647318602
1280.0,-0.00016827422950882465
1408.0,-0.00025385996559634805
1536.0,0.0015160915208980441
1664.0,0.0006017996929585934
1792.0,-0.0006464658654294908
1920.0,0.0016094197053462267
2048.0,0.0013309987261891365
2304.0,-1.1376430848031305e-05
2560.0,3.4712003980530426e-05
2816.0,-0.0008234984707087278
3072.0,-0.0004472940054256469
3328.0,-0.0004931804141961038
3584.0,0.00012531485117506236
3840.0,-0.0016887030797079206
4096.0,-6.646247493335977e-05
4608.0,-0.000907249515876174
5120.0,6.407495675375685e-05
5632.0,0.0003906978527083993
6144.0,-0.0010004015639424324
6656.0,-0.0008816135814413428
7168.0,4.612065458786674e-05
7680.0,-0.0005176524864509702
8192.0,-0.00045155620318837464
9216.0,-4.02599289373029e-05
10240.0,0.0005903471610508859
11264.0,0.0007670407649129629
12288.0,-0.00018905101751443
13312.0,-0.00011857735080411658
14336.0,-0.0005931839114055037
end
