version,3.0
numOfCh,1
type,point
parent_name,800-cuts
ch_type,1_1
kcount,1
numberNandB,1
brightnessNandB,1
carpet pos,0
pc,0
Time (ms),CH1 Auto-Correlation
1.0,0.08375275880098343
2.0,0.07384937256574631
3.0,0.06518440693616867
4.0,0.05791519209742546
5.0,0.05167394503951073
6.0,0.04630069062113762
7.0,0.04169182851910591
8.0,0.03754599019885063
9.0,0.03365309536457062
10.0,0.030139612033963203
11.0,0.026686107739806175
12.0,0.02381812036037445
13.0,0.021604347974061966
14.0,0.019754430279135704
15.0,0.017703605815768242
16.0,0.016195086762309074
18.0,0.013287085108458996
20.0,0.01130644604563713
22.0,0.010032659396529198
24.0,0.008488297462463379
26.0,0.0066549889743328094
28.0,0.005107805598527193
30.0,0.003727516857907176
32.0,0.002331361174583435
36.0,0.00019706404418684542
40.0,-0.0015492849051952362
44.0,-0.0030682538636028767
48.0,-0.004170973319560289
52.0,-0.005263700149953365
56.0,-0.005394955165684223
60.0,-0.00472326809540391
64.0,-0.0035593053326010704
72.0,-0.0019259420223534107
80.0,-0.0005470677278935909
88.0,0.0011863406980410218
96.0,0.0013842766638845205
104.0,0.0020171809010207653
112.0,0.002516445703804493
120.0,0.0029251270461827517
128.0,0.0036550855729728937
144.0,0.0016210271278396249
160.0,0.0016487723914906383
176.0,0.0007598011288791895
192.0,-0.0015492280945181847
208.0,-0.004020109307020903
224.0,-0.005994652863591909
240.0,-0.0029743823688477278
256.0,-0.00046880380250513554
288.0,-0.0013017846504226327
320.0,-0.0013609216548502445
352.0,-0.0016391243552789092
384.0,-0.00345986639149487
416.0,0.0030726459808647633
448.0,0.0006036364939063787
480.0,-0.0018202284118160605
512.0,-0.0017454997869208455
576.0,0.00020279794989619404
640.0,0.0017195361433550715
704.0,-0.00036082830047234893
768.0,-0.0007040267228148878
832.0,-0.0015623961808159947
896.0,-0.0019965246319770813
960.0,-0.0009194848826155066
1024.0,-0.002714198548346758
1152.0,0.00033149163937196136
1280.0,-0.0003553258429747075
1408.0,0.0007054639863781631
1536.0,0.00018466920300852507
1664.0,0.00033190526301041245
1792.0,0.0015121384058147669
1920.0,0.002072281902655959
2048.0,-0.0008176482515409589
2304.0,-0.001073232269845903
2560.0,-0.00010942334483843297
2816.0,-0.0017695983406156301
3072.0,0.0012891112128272653
3328.0,0.00022224114218261093
3584.0,0.001129718730226159
3840.0,-0.00034854907426051795
4096.0,-0.0005113016813993454
4608.0,-0.0006782476557418704
5120.0,-0.00017202043090946972
5632.0,0.0006536795408464968
6144.0,-0.00021674236631952226
6656.0,8.931800039135851e-06
7168.0,0.0008978927507996559
7680.0,-0.0006215031025931239
8192.0,0.00010919244232354686
9216.0,0.0002699467586353421
10240.0,-5.343656812328845e-05
11264.0,-0.00021041749278083444
12288.0,9.275548654841259e-05
13312.0,0.00015965307829901576
14336.0,-6.916480197105557e-05
end
