version,3.0
numOfCh,1
type,point
parent_name,800-cuts
ch_type,1_1
kcount,1
numberNandB,1
brightnessNandB,1
carpet pos,0
pc,0
Time (ms),CH1 Auto-Correlation
1.0,0.09268058091402054
2.0,0.08159921318292618
3.0,0.07242957502603531
4.0,0.0647551417350769
5.0,0.05818737670779228
6.0,0.052491847425699234
7.0,0.04754645377397537
8.0,0.0431191511452198
9.0,0.03919482231140137
10.0,0.03581472113728523
11.0,0.03252863511443138
12.0,0.029836395755410194
13.0,0.027391532436013222
14.0,0.025128835812211037
15.0,0.023117151111364365
16.0,0.02164968103170395
18.0,0.019143017008900642
20.0,0.016846274957060814
22.0,0.014950208365917206
24.0,0.013141877949237823
26.0,0.011696917936205864
28.0,0.009914134629070759
30.0,0.008793978951871395
32.0,0.007828406058251858
36.0,0.00673047685995698
40.0,0.006478882394731045
44.0,0.004969196394085884
48.0,0.004097840748727322
52.0,0.003074411768466234
56.0,0.00317799742333591
60.0,0.0034154788590967655
64.0,0.0029555929359048605
72.0,0.0022614372428506613
80.0,0.0027837965171784163
88.0,0.002059292048215866
96.0,0.0024519283324480057
104.0,0.002053662668913603
112.0,0.003444881644099951
120.0,0.004880217835307121
128.0,0.0031266699079424143
144.0,0.0010154102928936481
160.0,0.0008392157033085823
176.0,-0.001101608737371862
192.0,-0.00023425092513207346
208.0,-0.0011442365357652307
224.0,-0.0022432550322264433
240.0,-0.0016790732042863965
256.0,-0.0033040412236005068
288.0,-0.0016364938346669078
320.0,-0.0031427438370883465
352.0,-0.00043892613030038774
384.0,0.002672400325536728
416.0,0.002648047637194395
448.0,-0.0012113325065001845
480.0,0.0005824452964589
512.0,0.004021414089947939
576.0,0.0014122489374130964
640.0,0.0014266145881265402
704.0,0.0002181929157814011
768.0,-0.0009247961570508778
832.0,-0.0008498156093992293
896.0,-0.0012060616863891482
960.0,0.0006503951735794544
1024.0,-0.0008726974483579397
1152.0,-0.0018114421982318163
1280.0,-0.0031644918490201235
1408.0,-0.0008921853732317686
1536.0,-0.002467736601829529
1664.0,-0.0022355467081069946
1792.0,-0.0007000643527135253
1920.0,-0.0010430160909891129
2048.0,-0.0001051318904501386
2304.0,0.000162954704137519
2560.0,-0.00023234177206177264
2816.0,4.859256659983657e-05
3072.0,-0.0014162117149680853
3328.0,-0.000667900254484266
3584.0,-0.001033750013448298
3840.0,0.0005429048324003816
4096.0,0.0022692473139613867
4608.0,0.0011051337933167815
5120.0,-0.0012562097981572151
5632.0,-0.0018159295432269573
6144.0,-3.0221759516280144e-05
6656.0,0.0014839115319773555
7168.0,-3.631241270340979e-06
7680.0,-0.001146905473433435
8192.0,0.0012091926764696836
9216.0,-0.0004534719046205282
10240.0,-0.0002870671742130071
11264.0,0.0007699265843257308
12288.0,4.0261838876176625e-05
13312.0,-0.0023982066195458174
14336.0,0.00028432602994143963
end
