version,3.0
numOfCh,1
type,point
parent_name,800-cuts
ch_type,1_1
kcount,1
numberNandB,1
brightnessNandB,1
carpet pos,0
pc,0
Time (ms),CH1 Auto-Correlation
1.0,0.023784751072525978
2.0,0.020681200549006462
3.0,0.018118854612112045
4.0,0.01586991734802723
5.0,0.01389576867222786
6.0,0.012219618074595928
7.0,0.01073994766920805
8.0,0.00954052060842514
9.0,0.008509685285389423
10.0,0.0075745852664113045
11.0,0.006713453214615583
12.0,0.006020023953169584
13.0,0.005368639715015888
14.0,0.004743395838886499
15.0,0.0042292457073926926
16.0,0.003739669220522046
18.0,0.0028992495499551296
20.0,0.002231332939118147
22.0,0.001598043367266655
24.0,0.0011078217066824436
26.0,0.0009733196347951889
28.0,0.0008668813388794661
30.0,0.0008740397752262652
32.0,0.0007957588532008231
36.0,0.0007530170842073858
40.0,0.0005139547865837812
44.0,0.00018864103185478598
48.0,0.00016541811055503786
52.0,6.137927994132042e-05
56.0,0.00033587426878511906
60.0,0.0003417477128095925
64.0,0.0003027140337508172
72.0,-0.00012176336167613044
80.0,-0.000974270747974515
88.0,-0.0005252050468698144
96.0,8.716771117178723e-05
104.0,9.776989827514626e-06
112.0,-0.00013228670286480337
120.0,3.4650824090931565e-05
128.0,0.00040353191434405744
144.0,3.0024524676264264e-05
160.0,0.00022308339248411357
176.0,0.0005093927029520273
192.0,0.001008755643852055
208.0,0.00035372041747905314
224.0,0.0011114535154774785
240.0,0.0006982866325415671
256.0,-0.0004033663426525891
288.0,-0.0003351025516167283
320.0,0.000523595605045557
352.0,-0.0005068909958936274
384.0,0.0001796491997083649
416.0,-0.0009282693499699235
448.0,0.00015539037121925503
480.0,4.808635276276618e-05
512.0,-6.525436674564844e-06
576.0,-0.000913442752789706
640.0,-7.873472350183874e-05
704.0,-0.0001591688924236223
768.0,-7.281068246811628e-05
832.0,-4.81133465655148e-05
896.0,-0.00010306434705853462
960.0,0.00025483773788437247
1024.0,-8.302862261189148e-05
1152.0,0.00030038601835258305
1280.0,-7.61572300689295e-05
1408.0,0.0001671641512075439
1536.0,9.994218271458521e-05
1664.0,-0.00024527666391804814
1792.0,-7.859567267587408e-05
1920.0,-5.520389822777361e-05
2048.0,-8.958410762716085e-05
2304.0,8.055412763496861e-05
2560.0,-0.0006403934094123542
2816.0,-0.0002849190204869956
3072.0,0.00034086877712979913
3328.0,0.00047962897224351764
3584.0,-0.00013739759742747992
3840.0,-0.0005124336457811296
4096.0,-0.00045066294842399657
4608.0,0.00020917259098496288
5120.0,-0.00018990329408552498
5632.0,0.0003529915411490947
6144.0,-0.00030445019365288317
6656.0,0.0002744618395809084
7168.0,-0.00035234089591540396
7680.0,0.0004384811327327043
8192.0,-0.0003354799118824303
9216.0,-5.8162531786365435e-05
10240.0,-3.877984272548929e-05
11264.0,0.00016840329044498503
12288.0,3.612515138229355e-05
13312.0,-0.00014401963562704623
14336.0,-0.0001421709603164345
end
