version,3.0
numOfCh,1
type,point
parent_name,800-cuts
ch_type,1_1
kcount,1
numberNandB,1
brightnessNandB,1
carpet pos,0
pc,0
Time (ms),CH1 Auto-Correlation
1.0,0.040523529052734375
2.0,0.035632990300655365
3.0,0.03150955215096474
4.0,0.0278422050178051
5.0,0.024633167311549187
6.0,0.022108908742666245
7.0,0.019941136240959167
8.0,0.018006430938839912
9.0,0.016264842823147774
10.0,0.01478533074259758
11.0,0.013548647984862328
12.0,0.012374288402497768
13.0,0.011367320083081722
14.0,0.010399273596704006
15.0,0.009221505373716354
16.0,0.008045177906751633
18.0,0.006322181783616543
20.0,0.004725215490907431
22.0,0.0033716217149049044
24.0,0.0024067857302725315
26.0,0.0017541677225381136
28.0,0.0013539728242903948
30.0,0.00093733990797773
32.0,0.001022100099362433
36.0,0.0010034119477495551
40.0,0.0012514784466475248
44.0,0.0012457889970391989
48.0,0.0004744199104607105
52.0,0.00014880075468681753
56.0,0.00014616122643928975
60.0,0.0003327126323711127
64.0,0.0006206573452800512
72.0,0.0008004137198440731
80.0,0.0005823915125802159
88.0,0.0011431988095864654
96.0,0.0013554368633776903
104.0,0.0014035938074812293
112.0,0.0010679300175979733
120.0,-0.00032966979779303074
128.0,-0.0007682702271267772
144.0,-0.00016365229384973645
160.0,0.0005343396333046257
176.0,0.0007581659010611475
192.0,0.0005497636157087982
208.0,0.00034548109397292137
224.0,0.0003592023567762226
240.0,-0.0008051057811826468
256.0,-0.0013252596836537123
288.0,-0.0017057901713997126
320.0,-0.0001799396559363231
352.0,-0.0016618247609585524
384.0,-0.001214578514918685
416.0,0.0003581266792025417
448.0,-0.0006683749961666763
480.0,-0.0003458218998275697
512.0,0.0009472316014580429
576.0,0.0005181822925806046
640.0,0.00081039679935202
704.0,0.0010841524926945567
768.0,0.00042948394548147917
832.0,-0.0003100826288573444
896.0,-0.0004571570025291294
960.0,-0.0013679394032806158
1024.0,-0.0006379624246619642
1152.0,0.0004415360454004258
1280.0,0.0007342447643168271
1408.0,0.0003606573445722461
1536.0,0.0003629788989201188
1664.0,-0.0003136828599963337
1792.0,0.0005624924669973552
1920.0,-4.229053593007848e-05
2048.0,-0.00017602428852114826
2304.0,0.000128027459140867
2560.0,0.0003275013586971909
2816.0,0.00010852382547454908
3072.0,8.56018450576812e-05
3328.0,0.00022379540314432234
3584.0,-0.0005547647015191615
3840.0,-0.0004923234228044748
4096.0,0.0003724117705132812
4608.0,-0.00013635984214488417
5120.0,-0.000703570491168648
5632.0,-0.0002955622912850231
6144.0,8.20846325950697e-05
6656.0,-0.0006396817625500262
7168.0,-0.00016683728608768433
7680.0,-0.0003180326602887362
8192.0,-0.0002940085541922599
9216.0,2.2611393433180638e-05
10240.0,0.0001948115386767313
11264.0,3.450035001151264e-05
12288.0,0.0003732839832082391
13312.0,0.0004974582698196173
14336.0,-0.0007978701614774764
end
