version,3.0
numOfCh,1
type,point
parent_name,800-cuts
ch_type,1_1
kcount,1
numberNandB,1
brightnessNandB,1
carpet pos,0
pc,0
Time (ms),CH1 Auto-Correlation
1.0,0.025491876527667046
2.0,0.022510087117552757
3.0,0.020014751702547073
4.0,0.01780148409307003
5.0,0.015951676294207573
6.0,0.014444628730416298
7.0,0.013154742307960987
8.0,0.012071828357875347
9.0,0.011239668354392052
10.0,0.010392160154879093
11.0,0.009595484472811222
12.0,0.00892630871385336
13.0,0.00830454658716917
14.0,0.00772571237757802
15.0,0.0072292969562113285
16.0,0.006832474377006292
18.0,0.005929595325142145
20.0,0.004987542051821947
22.0,0.004094964824616909
24.0,0.0034191040322184563
26.0,0.0028344569727778435
28.0,0.0022626901045441628
30.0,0.0018805961590260267
32.0,0.0018038153648376465
36.0,0.001633647014386952
40.0,0.0016245979350060225
44.0,0.0014537988463416696
48.0,0.0010708461049944162
52.0,0.0007402648334391415
56.0,0.0007995745982043445
60.0,0.000554830941837281
64.0,0.00042936528916470706
72.0,0.0007552816532552242
80.0,0.0011005839332938194
88.0,0.0013757767155766487
96.0,0.0014503769343718886
104.0,0.0009932472603395581
112.0,0.0007000677287578583
120.0,0.0005172886303626001
128.0,0.0002617032441776246
144.0,-0.00072615931276232
160.0,-0.0008261417970061302
176.0,-0.0003170106210745871
192.0,-0.0002646882785484195
208.0,-9.110613609664142e-05
224.0,-6.331730401143432e-05
240.0,0.0001289728534175083
256.0,0.00040915003046393394
288.0,0.0010792035609483719
320.0,0.0007994520710781217
352.0,0.0009338189265690744
384.0,0.0011984430020675063
416.0,0.0004851327685173601
448.0,-0.0002348597045056522
480.0,0.0002446969738230109
512.0,0.00047776303836144507
576.0,0.0005556123796850443
640.0,0.00024059547286015004
704.0,0.0002474045322742313
768.0,-0.0005944683798588812
832.0,0.00013065185339655727
896.0,0.000347055378369987
960.0,0.00013305047468747944
1024.0,0.0002750036073848605
1152.0,-0.0006294178892858326
1280.0,0.0005523249856196344
1408.0,-0.00046016351552680135
1536.0,0.000551680161152035
1664.0,-0.00025743767037056386
1792.0,-7.760718290228397e-05
1920.0,0.0007901397184468806
2048.0,-0.00047452369472011924
2304.0,-0.0006168533000163734
2560.0,-0.0003380853158887476
2816.0,0.00021449223277159035
3072.0,-9.908631182042882e-05
3328.0,-0.0005139746353961527
3584.0,-0.00017811819270718843
3840.0,-0.0005278564640320837
4096.0,-0.00040215777698904276
4608.0,6.257830682443455e-05
5120.0,-0.0004079106147401035
5632.0,4.165868631389458e-06
6144.0,-5.761524516856298e-05
6656.0,-0.00031410210067406297
7168.0,-0.00046062099863775074
7680.0,0.0005884997081011534
8192.0,0.00045333514572121203
9216.0,2.1737771021435037e-05
10240.0,3.0536612030118704e-05
11264.0,5.44319482287392e-05
12288.0,0.0002497027162462473
13312.0,2.5985924366977997e-05
14336.0,-0.00024423390277661383
end
