version,3.0
numOfCh,1
type,point
parent_name,800-cuts
ch_type,1_1
kcount,1
numberNandB,1
brightnessNandB,1
carpet pos,0
pc,0
Time (ms),CH1 Auto-Correlation
1.0,0.08358243107795715
2.0,0.07282476127147675
3.0,0.06403627246618271
4.0,0.05672863498330116
5.0,0.05048620328307152
6.0,0.045069076120853424
7.0,0.040279701352119446
8.0,0.03654058277606964
9.0,0.0334184505045414
10.0,0.03044269233942032
11.0,0.027849383652210236
12.0,0.025318380445241928
13.0,0.023200130090117455
14.0,0.02144436351954937
15.0,0.01968076452612877
16.0,0.01798621378839016
18.0,0.01525145024061203
20.0,0.013257673010230064
22.0,0.01127698179334402
24.0,0.01002777460962534
26.0,0.008997590281069279
28.0,0.008544889278709888
30.0,0.008052246645092964
32.0,0.0075325085781514645
36.0,0.0063574668020009995
40.0,0.004337556194514036
44.0,0.0023857406340539455
48.0,0.0009839164558798075
52.0,0.00011007983994204551
56.0,0.0004670941852964461
60.0,0.00103794748429209
64.0,0.002085316926240921
72.0,0.0021890585776418447
80.0,0.0005813908646814525
88.0,-0.00011312924470985308
96.0,0.000643203326035291
104.0,0.001003952114842832
112.0,-0.0006463861791417003
120.0,-0.001652851002290845
128.0,-0.0016837960574775934
144.0,8.17624481896928e-07
160.0,-0.001004944322630763
176.0,0.0010221630800515413
192.0,0.0037992754951119423
208.0,0.003337850794196129
224.0,0.0017012200551107526
240.0,-0.001781919621862471
256.0,-0.001733229961246252
288.0,0.00010682491847546771
320.0,-0.0020146651659160852
352.0,-0.001260365592315793
384.0,-0.0009217938641086221
416.0,-0.00226095924153924
448.0,-0.0049622622318565845
480.0,-0.003134059486910701
512.0,-0.0003203280211891979
576.0,0.004891413263976574
640.0,-0.0001669305347604677
704.0,-0.0016668136231601238
768.0,0.00034108429099433124
832.0,0.00037933775456622243
896.0,-0.00119375204667449
960.0,-0.0016691585769876838
1024.0,-0.002150272484868765
1152.0,-0.0007219492108561099
1280.0,-0.0015980248572304845
1408.0,0.0010866507655009627
1536.0,-0.0014868825674057007
1664.0,9.822259016800672e-05
1792.0,0.0001817733864299953
1920.0,-0.0009924338664859533
2048.0,0.001981206936761737
2304.0,-0.00024434164515696466
2560.0,-0.000472051469841972
2816.0,-0.00022490111587103456
3072.0,-0.001128730713389814
3328.0,0.00027978254365734756
3584.0,0.0018930983496829867
3840.0,-0.0013163891853764653
4096.0,-2.6603060177876614e-05
4608.0,0.0002789698773995042
5120.0,0.0008032919140532613
5632.0,-0.0007928067352622747
6144.0,-0.00032150812330655754
6656.0,-0.0004889756091870368
7168.0,0.00027481350116431713
7680.0,-0.00016322552983183414
8192.0,0.000253225996857509
9216.0,0.0005307495594024658
10240.0,0.00030693048029206693
11264.0,-0.0003529242821969092
12288.0,-0.00014742679195478559
13312.0,-6.249330908758566e-05
14336.0,0.00023187953047454357
end
