version,3.0
numOfCh,1
type,point
parent_name,800-cuts
ch_type,1_1
kcount,1
numberNandB,1
brightnessNandB,1
carpet pos,0
pc,0
Time (ms),CH1 Auto-Correlation
1.0,0.026961619034409523
2.0,0.023782916367053986
3.0,0.021195005625486374
4.0,0.0189872644841671
5.0,0.017101431265473366
6.0,0.015391483902931213
7.0,0.014019315131008625
8.0,0.012720974162220955
9.0,0.011491931974887848
10.0,0.010386569425463676
11.0,0.009330268949270248
12.0,0.008436115458607674
13.0,0.0075935907661914825
14.0,0.006905572488903999
15.0,0.006267857272177935
16.0,0.005733121186494827
18.0,0.004912670701742172
20.0,0.004279740620404482
22.0,0.003797953249886632
24.0,0.0035230680368840694
26.0,0.00338971265591681
28.0,0.0030912079382687807
30.0,0.0028214487247169018
32.0,0.00259042764082551
36.0,0.002124766819179058
40.0,0.001443811459466815
44.0,0.0007713921368122101
48.0,0.0001969043369172141
52.0,3.7445573980221525e-05
56.0,-4.255692692822777e-05
60.0,-0.00016737269470468163
64.0,-0.00021236248721834272
72.0,-3.2730014936532825e-05
80.0,0.000592235941439867
88.0,0.00033942240406759083
96.0,-0.0006381712155416608
104.0,-0.0006890058284625411
112.0,-0.00017822484369389713
120.0,-0.0002787121629808098
128.0,-0.0004437944444362074
144.0,2.879906605812721e-05
160.0,0.00024458824191242456
176.0,-0.0002747780818026513
192.0,0.00020126374147366732
208.0,0.0004127443244215101
224.0,0.0010058864718303084
240.0,0.0007032395806163549
256.0,0.00022524077212437987
288.0,6.0960297560086474e-05
320.0,0.0006221242947503924
352.0,0.0010144435800611973
384.0,0.0005103618605062366
416.0,-0.0005554435774683952
448.0,-9.210206189891323e-05
480.0,0.0009978844318538904
512.0,0.0010644003050401807
576.0,0.0009922601748257875
640.0,0.0005585175240412354
704.0,-0.00037685513962060213
768.0,1.2842645446653478e-05
832.0,6.29384012427181e-05
896.0,-0.0005246544606052339
960.0,0.0002441541291773319
1024.0,0.0007322455639950931
1152.0,-0.00041128540760837495
1280.0,-0.00020327737729530782
1408.0,0.00041828289977274835
1536.0,-7.296806870726869e-05
1664.0,-0.0007030383567325771
1792.0,-0.0006621645879931748
1920.0,-0.00040051399264484644
2048.0,-0.0008097785175777972
2304.0,-6.68783177388832e-05
2560.0,-0.00013774362741969526
2816.0,-9.924959886120632e-05
3072.0,-0.0003647943085525185
3328.0,-0.00047551680472679436
3584.0,-9.999232861446217e-05
3840.0,0.0006763811106793582
4096.0,0.00013027590466663241
4608.0,0.00038852685247547925
5120.0,0.00032953519257716835
5632.0,6.036146260157693e-06
6144.0,0.0001640139817027375
6656.0,-0.0003106604563072324
7168.0,-0.0005591713706962764
7680.0,-0.0006623222725465894
8192.0,-0.000498840818181634
9216.0,-0.0001071020305971615
10240.0,0.0002689500979613513
11264.0,0.00023949454771354795
12288.0,-0.000888822425622493
13312.0,-0.0004968695575371385
14336.0,0.0010535813635215163
end
