version,3.0
numOfCh,1
type,point
parent_name,800-cuts
ch_type,1_1
kcount,1
numberNandB,1
brightnessNandB,1
carpet pos,0
pc,0
Time (ms),CH1 Auto-Correlation
1.0,0.04432353004813194
2.0,0.03920190408825874
3.0,0.03463955968618393
4.0,0.0306515172123909
5.0,0.027256740257143974
6.0,0.0244639553129673
7.0,0.022217905148863792
8.0,0.020218640565872192
9.0,0.018367502838373184
10.0,0.01670660451054573
11.0,0.015218114480376244
12.0,0.01392504945397377
13.0,0.012578373774886131
14.0,0.011375155299901962
15.0,0.010510186664760113
16.0,0.009714825078845024
18.0,0.00842068251222372
20.0,0.007392000872641802
22.0,0.006439752411097288
24.0,0.005511330906301737
26.0,0.004501341842114925
28.0,0.0035762691404670477
30.0,0.0027429000474512577
32.0,0.0020038681104779243
36.0,0.0015659201890230179
40.0,0.0018123291665688157
44.0,0.0015616108430549502
48.0,0.00111849803943187
52.0,0.0011931880144402385
56.0,0.001063141506165266
60.0,0.0008167361374944448
64.0,7.454447768395767e-05
72.0,-0.0005536323296837509
80.0,-0.00020730923279188573
88.0,-0.0006909386138431728
96.0,-0.0008425118285231292
104.0,0.00025513331638649106
112.0,0.00012597121531143785
120.0,-6.665570981567726e-05
128.0,0.0008994818781502545
144.0,0.00020241971651557833
160.0,-0.0005638971924781799
176.0,-0.0011588019551709294
192.0,-0.001085104187950492
208.0,-0.0006831702776253223
224.0,0.0002938894904218614
240.0,0.0016847088700160384
256.0,0.00180071743670851
288.0,0.0017515798099339008
320.0,0.0012841027928516269
352.0,-0.0005744501249864697
384.0,-0.000781766080763191
416.0,0.001085494994185865
448.0,-0.0011687569785863161
480.0,-0.0017077786615118384
512.0,-0.00012216025788802654
576.0,-0.00045598542783409357
640.0,0.0011755552841350436
704.0,-0.0025120340287685394
768.0,0.00012036637053824961
832.0,-0.0006558853201568127
896.0,0.0001457146427128464
960.0,0.0001183010172098875
1024.0,-0.00042690482223406434
1152.0,0.0006523597985506058
1280.0,-0.00052015291294083
1408.0,-0.0012058918364346027
1536.0,0.0009715890628285706
1664.0,-0.0005433553014881909
1792.0,-6.090081296861172e-05
1920.0,-0.0004915286554023623
2048.0,-0.0005727612879127264
2304.0,3.899474904756062e-05
2560.0,0.0005435022758319974
2816.0,0.00030842272099107504
3072.0,0.0006013293168507516
3328.0,0.00013471735292114317
3584.0,0.0005094206426292658
3840.0,0.00026521310792304575
4096.0,-4.892747529083863e-05
4608.0,-0.0007868151878938079
5120.0,0.0002387751592323184
5632.0,-0.00030419568065553904
6144.0,0.00025366892805323005
6656.0,0.0004737285780720413
7168.0,8.374873141292483e-05
7680.0,0.00016287981998175383
8192.0,-0.0011222551111131907
9216.0,-0.0004207556485198438
10240.0,0.00030834315111860633
11264.0,-0.00043612002627924085
12288.0,0.00030083442106842995
13312.0,-0.0004892658325843513
14336.0,2.8717391614918597e-05
end
