version,3.0
numOfCh,1
type,point
parent_name,800-cuts
ch_type,1_1
kcount,1
numberNandB,1
brightnessNandB,1
carpet pos,0
pc,0
Time (ms),CH1 Auto-Correlation
1.0,0.07839823514223099
2.0,0.06830223649740219
3.0,0.05982242897152901
4.0,0.052453868091106415
5.0,0.04616508632898331
6.0,0.040738169103860855
7.0,0.036024633795022964
8.0,0.03179650753736496
9.0,0.028160903602838516
10.0,0.025287944823503494
11.0,0.022766537964344025
12.0,0.02078741416335106
13.0,0.018981266766786575
14.0,0.017373021692037582
15.0,0.015930794179439545
16.0,0.014605429023504257
18.0,0.012576703913509846
20.0,0.011169536970555782
22.0,0.009789671748876572
24.0,0.008420621044933796
26.0,0.006819848902523518
28.0,0.005201736465096474
30.0,0.004115088377147913
32.0,0.0036121297162026167
36.0,0.0021133278496563435
40.0,0.0019360248697921634
44.0,0.0026385346427559853
48.0,0.0024007000029087067
52.0,0.0018409977201372385
56.0,0.00046005973126739264
60.0,-0.0006595602026209235
64.0,-0.000788516306784004
72.0,0.001880981377325952
80.0,0.002921502571552992
88.0,0.0045331306755542755
96.0,0.004118923097848892
104.0,0.003508295863866806
112.0,0.001658621127717197
120.0,0.0006135005387477577
128.0,0.0008615087135694921
144.0,0.0013947387924417853
160.0,0.0013274464290589094
176.0,4.5707121898885816e-05
192.0,4.7745856136316434e-05
208.0,0.0016027024248614907
224.0,0.0013027593959122896
240.0,0.0028701829724013805
256.0,0.0014624508330598474
288.0,-0.000768037629313767
320.0,-0.0017569900956004858
352.0,-0.0005380584043450654
384.0,-0.0004796938446816057
416.0,-0.0021105206105858088
448.0,-0.0001549016305943951
480.0,0.0019775524269789457
512.0,-0.0005589486681856215
576.0,0.00015916574920993298
640.0,0.0004026027163490653
704.0,-0.000812235870398581
768.0,0.0023162104189395905
832.0,0.0035338387824594975
896.0,0.0027794300112873316
960.0,-4.0057992009678856e-05
1024.0,0.0014770340640097857
1152.0,-0.0009264604886993766
1280.0,3.09789102175273e-05
1408.0,0.00037952116690576077
1536.0,0.00035002324148081243
1664.0,0.0027192486450076103
1792.0,0.00024817947996780276
1920.0,2.6707662982516922e-05
2048.0,0.00045394818880595267
2304.0,0.000944746017921716
2560.0,6.422423030016944e-05
2816.0,0.0011861346429213881
3072.0,0.0016478861216455698
3328.0,-0.0004550339072011411
3584.0,0.00019794995023403317
3840.0,-0.00016088401025626808
4096.0,-0.0011749014956876636
4608.0,-0.0003423317102715373
5120.0,-0.00046332465717568994
5632.0,-0.000642398139461875
6144.0,-0.00024219357874244452
6656.0,-0.0010987484129145741
7168.0,-0.0007723417365923524
7680.0,-0.0012106799986213446
8192.0,-0.0015871236100792885
9216.0,-0.000705938960891217
10240.0,-0.0005056948284618556
11264.0,-0.0006908622453920543
12288.0,0.0003885195474140346
13312.0,-0.00013788048818241805
14336.0,5.1098709263897035e-06
end
