version,3.0
numOfCh,1
type,point
parent_name,800-cuts
ch_type,1_1
kcount,1
numberNandB,1
brightnessNandB,1
carpet pos,0
pc,0
Time (ms),CH1 Auto-Correlation
1.0,0.03818751871585846
2.0,0.033385492861270905
3.0,0.029282506555318832
4.0,0.02577780932188034
5.0,0.022759996354579926
6.0,0.020177725702524185
7.0,0.018037114292383194
8.0,0.016255691647529602
9.0,0.014697963371872902
10.0,0.013360977172851562
11.0,0.012166528031229973
12.0,0.011145154014229774
13.0,0.010182968340814114
14.0,0.009387749247252941
15.0,0.008697605691850185
16.0,0.008091210387647152
18.0,0.007002281025052071
20.0,0.005820984486490488
22.0,0.004603750072419643
24.0,0.0037696200888603926
26.0,0.003139242995530367
28.0,0.0026786744128912687
30.0,0.002366467844694853
32.0,0.002046210691332817
36.0,0.0016014769207686186
40.0,0.0011744836810976267
44.0,0.0005462401313707232
48.0,0.0004639680846594274
52.0,0.00021376236691139638
56.0,-0.00014366128016263247
60.0,-0.0006335109937936068
64.0,-0.00038416110328398645
72.0,-9.840646816883236e-05
80.0,-0.0008640384767204523
88.0,-0.0006712609902024269
96.0,-0.0011059825774282217
104.0,-0.0012494473485276103
112.0,-0.0004805841017514467
120.0,0.0007680882699787617
128.0,0.0010861422633752227
144.0,0.0006201190408319235
160.0,0.0014037988148629665
176.0,-1.8006017853622325e-05
192.0,-0.0010231024352833629
208.0,-0.00047856831224635243
224.0,-0.0003580148331820965
240.0,0.0007714929524809122
256.0,0.0002176749549107626
288.0,-0.0012439449783414602
320.0,-0.0007094654720276594
352.0,0.001240587909705937
384.0,0.00023190736828837544
416.0,-0.00026298180455341935
448.0,-0.0008053459459915757
480.0,-0.0002446626021992415
512.0,-0.0001781407045200467
576.0,-0.0009334145579487085
640.0,-0.001314235501922667
704.0,6.210261926753446e-05
768.0,0.001764990738593042
832.0,0.00018115469720214605
896.0,0.00023876303748693317
960.0,0.000976879964582622
1024.0,0.0013553645694628358
1152.0,-0.0003267069987487048
1280.0,-0.0012553452979773283
1408.0,-0.0006063695764169097
1536.0,-0.0004183311539236456
1664.0,-7.831634138710797e-05
1792.0,0.0005756808095611632
1920.0,0.00033299520146101713
2048.0,-0.0008141822181642056
2304.0,-0.0006488636718131602
2560.0,0.0002282069472130388
2816.0,0.0006593675352632999
3072.0,7.742870366200805e-05
3328.0,4.724292011815123e-05
3584.0,0.0004454540612641722
3840.0,-0.00010403476335341111
4096.0,-0.0008194236434064806
4608.0,0.0002816279011312872
5120.0,-0.00022704535513184965
5632.0,0.00041831593262031674
6144.0,-0.00034022345789708197
6656.0,2.7030620913137682e-05
7168.0,-0.0006862606387585402
7680.0,-5.3405179642140865e-05
8192.0,-0.00010460527118993923
9216.0,8.364146196981892e-05
10240.0,3.29915746988263e-05
11264.0,-8.727488602744415e-05
12288.0,-0.00017864553956314921
13312.0,0.0002952873765025288
14336.0,0.00039452139753848314
end
