version,3.0
numOfCh,1
type,point
parent_name,800-cuts
ch_type,1_1
kcount,1
numberNandB,1
brightnessNandB,1
carpet pos,0
pc,0
Time (ms),CH1 Auto-Correlation
1.0,0.07927478104829788
2.0,0.06933373957872391
3.0,0.06127103045582771
4.0,0.054642342031002045
5.0,0.04904079809784889
6.0,0.044180482625961304
7.0,0.03975514695048332
8.0,0.0358513705432415
9.0,0.032346997410058975
10.0,0.029695171862840652
11.0,0.027036352083086967
12.0,0.024664832279086113
13.0,0.022393401712179184
14.0,0.02049200050532818
15.0,0.01885172165930271
16.0,0.01738465018570423
18.0,0.015200122259557247
20.0,0.012772849760949612
22.0,0.009845364838838577
24.0,0.007531203329563141
26.0,0.005688423290848732
28.0,0.004569107200950384
30.0,0.004389896523207426
32.0,0.004597359336912632
36.0,0.004047767724841833
40.0,0.002840102184563875
44.0,0.002396382624283433
48.0,0.0028386779595166445
52.0,0.0031443957705050707
56.0,0.0036209262907505035
60.0,0.004578497260808945
64.0,0.004200231749564409
72.0,0.005073348060250282
80.0,0.004842843394726515
88.0,0.004478641785681248
96.0,0.0016563361277803779
104.0,-0.000622431340161711
112.0,-0.0008759375778026879
120.0,-0.00029755569994449615
128.0,0.001100854598917067
144.0,0.0017493687337264419
160.0,0.0012799773830920458
176.0,-0.0003385813324712217
192.0,0.000971422647126019
208.0,0.0031299388501793146
224.0,0.0014916210202500224
240.0,-0.000661250262055546
256.0,-0.0028725238516926765
288.0,-0.0018822388956323266
320.0,-0.0020662720780819654
352.0,-0.0023846940603107214
384.0,0.0005623323377221823
416.0,0.0012240014038980007
448.0,-0.0014053804334253073
480.0,-0.002131317974999547
512.0,-0.002298578154295683
576.0,-0.001871864777058363
640.0,-0.0004879673942923546
704.0,-0.0011058551026508212
768.0,-0.00038794666761532426
832.0,0.0018985201604664326
896.0,0.0008598036365583539
960.0,0.00060528505127877
1024.0,0.00012948745279572904
1152.0,-0.0016981989610940218
1280.0,-0.0011269160313531756
1408.0,-0.0026638563722372055
1536.0,0.0006901717861182988
1664.0,0.0004230775230098516
1792.0,-0.0002128481719410047
1920.0,0.001166156493127346
2048.0,0.002374764531850815
2304.0,-0.00015150060062296689
2560.0,-0.0012900098226964474
2816.0,-0.00022097844339441508
3072.0,0.0011625225888565183
3328.0,0.00029314530547708273
3584.0,0.0002949546033050865
3840.0,0.002156684873625636
4096.0,-0.0009489214862696826
4608.0,-0.0008766682003624737
5120.0,0.0009109306265600026
5632.0,-0.0012401447165757418
6144.0,0.0002679030585568398
6656.0,0.0014898082008585334
7168.0,-0.0006582351052202284
7680.0,0.00023403236991725862
8192.0,0.00028238643426448107
9216.0,-0.0019385727355256677
10240.0,0.0022029902320355177
11264.0,-0.001163335284218192
12288.0,-0.0021632809657603502
13312.0,0.002781040035188198
14336.0,-0.0005671739345416427
end
