version,3.0
numOfCh,1
type,point
parent_name,800-cuts
ch_type,1_1
kcount,1
numberNandB,1
brightnessNandB,1
carpet pos,0
pc,0
Time (ms),CH1 Auto-Correlation
1.0,0.038566891103982925
2.0,0.033817071467638016
3.0,0.029776887968182564
4.0,0.026286935433745384
5.0,0.02337487041950226
6.0,0.020820438861846924
7.0,0.018573394045233727
8.0,0.016475925222039223
9.0,0.014730128459632397
10.0,0.013256964273750782
11.0,0.011944273486733437
12.0,0.010822216048836708
13.0,0.00984911248087883
14.0,0.009012358263134956
15.0,0.008172370493412018
16.0,0.0073244692757725716
18.0,0.006236230954527855
20.0,0.005377936642616987
22.0,0.004687311127781868
24.0,0.004013208206743002
26.0,0.0035908131394535303
28.0,0.003287371015176177
30.0,0.003154108766466379
32.0,0.0027577283326536417
36.0,0.0020052148029208183
40.0,0.0012958345469087362
44.0,0.000563478097319603
48.0,0.00040160524076782167
52.0,0.0006289900629781187
56.0,0.0008281669579446316
60.0,0.000890879484359175
64.0,0.00039995129918679595
72.0,-3.707636642502621e-05
80.0,-0.0008732472197152674
88.0,-0.0014163570012897253
96.0,-0.0014377894112840295
104.0,-0.0007115087355487049
112.0,-0.00020198518177494407
120.0,-0.0005045181605964899
128.0,0.0004211667401250452
144.0,0.0005709091201424599
160.0,-4.7894325689412653e-05
176.0,-0.00036724875099025667
192.0,-0.0009991707047447562
208.0,-0.0005563764134421945
224.0,0.0004836947482544929
240.0,-0.00014262284094002098
256.0,-0.0009057492716237903
288.0,-0.000630527560133487
320.0,-0.0007801027968525887
352.0,-5.8264016843168065e-05
384.0,0.0003069275990128517
416.0,-0.0006197203183546662
448.0,0.0015497342683374882
480.0,-0.00025654223281890154
512.0,-0.0005366645054891706
576.0,-4.953874395141611e-06
640.0,0.000820906541775912
704.0,0.0007019672775641084
768.0,0.00039352287421934307
832.0,-0.0006418732227757573
896.0,0.00044664324377663434
960.0,0.0011431348975747824
1024.0,-0.0002418848598608747
1152.0,-0.0005853415932506323
1280.0,-0.0005473372293636203
1408.0,0.0005576583207584918
1536.0,-8.95165212568827e-05
1664.0,-0.00016421735926996917
1792.0,0.00011285558139206842
1920.0,3.590549749787897e-05
2048.0,0.0007033519214019179
2304.0,-0.00034296108060516417
2560.0,-6.137650780146942e-05
2816.0,-1.5792506019352004e-05
3072.0,-0.0006822744617238641
3328.0,8.873154001776129e-06
3584.0,0.00037555673043243587
3840.0,-0.00010662640124792233
4096.0,-0.00036911285133101046
4608.0,-0.00012187092943349853
5120.0,-0.00043194321915507317
5632.0,-0.00040711750625632703
6144.0,0.0001284173922613263
6656.0,-0.0004495439934544265
7168.0,1.7334587028017268e-05
7680.0,0.0001561958051752299
8192.0,-5.880416574655101e-05
9216.0,2.6518870072322898e-05
10240.0,0.0002836422063410282
11264.0,0.00057215680135414
12288.0,0.00021896761609241366
13312.0,-0.0003303074627183378
14336.0,-0.0005885612335987389
end
