version,3.0
numOfCh,1
type,point
parent_name,800-cuts
ch_type,1_1
kcount,1
numberNandB,1
brightnessNandB,1
carpet pos,0
pc,0
Time (ms),CH1 Auto-Correlation
1.0,0.03644946590065956
2.0,0.031787462532520294
3.0,0.027886709198355675
4.0,0.024455303326249123
5.0,0.021490467712283134
6.0,0.01890961453318596
7.0,0.01682116650044918
8.0,0.01514978613704443
9.0,0.013663449324667454
10.0,0.012270712293684483
11.0,0.011120375245809555
12.0,0.010192833840847015
13.0,0.00936545617878437
14.0,0.00859053898602724
15.0,0.007963485084474087
16.0,0.007397133391350508
18.0,0.0063399700447916985
20.0,0.005368932615965605
22.0,0.004491367377340794
24.0,0.0036711678840219975
26.0,0.0029802422504872084
28.0,0.002391084097325802
30.0,0.0018426934257149696
32.0,0.0013725853059440851
36.0,0.0005687522352673113
40.0,0.000419756950577721
44.0,0.00038227433105930686
48.0,1.703976749922731e-06
52.0,-8.310422708746046e-05
56.0,-1.188766418636078e-05
60.0,1.720451473374851e-05
64.0,0.0005226678331382573
72.0,0.0009080321760848165
80.0,0.001099443412385881
88.0,0.0004013435682281852
96.0,-0.0007448984542861581
104.0,-0.001691601355560124
112.0,-0.00197610748000443
120.0,-0.0018898918060585856
128.0,-0.0009838404366746545
144.0,-0.00037071885890327394
160.0,-0.0001634370710235089
176.0,-0.0005929539911448956
192.0,0.0004231147759128362
208.0,0.0002602985769044608
224.0,0.0004352435062173754
240.0,0.0007583174156025052
256.0,-0.00012969723320566118
288.0,-0.0018503678729757667
320.0,-0.0005298794712871313
352.0,-0.0014844763791188598
384.0,-5.8666617405833676e-05
416.0,-0.0014691895339637995
448.0,0.0007931519066914916
480.0,0.0014738552272319794
512.0,0.0004125456907786429
576.0,0.00041841674828901887
640.0,0.0003952784463763237
704.0,0.0008367447298951447
768.0,-0.0002402848331257701
832.0,-0.00014381451182998717
896.0,-0.0009937810245901346
960.0,-0.00024015003873500973
1024.0,-0.0003256955824326724
1152.0,0.0009784362046048045
1280.0,-0.000356342556187883
1408.0,-0.0009231974254362285
1536.0,-0.0007135001360438764
1664.0,0.0001065606702468358
1792.0,0.0007027346873655915
1920.0,-1.9399427401367575e-05
2048.0,-0.000802298600319773
2304.0,-0.00025383380125276744
2560.0,1.1210919183213264e-05
2816.0,-0.00022497927420772612
3072.0,-1.618650640011765e-05
3328.0,7.338253635680303e-05
3584.0,-5.866104856977472e-06
3840.0,-0.00017718877643346786
4096.0,3.0372573746717535e-05
4608.0,0.00024331964959856123
5120.0,0.00026205036556348205
5632.0,0.0002335407625650987
6144.0,-0.00017872016178444028
6656.0,-0.00022154928592499346
7168.0,-0.0004522191593423486
7680.0,0.00017102017591241747
8192.0,-0.0001660359848756343
9216.0,-7.985447882674634e-05
10240.0,0.00024283438688144088
11264.0,-0.00017353832663502544
12288.0,-0.00011040736717404798
13312.0,-3.239019861212e-05
14336.0,0.0005800636718049645
end
