version,3.0
numOfCh,1
type,point
parent_name,800-cuts
ch_type,1_1
kcount,1
numberNandB,1
brightnessNandB,1
carpet pos,0
pc,0
Time (ms),CH1 Auto-Correlation
1.0,0.028386080637574196
2.0,0.0253046452999115
3.0,0.022655446082353592
4.0,0.02035544067621231
5.0,0.018442761152982712
6.0,0.01676459237933159
7.0,0.015321901068091393
8.0,0.01401304267346859
9.0,0.012727878987789154
10.0,0.011589720845222473
11.0,0.010542661882936954
12.0,0.009655660949647427
13.0,0.008857129141688347
14.0,0.00818629004061222
15.0,0.0074969385750591755
16.0,0.006876593921333551
18.0,0.005876449402421713
20.0,0.00499739358201623
22.0,0.004271714482456446
24.0,0.0036387951113283634
26.0,0.0031307616736739874
28.0,0.0026585205923765898
30.0,0.002048230729997158
32.0,0.0015334512572735548
36.0,0.001160278799943626
40.0,0.0010940448846668005
44.0,0.0009326591971330345
48.0,0.0007168489973992109
52.0,0.0010461093625053763
56.0,0.0013033404247835279
60.0,0.0015910979127511382
64.0,0.0015834959922358394
72.0,0.00140943203587085
80.0,0.0009237763588316739
88.0,0.00038137243245728314
96.0,-0.00020381377544254065
104.0,-0.0007847769884392619
112.0,-0.0006885467446409166
120.0,-0.0008222222677432001
128.0,-0.0004280224093236029
144.0,0.00030400112154893577
160.0,0.0004627714806701988
176.0,-0.00031607772689312696
192.0,-0.00016235859948210418
208.0,-0.000398954376578331
224.0,-6.786369795008795e-06
240.0,-0.00023138642427511513
256.0,8.66165864863433e-05
288.0,0.0006222091615200043
320.0,0.0004113350296393037
352.0,8.054184945649467e-06
384.0,0.00043172133155167103
416.0,0.0004415396542754024
448.0,0.0003149094991385937
480.0,-0.00048196042189374566
512.0,-0.0005738803301937878
576.0,0.0003450841177254915
640.0,-0.0008895243518054485
704.0,-0.000460220267996192
768.0,-8.755364979151636e-05
832.0,0.00028128098347224295
896.0,-0.0002001905086217448
960.0,0.00022466674272436649
1024.0,-1.4013768122822512e-05
1152.0,-0.0003673799510579556
1280.0,-0.0006143971113488078
1408.0,-0.0002983621379826218
1536.0,-8.171482477337122e-05
1664.0,0.00041751808021217585
1792.0,-0.0005059014656580985
1920.0,-0.0002682693302631378
2048.0,3.4022832551272586e-05
2304.0,6.091119212214835e-05
2560.0,-0.000334190292051062
2816.0,0.0005452179466374218
3072.0,0.00017007016867864877
3328.0,0.00027937826234847307
3584.0,-0.0004979889490641654
3840.0,-0.0006338571547530591
4096.0,-0.0004115644551347941
4608.0,0.00018958751752506942
5120.0,-0.00017993680376093835
5632.0,-0.0004124834085814655
6144.0,0.0005324390367604792
6656.0,0.00013333282549865544
7168.0,0.00021961676247883588
7680.0,-0.00015737026114948094
8192.0,-0.0003731145116034895
9216.0,0.00028415361884981394
10240.0,-0.0002549472847022116
11264.0,-0.00023077515652403235
12288.0,-0.00017788603145163506
13312.0,-9.646857506595552e-05
14336.0,0.000347664812579751
end
