version,3.0
numOfCh,1
type,point
parent_name,800-cuts
ch_type,1_1
kcount,1
numberNandB,1
brightnessNandB,1
carpet pos,0
pc,0
Time (ms),CH1 Auto-Correlation
1.0,0.09049694240093231
2.0,0.0799579992890358
3.0,0.07071253657341003
4.0,0.06253334879875183
5.0,0.055633559823036194
6.0,0.04930560663342476
7.0,0.043899573385715485
8.0,0.0392385795712471
9.0,0.03497673571109772
10.0,0.031206397339701653
11.0,0.027784356847405434
12.0,0.02500648982822895
13.0,0.02224835939705372
14.0,0.020000673830509186
15.0,0.01830250397324562
16.0,0.017108887434005737
18.0,0.015190079808235168
20.0,0.013565199449658394
22.0,0.01218884065747261
24.0,0.011124901473522186
26.0,0.010161451995372772
28.0,0.008493473753333092
30.0,0.007000732235610485
32.0,0.005721237976104021
36.0,0.0026598775293678045
40.0,0.0006083237240090966
44.0,0.0002627365756779909
48.0,0.0014608473284170032
52.0,0.0022710850462317467
56.0,0.0028265854343771935
60.0,0.0025753795634955168
64.0,0.001204861793667078
72.0,-0.0003248154534958303
80.0,-0.00033221658668480814
88.0,-0.0013031469425186515
96.0,-0.0016379061853513122
104.0,-0.0004760058654937893
112.0,0.00041271361988037825
120.0,0.0008501823176629841
128.0,-0.0002319995401194319
144.0,-0.001836298848502338
160.0,-0.0017258203588426113
176.0,-0.001101135741919279
192.0,0.0017231417587026954
208.0,0.001252927235327661
224.0,0.00048003881238400936
240.0,0.0006518187001347542
256.0,5.816172779304907e-05
288.0,0.00397847406566143
320.0,-0.000716922921128571
352.0,-0.0005299595068208873
384.0,-0.0010047320974990726
416.0,0.0016552357701584697
448.0,0.0006222918163985014
480.0,-0.0007793764816597104
512.0,0.0024038448464125395
576.0,-0.0006287650321610272
640.0,0.0004715349350590259
704.0,0.0011852227617055178
768.0,0.001350199687294662
832.0,-0.0017905083950608969
896.0,-0.0013199285604059696
960.0,0.001091170939616859
1024.0,-0.0016871185507625341
1152.0,-0.0009361474076285958
1280.0,-0.0003297729417681694
1408.0,-0.0005429544253274798
1536.0,0.00021340043167583644
1664.0,-0.0021927894558757544
1792.0,3.397122782189399e-05
1920.0,0.001669040764681995
2048.0,-0.0010683904401957989
2304.0,-0.00036235793959349394
2560.0,0.0007150967721827328
2816.0,0.00014204542094375938
3072.0,-0.0015465125907212496
3328.0,-0.0012366414302960038
3584.0,0.00019234705541748554
3840.0,0.00042377470526844263
4096.0,-0.00030784375849179924
4608.0,-0.0006151350680738688
5120.0,-0.0006894367979839444
5632.0,-0.0005577103001996875
6144.0,-0.00018662672664504498
6656.0,0.0006610380951315165
7168.0,0.0004938594065606594
7680.0,0.0009722270187921822
8192.0,0.00029855998582206666
9216.0,-0.0007125954725779593
10240.0,0.0011068960884585977
11264.0,-0.0007890987326391041
12288.0,-0.0011936936061829329
13312.0,0.0020390553399920464
14336.0,0.001277711009606719
end
