version,3.0
numOfCh,1
type,point
parent_name,800-cuts
ch_type,1_1
kcount,1
numberNandB,1
brightnessNandB,1
carpet pos,0
pc,0
Time (ms),CH1 Auto-Correlation
1.0,0.02516905590891838
2.0,0.02207775227725506
3.0,0.019422007724642754
4.0,0.017185140401124954
5.0,0.015335259027779102
6.0,0.013738390989601612
7.0,0.012308716773986816
8.0,0.011043869890272617
9.0,0.009922832250595093
10.0,0.008851350285112858
11.0,0.007938945665955544
12.0,0.00712588569149375
13.0,0.006424525752663612
14.0,0.005789433140307665
15.0,0.005147980526089668
16.0,0.004596217069774866
18.0,0.003676959779113531
20.0,0.002833415986970067
22.0,0.0022198879159986973
24.0,0.0018203331856057048
26.0,0.001454038079828024
28.0,0.001235329662449658
30.0,0.0010184344137087464
32.0,0.0009549099486321211
36.0,0.0009700163500383496
40.0,0.0010939285857602954
44.0,0.001334821805357933
48.0,0.0013619440142065287
52.0,0.0013877481687813997
56.0,0.0012802383862435818
60.0,0.0010493481531739235
64.0,0.0006557412561960518
72.0,-0.00010170493624173105
80.0,-0.00053428765386343
88.0,-0.0009989497484639287
96.0,-0.0013743806630373001
104.0,-0.0016404831549152732
112.0,-0.0014777645701542497
120.0,-0.0013158268993720412
128.0,-0.0007130330777727067
144.0,-9.712405881145969e-05
160.0,-0.0014664860209450126
176.0,-0.0008913788478821516
192.0,-6.489801307907328e-05
208.0,0.0005521823768503964
224.0,-0.0002152994420612231
240.0,-0.0004356727877166122
256.0,-0.0005533382063731551
288.0,-0.0002763952361419797
320.0,-0.0005126688629388809
352.0,-0.0004627034650184214
384.0,-0.0013963932869955897
416.0,-0.0001953143801074475
448.0,-0.00041531689930707216
480.0,0.0007797448197379708
512.0,2.262455200252589e-05
576.0,-8.92009338713251e-05
640.0,-0.00023237366985995322
704.0,-0.00045496539678424597
768.0,0.0008043175912462175
832.0,0.0003327019221615046
896.0,-0.0004003422800451517
960.0,-4.065098619321361e-05
1024.0,-0.0001356333668809384
1152.0,-0.00010095207107951865
1280.0,-0.0002630191738717258
1408.0,0.0004310828517191112
1536.0,0.0006267836433835328
1664.0,-1.0786995517264586e-05
1792.0,-0.00041092425817623734
1920.0,-0.0006440726574510336
2048.0,-0.00013180513633415103
2304.0,0.00012520988821052015
2560.0,-0.00022935877495910972
2816.0,6.331872282316908e-05
3072.0,0.0004100305668544024
3328.0,-0.0003526142390910536
3584.0,3.005711369041819e-05
3840.0,-2.2979324057814665e-05
4096.0,-0.00034548784606158733
4608.0,3.0866009183228016e-05
5120.0,-0.00012499971489887685
5632.0,0.00015014360542409122
6144.0,4.751153028337285e-05
6656.0,-4.436715607880615e-05
7168.0,0.00017632426170166582
7680.0,-0.00014271210238803178
8192.0,-4.794712003786117e-05
9216.0,0.00016904667427297682
10240.0,-0.00015434628585353494
11264.0,-4.00138451368548e-05
12288.0,0.00013400281022768468
13312.0,-6.97895375196822e-05
14336.0,1.2661013897741213e-05
end
