version,3.0
numOfCh,1
type,point
parent_name,800-cuts
ch_type,1_1
kcount,1
numberNandB,1
brightnessNandB,1
carpet pos,0
pc,0
Time (ms),CH1 Auto-Correlation
1.0,0.04075213149189949
2.0,0.03606675565242767
3.0,0.032125283032655716
4.0,0.028764143586158752
5.0,0.025885924696922302
6.0,0.02349282056093216
7.0,0.021340694278478622
8.0,0.019354594871401787
9.0,0.01742572709918022
10.0,0.015736069530248642
11.0,0.014209190383553505
12.0,0.012801870703697205
13.0,0.01148962788283825
14.0,0.010332636535167694
15.0,0.009333654306828976
16.0,0.008248450234532356
18.0,0.00654543936252594
20.0,0.005304859019815922
22.0,0.0043009198270738125
24.0,0.0032887363340705633
26.0,0.0024218035396188498
28.0,0.001777869532816112
30.0,0.0011527296155691147
32.0,0.0006171139539219439
36.0,0.0004399461904540658
40.0,0.00038352349656634033
44.0,-4.168153100181371e-05
48.0,0.00033197697484865785
52.0,0.0007884962251409888
56.0,0.000857916078530252
60.0,0.0009928075596690178
64.0,0.000996568240225315
72.0,0.00038988314918242395
80.0,0.0003950019890908152
88.0,0.0012460494181141257
96.0,0.000903318461496383
104.0,0.00044980261009186506
112.0,0.0002498548128642142
120.0,-0.0007117704371921718
128.0,-0.000905139313545078
144.0,-0.0007482713554054499
160.0,-0.001710141310468316
176.0,-0.0023770960979163647
192.0,-0.0006585113005712628
208.0,0.0002885026333387941
224.0,0.0004288969503249973
240.0,0.00023000188230071217
256.0,-0.0003751525073312223
288.0,-0.00012903110473416746
320.0,-8.732322748983279e-05
352.0,-0.00030755624175071716
384.0,-0.0004190800536889583
416.0,-0.001028761500492692
448.0,-0.0005335367168299854
480.0,-0.00018233832088299096
512.0,-0.0004361758765298873
576.0,-0.0007451091660186648
640.0,0.0005863086553290486
704.0,0.000745776342228055
768.0,-0.00017700013995636255
832.0,-0.00012731710739899427
896.0,0.0009703509858809412
960.0,-0.0010075763566419482
1024.0,-0.0008236245485022664
1152.0,0.00031992862932384014
1280.0,-0.00066722760675475
1408.0,0.0003474848053883761
1536.0,-0.0004730476066470146
1664.0,-5.616955149889691e-06
1792.0,-0.000872609845828265
1920.0,-2.0977542590117082e-05
2048.0,0.00031827850034460425
2304.0,0.0003662686503957957
2560.0,-0.00022099239868111908
2816.0,0.00018367631128057837
3072.0,5.585361213888973e-05
3328.0,-0.00010943714005406946
3584.0,0.0003496353456284851
3840.0,0.0001682948786765337
4096.0,-5.399539804784581e-05
4608.0,-0.0003216656914446503
5120.0,8.211789827328175e-05
5632.0,-0.00013308523921296
6144.0,6.882222805870697e-05
6656.0,1.306205490436696e-06
7168.0,0.00022690542391501367
7680.0,-0.00014023049152456224
8192.0,0.00017151843348983675
9216.0,-0.00015230555436573923
10240.0,-0.0002639979065861553
11264.0,9.158202010439709e-05
12288.0,-0.000344009225955233
13312.0,-0.00030163844348862767
14336.0,0.0006043650209903717
end
