version,3.0
numOfCh,1
type,point
parent_name,8-cuts
ch_type,1_1
kcount,1
numberNandB,1
brightnessNandB,1
carpet pos,0
pc,0
Time (ms),CH1 Auto-Correlation
1.0,0.09121554344892502
2.0,0.08439844101667404
3.0,0.0782143846154213
4.0,0.0729578286409378
5.0,0.06829332560300827
6.0,0.06427197903394699
7.0,0.060678813606500626
8.0,0.057393889874219894
9.0,0.05431148409843445
10.0,0.051403213292360306
11.0,0.04891793057322502
12.0,0.04657275602221489
13.0,0.04432088881731033
14.0,0.042326584458351135
15.0,0.040375977754592896
16.0,0.0386459156870842
18.0,0.03545570746064186
20.0,0.032764457166194916
22.0,0.03023461624979973
24.0,0.027942273765802383
26.0,0.025799931958317757
28.0,0.023800114169716835
30.0,0.021870411932468414
32.0,0.02018718421459198
36.0,0.017326317727565765
40.0,0.015411525964736938
44.0,0.014556752517819405
48.0,0.014310993254184723
52.0,0.014160648919641972
56.0,0.013583730906248093
60.0,0.013532983139157295
64.0,0.013454276137053967
72.0,0.013091973029077053
80.0,0.012360482476651669
88.0,0.009866996668279171
96.0,0.007438391447067261
104.0,0.005860369186848402
112.0,0.005980551242828369
120.0,0.007619719486683607
128.0,0.007675626315176487
144.0,0.005982857663184404
160.0,0.00343634863384068
176.0,0.0038585271686315536
192.0,0.0032802026253193617
208.0,0.0026261417660862207
224.0,0.004856595769524574
240.0,0.005688187200576067
256.0,0.004202450159937143
288.0,0.0035794167779386044
320.0,-0.0020064853597432375
352.0,0.0009024392929859459
384.0,0.0032471034210175276
416.0,-0.002153076697140932
448.0,-0.0006467661587521434
480.0,0.003338950453326106
512.0,0.0036748519632965326
576.0,0.0023252174723893404
640.0,-0.0010827580699697137
704.0,-0.002354726893827319
768.0,-0.0028033072594553232
832.0,-0.002045984612777829
896.0,-0.00040779742994345725
960.0,-0.0011419354705139995
1024.0,-0.003235677257180214
1152.0,-0.00863198284059763
1280.0,-0.007527679204940796
1408.0,-0.0022587107960134745
1536.0,-0.0007489033159799874
1664.0,-0.0016327056800946593
1792.0,-0.0030131968669593334
1920.0,0.0018395090010017157
2048.0,0.0011118531692773104
2304.0,0.002475704299286008
2560.0,-0.0004788768128491938
2816.0,0.0013483016518875957
3072.0,0.00011266275396337733
3328.0,0.004038958344608545
3584.0,-0.0004577148356474936
3840.0,-0.00027455296367406845
4096.0,-0.0003930881211999804
4608.0,-0.00036509812343865633
5120.0,0.0008921385742723942
5632.0,-0.0021194249857217073
6144.0,-0.0009550794493407011
6656.0,0.0012430817587301135
7168.0,-0.0021748135332018137
7680.0,0.0008425601408816874
8192.0,0.002442055381834507
9216.0,-0.0012801812263205647
10240.0,-0.004121292382478714
11264.0,0.0016122792148962617
12288.0,0.001830337685532868
13312.0,-0.005521902348846197
14336.0,0.0019893143326044083
end
