version,3.0
numOfCh,1
type,point
parent_name,8-cuts
ch_type,1_1
kcount,1
numberNandB,1
brightnessNandB,1
carpet pos,0
pc,0
Time (ms),CH1 Auto-Correlation
1.0,0.027258193120360374
2.0,0.025049006566405296
3.0,0.02316611260175705
4.0,0.021544363349676132
5.0,0.020182956010103226
6.0,0.019042711704969406
7.0,0.018031127750873566
8.0,0.017086083069443703
9.0,0.01619543693959713
10.0,0.015374260023236275
11.0,0.01463481318205595
12.0,0.013948950916528702
13.0,0.013325746171176434
14.0,0.012722652405500412
15.0,0.012149929068982601
16.0,0.01166399847716093
18.0,0.01083807460963726
20.0,0.010156678035855293
22.0,0.009611153043806553
24.0,0.009170365519821644
26.0,0.008623721078038216
28.0,0.00815931148827076
30.0,0.007805156521499157
32.0,0.007659612223505974
36.0,0.007341276854276657
40.0,0.006737935356795788
44.0,0.006118441000580788
48.0,0.00555178290233016
52.0,0.00488307373598218
56.0,0.004700066521763802
60.0,0.0045682876370847225
64.0,0.004477782640606165
72.0,0.003999802283942699
80.0,0.003463593078777194
88.0,0.00300912419334054
96.0,0.002647777320817113
104.0,0.0029949701856821775
112.0,0.0028829299844801426
120.0,0.003040102543309331
128.0,0.0027820072136819363
144.0,0.002194550819694996
160.0,0.0010198421077802777
176.0,6.405301974155009e-05
192.0,-0.0002567142073530704
208.0,-0.0007382400217466056
224.0,-0.0010314995888620615
240.0,-0.0003970012185163796
256.0,0.00020203004532959312
288.0,0.0001605113357072696
320.0,-9.221980872098356e-05
352.0,0.00041961882379837334
384.0,-8.098531907307915e-06
416.0,-0.0005545456078834832
448.0,-0.00017376818868797272
480.0,0.0003857955744024366
512.0,-0.000443463446572423
576.0,-0.0014741079648956656
640.0,-0.00017735075380187482
704.0,-0.00034668337320908904
768.0,0.0005510651390068233
832.0,0.0006935400306247175
896.0,0.0012636813335120678
960.0,0.0011624416802078485
1024.0,-0.00045740429777652025
1152.0,-0.0012194316368550062
1280.0,-0.001021435484290123
1408.0,-0.0008073552162386477
1536.0,-0.00028719883994199336
1664.0,-0.0003492924734018743
1792.0,-0.00019707514729816467
1920.0,0.00018070885562337935
2048.0,-0.0007334059337154031
2304.0,0.00023755463189445436
2560.0,0.0001449154078727588
2816.0,0.0001588462619110942
3072.0,0.0002563812304288149
3328.0,-0.00018815173825714737
3584.0,-0.0012027373304590583
3840.0,-0.0011065611615777016
4096.0,0.00029605976305902004
4608.0,0.0004905133391730487
5120.0,0.0003858946147374809
5632.0,0.0006704875850118697
6144.0,0.00011117038229713216
6656.0,-0.0002340674545848742
7168.0,-0.001239564036950469
7680.0,0.00016119403881020844
8192.0,0.00030804661219008267
9216.0,-0.0006023701862432063
10240.0,0.0005597742856480181
11264.0,-0.00048256677109748125
12288.0,-0.002128523075953126
13312.0,0.0008340302156284451
14336.0,0.0007075777975842357
end
