version,3.0
numOfCh,1
type,point
parent_name,8-cuts
ch_type,1_1
kcount,1
numberNandB,1
brightnessNandB,1
carpet pos,0
pc,0
Time (ms),CH1 Auto-Correlation
1.0,0.026334304362535477
2.0,0.02424684911966324
3.0,0.022450318560004234
4.0,0.02087722159922123
5.0,0.019497007131576538
6.0,0.018244732171297073
7.0,0.017151519656181335
8.0,0.01618093252182007
9.0,0.015298750251531601
10.0,0.01455969549715519
11.0,0.013904799707233906
12.0,0.013307973742485046
13.0,0.012714032083749771
14.0,0.012136168777942657
15.0,0.011596606113016605
16.0,0.011060185730457306
18.0,0.010271517559885979
20.0,0.009616298601031303
22.0,0.008982088416814804
24.0,0.0084340525791049
26.0,0.007912471890449524
28.0,0.007440411485731602
30.0,0.007008480839431286
32.0,0.0066101825796067715
36.0,0.006070582661777735
40.0,0.005687549710273743
44.0,0.005418702028691769
48.0,0.005112201441079378
52.0,0.004663870669901371
56.0,0.004299442749470472
60.0,0.004127852618694305
64.0,0.0039327614940702915
72.0,0.003999253734946251
80.0,0.004320773761719465
88.0,0.003995463252067566
96.0,0.0038360513281077147
104.0,0.003445118898525834
112.0,0.0030393260531127453
120.0,0.0018816781230270863
128.0,0.0014570209896191955
144.0,0.0006895602564327419
160.0,0.0007047461112961173
176.0,0.000934811367187649
192.0,0.0008250282844528556
208.0,0.0006873765378259122
224.0,0.00023726349172648042
240.0,0.0008457491057924926
256.0,0.0009296233183704317
288.0,0.001389168668538332
320.0,0.0012210803106427193
352.0,0.001489322050474584
384.0,0.002259231172502041
416.0,0.0018316739005967975
448.0,0.0017412083689123392
480.0,0.0015632512513548136
512.0,0.00026222175802104175
576.0,-0.00027237815083935857
640.0,0.0005380064249038696
704.0,0.0012869429774582386
768.0,0.001713856472633779
832.0,0.0015171733684837818
896.0,0.001696359133347869
960.0,3.3834159694379196e-05
1024.0,-0.0007657129317522049
1152.0,-0.00026754100690595806
1280.0,-0.0009394402732141316
1408.0,-0.0008977577090263367
1536.0,-0.0008217710419557989
1664.0,-0.0013747846242040396
1792.0,-0.0004975206684321165
1920.0,-0.00016051474085543305
2048.0,0.0003035175905097276
2304.0,-0.00022748949413653463
2560.0,0.00016446947120130062
2816.0,6.898136780364439e-05
3072.0,-0.0011527985334396362
3328.0,-0.0009625541279092431
3584.0,-0.0013206583680585027
3840.0,-0.0016810900997370481
4096.0,-0.0008841727976687253
4608.0,0.000567822193261236
5120.0,0.0012564744101837277
5632.0,0.00043106841621920466
6144.0,-0.00020411565492395312
6656.0,0.0003634704335127026
7168.0,0.001014232519082725
7680.0,0.0007240338600240648
8192.0,-0.0004707299522124231
9216.0,-0.0007588607259094715
10240.0,-0.0001816033327486366
11264.0,-0.001142979832366109
12288.0,-0.0005451200413517654
13312.0,0.0010386430658400059
14336.0,0.00028405277407728136
end
