version,3.0
numOfCh,1
type,point
parent_name,8-cuts
ch_type,1_1
kcount,1
numberNandB,1
brightnessNandB,1
carpet pos,0
pc,0
Time (ms),CH1 Auto-Correlation
1.0,0.029467912390828133
2.0,0.02731188014149666
3.0,0.025510048493742943
4.0,0.023948675021529198
5.0,0.022604988887906075
6.0,0.0214160718023777
7.0,0.02029450237751007
8.0,0.019330404698848724
9.0,0.0184937696903944
10.0,0.017796596512198448
11.0,0.017193997278809547
12.0,0.016673052683472633
13.0,0.016178073361516
14.0,0.015731319785118103
15.0,0.01522220578044653
16.0,0.014793201349675655
18.0,0.013970432803034782
20.0,0.013198652304708958
22.0,0.012495084665715694
24.0,0.011832969263195992
26.0,0.011243819259107113
28.0,0.010728525929152966
30.0,0.010283231735229492
32.0,0.009942527860403061
36.0,0.009595523588359356
40.0,0.009134814143180847
44.0,0.008854405023157597
48.0,0.008512331172823906
52.0,0.008055085316300392
56.0,0.007750272285193205
60.0,0.007417649496346712
64.0,0.006826635450124741
72.0,0.005683985538780689
80.0,0.0049441223964095116
88.0,0.004583348985761404
96.0,0.004229507874697447
104.0,0.003472620854154229
112.0,0.0026142008136957884
120.0,0.0019091293215751648
128.0,0.0014528098981827497
144.0,0.0013245032168924809
160.0,0.001564027857966721
176.0,0.001683432376012206
192.0,0.0017543478170409799
208.0,0.0014794376911595464
224.0,0.0006806303863413632
240.0,0.000576160557102412
256.0,0.0006834582309238613
288.0,0.000342687068041414
320.0,0.0003904623445123434
352.0,0.000818877131678164
384.0,0.0005122470902279019
416.0,0.00040457359864376485
448.0,0.00016794406110420823
480.0,0.0014339789049699903
512.0,0.0018245292594656348
576.0,0.0008467251318506896
640.0,6.611774006159976e-05
704.0,-7.115626794984564e-05
768.0,-0.0002790371363516897
832.0,-0.00019800045993179083
896.0,-0.0010251530911773443
960.0,-0.0016822702018544078
1024.0,-0.0007273685769177973
1152.0,-0.0015256863553076982
1280.0,-0.0003062208998017013
1408.0,-1.7615802789805457e-05
1536.0,0.0001528837310615927
1664.0,-0.001245281659066677
1792.0,-0.0009756006766110659
1920.0,-0.0006715536583214998
2048.0,0.00021227732941042632
2304.0,-0.000246408540988341
2560.0,0.0002670409739948809
2816.0,-0.001197857316583395
3072.0,-0.0007688085315749049
3328.0,-0.0007496330654248595
3584.0,0.0006823954172432423
3840.0,0.0006481970776803792
4096.0,0.0008286882075481117
4608.0,0.00029587652534246445
5120.0,-0.001144116511568427
5632.0,-0.0009603392099961638
6144.0,-0.0002620166924316436
6656.0,0.0006585268420167267
7168.0,0.0006229905411601067
7680.0,-0.0011106050806120038
8192.0,0.0016784871695563197
9216.0,0.0001267276966245845
10240.0,-0.001007691491395235
11264.0,-0.00028086165548302233
12288.0,0.0011352378642186522
13312.0,-0.0014567755861207843
14336.0,-0.0018206568202003837
end
