version,3.0
numOfCh,1
type,point
parent_name,8-cuts
ch_type,1_1
kcount,1
numberNandB,1
brightnessNandB,1
carpet pos,0
pc,0
Time (ms),CH1 Auto-Correlation
1.0,0.02715923823416233
2.0,0.02501733973622322
3.0,0.023194778710603714
4.0,0.021639496088027954
5.0,0.02020435966551304
6.0,0.019010797142982483
7.0,0.01794959045946598
8.0,0.016946211457252502
9.0,0.016044484451413155
10.0,0.015174614265561104
11.0,0.014357569627463818
12.0,0.013628607615828514
13.0,0.012933296151459217
14.0,0.01233221497386694
15.0,0.011750609613955021
16.0,0.01119705755263567
18.0,0.010244237259030342
20.0,0.00933054368942976
22.0,0.008499886840581894
24.0,0.007734660524874926
26.0,0.006968882400542498
28.0,0.0062897163443267345
30.0,0.005828946363180876
32.0,0.005330342799425125
36.0,0.004416079260408878
40.0,0.0037427067290991545
44.0,0.003411900717765093
48.0,0.0031561478972434998
52.0,0.002475160174071789
56.0,0.0018134337151423097
60.0,0.0012716447236016393
64.0,0.0006194950547069311
72.0,-1.5058524695632514e-05
80.0,4.8004589189076796e-05
88.0,0.00026769217220135033
96.0,0.00037587646511383355
104.0,0.0008936153608374298
112.0,0.0008741528145037591
120.0,0.0005555066745728254
128.0,0.00033616303699091077
144.0,-0.0002443922567181289
160.0,-0.00042545245378278196
176.0,-0.00023199434508569539
192.0,-1.8774313502945006e-05
208.0,5.826801498187706e-06
224.0,0.00012825267913285643
240.0,0.00032666223705746233
256.0,-0.00016304249584209174
288.0,-0.0007599096279591322
320.0,-9.975637658499181e-05
352.0,-0.00010216908412985504
384.0,0.00032978126546368003
416.0,0.00031271736952476203
448.0,0.0007786311907693744
480.0,0.0019887101370841265
512.0,0.002408535685390234
576.0,0.0013977187918499112
640.0,0.0006026806659065187
704.0,0.00019912314019165933
768.0,-0.0009563486091792583
832.0,-0.00010743005259428173
896.0,-0.0008296395535580814
960.0,-0.0006465463666245341
1024.0,6.907379429321736e-05
1152.0,0.00028048548847436905
1280.0,-0.00032509290031157434
1408.0,-0.0008432382019236684
1536.0,-9.943714394466951e-05
1664.0,-0.00038855537422932684
1792.0,0.0004749009676743299
1920.0,-0.0011087608290836215
2048.0,0.00024765238049440086
2304.0,-0.00018067391647491604
2560.0,-0.00021781306713819504
2816.0,0.00017112490604631603
3072.0,0.0005354042514227331
3328.0,-0.0004124676052015275
3584.0,-0.0010510049760341644
3840.0,0.0004706203762907535
4096.0,-0.0007952391752041876
4608.0,-0.00011821043153759092
5120.0,-0.00014469624147750437
5632.0,0.00031182004022412
6144.0,0.00016831964603625238
6656.0,-0.00025469393585808575
7168.0,-0.0005383873940445483
7680.0,-0.00043158617336302996
8192.0,0.000604807457420975
9216.0,0.0006810490740463138
10240.0,-8.27010881039314e-05
11264.0,-1.108420383388875e-05
12288.0,-0.0005818604258820415
13312.0,-0.0008286560769192874
14336.0,-0.0006421045400202274
end
