version,3.0
numOfCh,1
type,point
parent_name,8-cuts
ch_type,1_1
kcount,1
numberNandB,1
brightnessNandB,1
carpet pos,0
pc,0
Time (ms),CH1 Auto-Correlation
1.0,0.026608046144247055
2.0,0.02448125183582306
3.0,0.022702863439917564
4.0,0.021167004480957985
5.0,0.019789833575487137
6.0,0.01856304705142975
7.0,0.017441753298044205
8.0,0.016389213502407074
9.0,0.015460853464901447
10.0,0.014604177325963974
11.0,0.013809001073241234
12.0,0.013128556311130524
13.0,0.012522793374955654
14.0,0.011958117596805096
15.0,0.011395198293030262
16.0,0.010920812375843525
18.0,0.010018782690167427
20.0,0.009205004200339317
22.0,0.008468477055430412
24.0,0.007862084545195103
26.0,0.007361127063632011
28.0,0.006885511800646782
30.0,0.006336783990263939
32.0,0.005858822260051966
36.0,0.004939200822263956
40.0,0.004223641939461231
44.0,0.003907395992428064
48.0,0.0037471370305866003
52.0,0.0034730173647403717
56.0,0.0029639871791005135
60.0,0.0026066082064062357
64.0,0.002377296332269907
72.0,0.002340297680348158
80.0,0.0023337211459875107
88.0,0.002442767145112157
96.0,0.002421656623482704
104.0,0.00213009980507195
112.0,0.0017582952277734876
120.0,0.0016685196897014976
128.0,0.0015828359173610806
144.0,0.0014486388536170125
160.0,0.0013008784735575318
176.0,0.0006924179615452886
192.0,-0.00013756914995610714
208.0,-6.292327725532232e-06
224.0,0.0004235846281517297
240.0,0.0007839302998036146
256.0,0.0007060680072754622
288.0,-0.00031864724587649107
320.0,-0.0005494929500855505
352.0,-0.000559162930585444
384.0,-0.0014781610807403922
416.0,-0.0006792438798584044
448.0,-0.0010603247210383415
480.0,-0.00012705540575552732
512.0,0.00030794148915447295
576.0,0.0008917050436139107
640.0,-7.34814238967374e-05
704.0,3.7166733818594366e-05
768.0,0.0002154038375010714
832.0,-0.00020188713097013533
896.0,-0.00012040070578223094
960.0,-0.00010618953092489392
1024.0,-0.00031284455326385796
1152.0,-0.0011446052230894566
1280.0,-0.0017223962349817157
1408.0,-0.0013703047297894955
1536.0,-0.0005436132196336985
1664.0,0.001253172173164785
1792.0,0.0009620491764508188
1920.0,9.201846842188388e-05
2048.0,0.00010183022823184729
2304.0,-0.0007760694134049118
2560.0,-5.427996438811533e-05
2816.0,-0.0008219503215514123
3072.0,-0.00049137620953843
3328.0,4.520779839367606e-05
3584.0,-0.00034896592842414975
3840.0,0.0006572791025973856
4096.0,0.0003546189400367439
4608.0,0.0005457385559566319
5120.0,-9.733239858178422e-05
5632.0,-0.00040148504194803536
6144.0,-8.071132469922304e-05
6656.0,0.0006783152348361909
7168.0,-0.0003891684173140675
7680.0,-0.0006448729545809329
8192.0,-0.00045663464698009193
9216.0,0.0001044723903760314
10240.0,0.00015237840125337243
11264.0,0.00038349610986188054
12288.0,-0.0004902187502011657
13312.0,0.00017078488599509
14336.0,5.09619276272133e-05
end
