version,3.0
numOfCh,1
type,point
parent_name,8-cuts
ch_type,1_1
kcount,1
numberNandB,1
brightnessNandB,1
carpet pos,0
pc,0
Time (ms),CH1 Auto-Correlation
1.0,0.026438701897859573
2.0,0.024314556270837784
3.0,0.02244373969733715
4.0,0.02081952802836895
5.0,0.019409427419304848
6.0,0.018143920227885246
7.0,0.017034102231264114
8.0,0.016120167449116707
9.0,0.015274468809366226
10.0,0.014521608129143715
11.0,0.013807784765958786
12.0,0.013241478241980076
13.0,0.012737424112856388
14.0,0.01224339660257101
15.0,0.011783881112933159
16.0,0.011314629577100277
18.0,0.010503491386771202
20.0,0.009799957275390625
22.0,0.009122319519519806
24.0,0.008517357520759106
26.0,0.007958837784826756
28.0,0.007581657730042934
30.0,0.007178755011409521
32.0,0.006753812078386545
36.0,0.006256916094571352
40.0,0.005977214779704809
44.0,0.005577935371547937
48.0,0.0050606015138328075
52.0,0.004485849291086197
56.0,0.004183903336524963
60.0,0.004101701080799103
64.0,0.003823092905804515
72.0,0.002836027182638645
80.0,0.0022834695409983397
88.0,0.0024394814390689135
96.0,0.0022309652995318174
104.0,0.0024725873954594135
112.0,0.0025281189009547234
120.0,0.0024499616120010614
128.0,0.002378718927502632
144.0,0.0019944547675549984
160.0,0.0011620557634159923
176.0,0.0006476488197222352
192.0,0.0003482442407403141
208.0,0.0003779325052164495
224.0,-0.0002649918315000832
240.0,6.24165331828408e-05
256.0,0.0003205327957402915
288.0,0.0017349418485537171
320.0,0.0023634787648916245
352.0,0.001624908996745944
384.0,0.0016103152884170413
416.0,0.0009107001242227852
448.0,0.0013326286571100354
480.0,0.0007048826664686203
512.0,0.00020422939269337803
576.0,0.0003010495565831661
640.0,-0.00031348783522844315
704.0,-0.0008400612859986722
768.0,-0.000968795910011977
832.0,-0.00043061416363343596
896.0,0.000349982496118173
960.0,-0.00045145765761844814
1024.0,-0.001397147192619741
1152.0,-0.0011315218871459365
1280.0,-0.0006539929891005158
1408.0,-0.0006498727016150951
1536.0,-0.0007278654375113547
1664.0,-0.0009521581814624369
1792.0,-0.0002720880147535354
1920.0,-0.0007664214936085045
2048.0,-0.0012519934680312872
2304.0,-0.0014697624137625098
2560.0,-0.0006221591611392796
2816.0,0.00033598850131966174
3072.0,0.0017263457411900163
3328.0,0.0011586660984903574
3584.0,0.0006755638751201332
3840.0,0.0009591862908564508
4096.0,0.0008642435423098505
4608.0,-7.452861609635875e-05
5120.0,-0.00041500426596030593
5632.0,-0.000717007031198591
6144.0,-0.0012209510896354914
6656.0,-0.0002823315153364092
7168.0,0.001285303384065628
7680.0,0.0004389341047499329
8192.0,0.0008698898600414395
9216.0,-0.0015800328692421317
10240.0,0.0007267065229825675
11264.0,-0.00015766311844345182
12288.0,-0.0009925063932314515
13312.0,0.0004261090944055468
14336.0,0.00013511809811461717
end
