version,3.0
numOfCh,1
type,point
parent_name,8-cuts
ch_type,1_1
kcount,1
numberNandB,1
brightnessNandB,1
carpet pos,0
pc,0
Time (ms),CH1 Auto-Correlation
1.0,0.08781261742115021
2.0,0.08085662126541138
3.0,0.07493916153907776
4.0,0.06963552534580231
5.0,0.06506244838237762
6.0,0.061038099229335785
7.0,0.05754019320011139
8.0,0.05438501015305519
9.0,0.05141037330031395
10.0,0.048812929540872574
11.0,0.04655085876584053
12.0,0.04432067647576332
13.0,0.04212043434381485
14.0,0.04009536653757095
15.0,0.03821123391389847
16.0,0.03654693067073822
18.0,0.034075092524290085
20.0,0.03150120750069618
22.0,0.029205799102783203
24.0,0.02708251215517521
26.0,0.02526739239692688
28.0,0.0236979890614748
30.0,0.02236340008676052
32.0,0.02133283205330372
36.0,0.019216999411582947
40.0,0.017594419419765472
44.0,0.01612021215260029
48.0,0.014768380671739578
52.0,0.013222320936620235
56.0,0.011996910907328129
60.0,0.011135036125779152
64.0,0.009835843928158283
72.0,0.00811007246375084
80.0,0.008134782314300537
88.0,0.006847912911325693
96.0,0.005080722738057375
104.0,0.004745809361338615
112.0,0.005088328383862972
120.0,0.005295637529343367
128.0,0.004813006147742271
144.0,0.002733206609264016
160.0,0.001103810383938253
176.0,0.0018388460157439113
192.0,0.0018754308111965656
208.0,0.0023357439786195755
224.0,0.003100594272837043
240.0,0.002221677452325821
256.0,0.0015534290578216314
288.0,0.0038195650558918715
320.0,0.00011555974197108299
352.0,0.0001562728575663641
384.0,-0.0015882360748946667
416.0,-0.0027146954089403152
448.0,-0.0039905039593577385
480.0,-0.0020009190775454044
512.0,-0.0021623254287987947
576.0,-0.0006511749816127121
640.0,-0.002694835187867284
704.0,-0.00590302050113678
768.0,-0.0029195945244282484
832.0,-0.002810433506965637
896.0,-0.0009360511903651059
960.0,-0.004056581761687994
1024.0,0.0011527597671374679
1152.0,0.0030760604422539473
1280.0,-0.0026599436532706022
1408.0,-0.001608088961802423
1536.0,-0.0013058199547231197
1664.0,0.001160956802777946
1792.0,0.002969656605273485
1920.0,0.0016039441106840968
2048.0,0.004221300128847361
2304.0,-0.000563433684874326
2560.0,-0.001703560701571405
2816.0,-0.000606478366535157
3072.0,0.0015851950738579035
3328.0,0.0015523378970101476
3584.0,-0.00017814143211580813
3840.0,-0.0003635282628238201
4096.0,0.0006583636859431863
4608.0,-0.0005282747442834079
5120.0,-0.001720614731311798
5632.0,-0.0006146414671093225
6144.0,-0.0001280450087506324
6656.0,-0.0023481084499508142
7168.0,-3.3849384635686874e-05
7680.0,-0.0003244562540203333
8192.0,-0.0022376070264726877
9216.0,-0.0014276711735874414
10240.0,-0.0005007002619095147
11264.0,-0.0009470738004893064
12288.0,0.002355345757678151
13312.0,-0.000977884279564023
14336.0,0.002232006983831525
end
