version,3.0
numOfCh,1
type,point
parent_name,8-cuts
ch_type,1_1
kcount,1
numberNandB,1
brightnessNandB,1
carpet pos,0
pc,0
Time (ms),CH1 Auto-Correlation
1.0,0.04184979200363159
2.0,0.0385974645614624
3.0,0.03571872413158417
4.0,0.03317992761731148
5.0,0.03097420372068882
6.0,0.02907612733542919
7.0,0.027421653270721436
8.0,0.025883466005325317
9.0,0.024488134309649467
10.0,0.023306818678975105
11.0,0.022236153483390808
12.0,0.021282123401761055
13.0,0.020362192764878273
14.0,0.019565680995583534
15.0,0.01890200562775135
16.0,0.018350277096033096
18.0,0.01727673038840294
20.0,0.016131624579429626
22.0,0.01509976014494896
24.0,0.013936384581029415
26.0,0.012922464869916439
28.0,0.012165779247879982
30.0,0.01145974826067686
32.0,0.01077359076589346
36.0,0.009823130443692207
40.0,0.009192539379000664
44.0,0.008976324461400509
48.0,0.008940629661083221
52.0,0.008612971752882004
56.0,0.007794422563165426
60.0,0.006867792923003435
64.0,0.006121294107288122
72.0,0.005285408813506365
80.0,0.004551824182271957
88.0,0.004108373075723648
96.0,0.003913672175258398
104.0,0.003790880786255002
112.0,0.003380554961040616
120.0,0.0026497342623770237
128.0,0.0020294778514653444
144.0,0.001734309596940875
160.0,0.0011327301617711782
176.0,0.000716960639692843
192.0,-0.0001518925273558125
208.0,-0.0013071848079562187
224.0,-0.002050381386652589
240.0,-0.0019424045458436012
256.0,-0.0023003118112683296
288.0,-0.0019639558158814907
320.0,-0.0029874846804887056
352.0,-0.004397884476929903
384.0,-0.0027354410849511623
416.0,-0.003063503187149763
448.0,-0.0005345867830328643
480.0,0.0011453649494796991
512.0,0.0006889303913339972
576.0,0.0003055820125155151
640.0,0.00046633463352918625
704.0,0.000960339792072773
768.0,0.00119600142352283
832.0,-0.001331780687905848
896.0,-0.0015373436035588384
960.0,-0.0026884202379733324
1024.0,-0.0027044822927564383
1152.0,-0.00104476825799793
1280.0,-0.00030710059218108654
1408.0,0.000526594347320497
1536.0,-0.0008009015582501888
1664.0,-0.0022811037488281727
1792.0,-0.00018805390573106706
1920.0,0.0011727457167580724
2048.0,0.0026828600093722343
2304.0,-0.00040529394755139947
2560.0,0.0018112800316885114
2816.0,-0.0014077068772166967
3072.0,-0.0013084319652989507
3328.0,0.0025793120730668306
3584.0,0.0008080574334599078
3840.0,-0.0007255435921251774
4096.0,0.00041556943324394524
4608.0,-0.0001257056137546897
5120.0,0.00036545933107845485
5632.0,0.002139223041012883
6144.0,-0.0017440213123336434
6656.0,-0.0015834769001230597
7168.0,0.00031047972152009606
7680.0,0.0024291882291436195
8192.0,4.285292743588798e-05
9216.0,0.00047502218512818217
10240.0,-7.403583731502295e-05
11264.0,-0.0006467634229920805
12288.0,0.00029032034217379987
13312.0,-0.0006807976751588285
14336.0,-0.0004775838169734925
end
