version,3.0
numOfCh,1
type,point
parent_name,8-cuts
ch_type,1_1
kcount,1
numberNandB,1
brightnessNandB,1
carpet pos,0
pc,0
Time (ms),CH1 Auto-Correlation
1.0,0.042750075459480286
2.0,0.03954165428876877
3.0,0.03674624115228653
4.0,0.034245800226926804
5.0,0.03193718194961548
6.0,0.029938336461782455
7.0,0.028150461614131927
8.0,0.02652316354215145
9.0,0.025051893666386604
10.0,0.023819494992494583
11.0,0.022715160623192787
12.0,0.021664869040250778
13.0,0.020691579207777977
14.0,0.019846543669700623
15.0,0.018938012421131134
16.0,0.018069809302687645
18.0,0.016716474667191505
20.0,0.015578014776110649
22.0,0.014517311006784439
24.0,0.013486542738974094
26.0,0.01252482645213604
28.0,0.01163231860846281
30.0,0.010602050460875034
32.0,0.009880037046968937
36.0,0.008697742596268654
40.0,0.007857570424675941
44.0,0.0069794487208127975
48.0,0.006458309479057789
52.0,0.006268216297030449
56.0,0.005999187473207712
60.0,0.00581422820687294
64.0,0.005540270358324051
72.0,0.004969767294824123
80.0,0.0050245048478245735
88.0,0.004238467197865248
96.0,0.0032385727390646935
104.0,0.003274524351581931
112.0,0.0030904405284672976
120.0,0.002241671085357666
128.0,0.002019788371399045
144.0,0.0031545681413263083
160.0,0.0031055789440870285
176.0,0.0016855440335348248
192.0,-0.00016792688984423876
208.0,-0.0016991512384265661
224.0,-0.0017356520984321833
240.0,-0.0013007611269131303
256.0,-0.0021140482276678085
288.0,-0.00148669327609241
320.0,-0.0008043962297961116
352.0,-0.0011109409388154745
384.0,-0.001364639843814075
416.0,7.115954940672964e-05
448.0,0.0008486318401992321
480.0,-0.0007946020341478288
512.0,-0.0012045459588989615
576.0,-0.0004016888851765543
640.0,0.0005892949993722141
704.0,-0.00023362050706055015
768.0,0.0017588253831490874
832.0,-8.095421071629971e-05
896.0,0.00090572121553123
960.0,0.0027347025461494923
1024.0,0.003960533067584038
1152.0,0.0013388685183599591
1280.0,-0.0006397847319021821
1408.0,0.0002578837738838047
1536.0,-0.002274700440466404
1664.0,-0.0006728802691213787
1792.0,0.000968037114944309
1920.0,3.942437979276292e-05
2048.0,0.0005842010141350329
2304.0,0.0008075821097008884
2560.0,-0.0012957726139575243
2816.0,-0.0007798419101163745
3072.0,0.001004786929115653
3328.0,-0.00255519337952137
3584.0,-0.0002328579139430076
3840.0,-0.0015541556058451533
4096.0,0.0012083174660801888
4608.0,-0.0005707607488147914
5120.0,-0.0012814681977033615
5632.0,0.0003737748193088919
6144.0,-0.0009427419281564653
6656.0,0.00137720990460366
7168.0,-0.0010195807553827763
7680.0,0.00017416797345504165
8192.0,-8.337942563230172e-05
9216.0,-0.0006270185112953186
10240.0,-0.0002690357796382159
11264.0,-0.0001959040091605857
12288.0,-0.00011380028445273638
13312.0,0.00046835196553729475
14336.0,0.0005642091855406761
end
