version,3.0
numOfCh,1
type,point
parent_name,8-cuts
ch_type,1_1
kcount,1
numberNandB,1
brightnessNandB,1
carpet pos,0
pc,0
Time (ms),CH1 Auto-Correlation
1.0,0.027368010953068733
2.0,0.025180255994200706
3.0,0.023385483771562576
4.0,0.021831419318914413
5.0,0.020462283864617348
6.0,0.019220564514398575
7.0,0.018151780590415
8.0,0.01720311865210533
9.0,0.016326172277331352
10.0,0.01551967952400446
11.0,0.014754610136151314
12.0,0.014051930978894234
13.0,0.013419336639344692
14.0,0.012881874106824398
15.0,0.01249944418668747
16.0,0.01207701675593853
18.0,0.011305144056677818
20.0,0.010521827265620232
22.0,0.009837951511144638
24.0,0.009249507449567318
26.0,0.008701220154762268
28.0,0.00821562111377716
30.0,0.007713716477155685
32.0,0.007209352683275938
36.0,0.006336221471428871
40.0,0.005521026439964771
44.0,0.00486303074285388
48.0,0.004214807879179716
52.0,0.0034534514416009188
56.0,0.0027796966023743153
60.0,0.002172116655856371
64.0,0.0017603536834940314
72.0,0.0013143116375431418
80.0,0.000721167481970042
88.0,0.000568014569580555
96.0,0.0003848726046271622
104.0,0.00042186936479993165
112.0,0.0005268610548228025
120.0,0.0008983055595308542
128.0,0.000993009191006422
144.0,0.0011351603316143155
160.0,0.0007009523687884212
176.0,0.001161583699285984
192.0,0.0016343733295798302
208.0,0.0018186417873948812
224.0,0.001779707963578403
240.0,0.001826270017772913
256.0,0.0008837201748974621
288.0,0.00021901715081185102
320.0,-8.934520883485675e-05
352.0,0.0007085761171765625
384.0,-1.5594128853990696e-05
416.0,-0.00023044359113555402
448.0,-3.082022158196196e-05
480.0,-0.001093926141038537
512.0,-0.0007083204109221697
576.0,0.0005716195446439087
640.0,0.00025980634381994605
704.0,-0.0005436921492218971
768.0,0.000329095171764493
832.0,0.0008021647809073329
896.0,0.0010655057849362493
960.0,0.0011010827729478478
1024.0,1.5391779015772045e-05
1152.0,-0.00042079860577359796
1280.0,-0.00016329865320585668
1408.0,0.0005757375038228929
1536.0,0.0003764482098631561
1664.0,-0.00038572316407226026
1792.0,-0.00044595348299480975
1920.0,-0.0009984950302168727
2048.0,-9.95778009382775e-06
2304.0,0.0001376594736939296
2560.0,-0.0011122464202344418
2816.0,0.00041727969073690474
3072.0,-0.0005914638750255108
3328.0,-0.0009222868247888982
3584.0,-2.9217571864137426e-05
3840.0,0.0010947115952149034
4096.0,-0.0007771221571601927
4608.0,9.166260133497417e-05
5120.0,-0.0012413134099915624
5632.0,-0.0004468364058993757
6144.0,-0.0001266286853933707
6656.0,-0.00021813629427924752
7168.0,0.00011613909737206995
7680.0,-0.0009240515646524727
8192.0,-9.475320257479325e-05
9216.0,-0.00034604521351866424
10240.0,0.0012126611545681953
11264.0,0.0010691630886867642
12288.0,-0.00010792016837513074
13312.0,-0.0009834753582254052
14336.0,-0.0004841014451812953
end
