version,3.0
numOfCh,1
type,point
parent_name,8-cuts
ch_type,1_1
kcount,1
numberNandB,1
brightnessNandB,1
carpet pos,0
pc,0
Time (ms),CH1 Auto-Correlation
1.0,0.0968846008181572
2.0,0.08994229882955551
3.0,0.08372949063777924
4.0,0.07843424379825592
5.0,0.07360773533582687
6.0,0.06913834065198898
7.0,0.06522669643163681
8.0,0.06168508902192116
9.0,0.05861318111419678
10.0,0.05603449419140816
11.0,0.05372091755270958
12.0,0.05145387351512909
13.0,0.04921702668070793
14.0,0.04713902994990349
15.0,0.04530184715986252
16.0,0.04346633329987526
18.0,0.04003516212105751
20.0,0.03697660192847252
22.0,0.03413685783743858
24.0,0.03198069706559181
26.0,0.029744714498519897
28.0,0.027442777529358864
30.0,0.025438575074076653
32.0,0.02352682128548622
36.0,0.020465156063437462
40.0,0.018583230674266815
44.0,0.01703188382089138
48.0,0.016284888610243797
52.0,0.01546606607735157
56.0,0.01410026103258133
60.0,0.012907491996884346
64.0,0.011698427610099316
72.0,0.011477229185402393
80.0,0.010806056670844555
88.0,0.009559204801917076
96.0,0.008148793131113052
104.0,0.007588454522192478
112.0,0.008267905563116074
120.0,0.008451930247247219
128.0,0.00848171766847372
144.0,0.005902992095798254
160.0,0.0011833141325041652
176.0,-0.0005206172354519367
192.0,0.0017608783673495054
208.0,0.0032618714030832052
224.0,0.004917008802294731
240.0,0.0035310618113726377
256.0,0.004364306572824717
288.0,0.007176560815423727
320.0,0.0040413751266896725
352.0,0.0042547681368887424
384.0,0.00405519176274538
416.0,0.003194888588041067
448.0,0.0006545673822984099
480.0,0.0008614262333139777
512.0,0.0007157240761443973
576.0,-0.007006522733718157
640.0,-0.00796416774392128
704.0,-0.0018313968321308494
768.0,-0.0011549040209501982
832.0,0.0005356149049475789
896.0,-0.0028294899966567755
960.0,-0.00372077408246696
1024.0,-0.0021095555275678635
1152.0,0.005377212073653936
1280.0,0.002521948888897896
1408.0,0.0026096811052411795
1536.0,0.001476493664085865
1664.0,0.0009536073193885386
1792.0,0.002268621465191245
1920.0,0.005268620327115059
2048.0,0.005102039780467749
2304.0,0.0006803010473959148
2560.0,-0.003500990802422166
2816.0,-0.007058961316943169
3072.0,-0.0025624167174100876
3328.0,0.0054375724866986275
3584.0,0.006046005990356207
3840.0,0.0020468486472964287
4096.0,-0.0061339447274804115
4608.0,-0.00420392956584692
5120.0,0.0004537837521638721
5632.0,0.003125774674117565
6144.0,-0.00585677707567811
6656.0,-0.0033573503606021404
7168.0,0.002011459320783615
7680.0,-0.0016996058402583003
8192.0,-0.007516264915466309
9216.0,0.001771588227711618
10240.0,-0.0007449645199812949
11264.0,0.0011738738976418972
12288.0,0.0013035594020038843
13312.0,0.00034100678749382496
14336.0,0.00032878544880077243
end
