version,3.0
numOfCh,1
type,point
parent_name,8-cuts
ch_type,1_1
kcount,1
numberNandB,1
brightnessNandB,1
carpet pos,0
pc,0
Time (ms),CH1 Auto-Correlation
1.0,0.027730373665690422
2.0,0.025541305541992188
3.0,0.023699363693594933
4.0,0.022037915885448456
5.0,0.020620934665203094
6.0,0.019386542961001396
7.0,0.01828065887093544
8.0,0.017309151589870453
9.0,0.016447609290480614
10.0,0.015689024701714516
11.0,0.015024473890662193
12.0,0.0144127756357193
13.0,0.01381720695644617
14.0,0.013224571011960506
15.0,0.012730758637189865
16.0,0.01225496456027031
18.0,0.011436198838055134
20.0,0.010738460347056389
22.0,0.01016858872026205
24.0,0.009655226022005081
26.0,0.009289734996855259
28.0,0.009005692787468433
30.0,0.008820867165923119
32.0,0.008661290630698204
36.0,0.007983281277120113
40.0,0.007280224468559027
44.0,0.0066230460070073605
48.0,0.005878338124603033
52.0,0.005458405241370201
56.0,0.005213406402617693
60.0,0.004965700209140778
64.0,0.004631143528968096
72.0,0.004465240985155106
80.0,0.00449582003057003
88.0,0.004540721420198679
96.0,0.003892413107678294
104.0,0.0038000999484211206
112.0,0.003775171237066388
120.0,0.0036071641370654106
128.0,0.0030844728462398052
144.0,0.002519218949601054
160.0,0.0023871217854321003
176.0,0.0025380076840519905
192.0,0.0024434097576886415
208.0,0.0019534279126673937
224.0,0.0011072141351178288
240.0,0.0008477636147290468
256.0,0.0006088901427574456
288.0,0.0008894680649973452
320.0,0.0015113496920093894
352.0,0.001313946209847927
384.0,0.0009102889453060925
416.0,0.0006328105228021741
448.0,0.00045154066174291074
480.0,0.00032405651290901005
512.0,0.0007006702362559736
576.0,0.0009574656141921878
640.0,0.0005143164307810366
704.0,-3.113983984803781e-05
768.0,-0.0010733138769865036
832.0,-0.001725981943309307
896.0,-0.0008191442466340959
960.0,1.0815982022904791e-05
1024.0,-7.610561442561448e-05
1152.0,0.0005218075239099562
1280.0,-0.00010856463632080704
1408.0,-0.0006670511211268604
1536.0,-0.0001059484202414751
1664.0,-0.0008502447744831443
1792.0,-0.001077378517948091
1920.0,-0.0014821944059804082
2048.0,-0.0019320795545354486
2304.0,-0.0006983897183090448
2560.0,-0.0010680819395929575
2816.0,-0.0010029281256720424
3072.0,-0.002386343665421009
3328.0,-0.0010930333519354463
3584.0,0.00012736122880596668
3840.0,0.001490482478402555
4096.0,0.0011312178103253245
4608.0,0.0004767079371958971
5120.0,0.0007147575379349291
5632.0,0.00016025210788939148
6144.0,-0.0001824346836656332
6656.0,-0.0003262668615207076
7168.0,0.0010862716007977724
7680.0,0.0005606471095234156
8192.0,-0.0001893832813948393
9216.0,-0.0007328979554586112
10240.0,-0.0005472207558341324
11264.0,0.0003583009820431471
12288.0,0.0018299745861440897
13312.0,-2.65825838141609e-05
14336.0,-0.000826014787890017
end
