version,3.0
numOfCh,1
type,point
parent_name,8-cuts
ch_type,1_1
kcount,1
numberNandB,1
brightnessNandB,1
carpet pos,0
pc,0
Time (ms),CH1 Auto-Correlation
1.0,0.08755701780319214
2.0,0.08071935921907425
3.0,0.07455793768167496
4.0,0.06940165162086487
5.0,0.06510438024997711
6.0,0.06111600622534752
7.0,0.05752388387918472
8.0,0.0540839321911335
9.0,0.05097023397684097
10.0,0.04799492284655571
11.0,0.04550345242023468
12.0,0.043288495391607285
13.0,0.041251759976148605
14.0,0.039350297302007675
15.0,0.03751472756266594
16.0,0.03589674085378647
18.0,0.032689113169908524
20.0,0.029935969039797783
22.0,0.02758883498609066
24.0,0.02498520351946354
26.0,0.02305345982313156
28.0,0.021644799038767815
30.0,0.020053913816809654
32.0,0.018757836893200874
36.0,0.01676289178431034
40.0,0.014595397748053074
44.0,0.013424994423985481
48.0,0.012298394925892353
52.0,0.011684529483318329
56.0,0.010226170532405376
60.0,0.008538585156202316
64.0,0.008582774549722672
72.0,0.009560346603393555
80.0,0.010199164040386677
88.0,0.009767256677150726
96.0,0.007474720012396574
104.0,0.005134868901222944
112.0,0.0038046431727707386
120.0,0.0030994191765785217
128.0,0.0008665607892908156
144.0,-0.002817630534991622
160.0,-0.003658117726445198
176.0,-0.0048880004324018955
192.0,-0.0034942724741995335
208.0,-0.001118514104746282
224.0,0.0006762781413272023
240.0,0.0004048764531034976
256.0,0.0010933028534054756
288.0,0.002018711529672146
320.0,0.0030488797929137945
352.0,0.0007599149248562753
384.0,0.00034660505480132997
416.0,0.00245868437923491
448.0,0.0007918084156699479
480.0,0.0013047601096332073
512.0,-0.0005325325182639062
576.0,0.002749757608398795
640.0,0.005192008335143328
704.0,-0.00018499208090361208
768.0,-0.0032933305483311415
832.0,-0.0016726352041587234
896.0,-0.0001961165980901569
960.0,0.0016324283787980676
1024.0,-0.0004568529548123479
1152.0,0.0006066650967113674
1280.0,0.0037247000727802515
1408.0,0.00024004759325180203
1536.0,0.0011983647709712386
1664.0,-0.0004646853485610336
1792.0,-7.97896645963192e-05
1920.0,0.0011365754762664437
2048.0,0.0005508995382115245
2304.0,-0.0013518137857317924
2560.0,0.003808887442573905
2816.0,-0.0017406698316335678
3072.0,-0.0006706580170430243
3328.0,-0.0015770511236041784
3584.0,-0.002025799360126257
3840.0,0.00040314369834959507
4096.0,-0.002276303945109248
4608.0,-0.001872060471214354
5120.0,-0.0014438099460676312
5632.0,-0.0012355456128716469
6144.0,-0.0008918576058931649
6656.0,-0.0021630909759551287
7168.0,-0.0026714655105024576
7680.0,0.0004556051571853459
8192.0,-0.0009972209809347987
9216.0,-0.001488323207013309
10240.0,0.003285671817138791
11264.0,-0.00028982022195123136
12288.0,0.001994878752157092
13312.0,-0.0014965994050726295
14336.0,0.000775016553234309
end
