version,3.0
numOfCh,1
type,point
parent_name,8-cuts
ch_type,1_1
kcount,1
numberNandB,1
brightnessNandB,1
carpet pos,0
pc,0
Time (ms),CH1 Auto-Correlation
1.0,0.04153962433338165
2.0,0.038225434720516205
3.0,0.03538181260228157
4.0,0.032826997339725494
5.0,0.030519360676407814
6.0,0.028440548107028008
7.0,0.02660539001226425
8.0,0.02503620646893978
9.0,0.02357439696788788
10.0,0.022259121760725975
11.0,0.021157296374440193
12.0,0.020040711387991905
13.0,0.019004253670573235
14.0,0.018095364794135094
15.0,0.017317073419690132
16.0,0.016520334407687187
18.0,0.015359176322817802
20.0,0.014360297471284866
22.0,0.013320377096533775
24.0,0.012312138453125954
26.0,0.011442121118307114
28.0,0.010725378058850765
30.0,0.010008991695940495
32.0,0.009341781958937645
36.0,0.008434738963842392
40.0,0.007696928922086954
44.0,0.007017291616648436
48.0,0.006337249651551247
52.0,0.006101866252720356
56.0,0.006502925418317318
60.0,0.006527085788547993
64.0,0.00594685971736908
72.0,0.004434945061802864
80.0,0.003343088086694479
88.0,0.0023513594642281532
96.0,0.002217572880908847
104.0,0.0020164393354207277
112.0,0.002428069245070219
120.0,0.0032271631062030792
128.0,0.0026449174620211124
144.0,0.001870327047072351
160.0,0.001790992682799697
176.0,0.002460495103150606
192.0,0.0030446546152234077
208.0,0.00207794108428061
224.0,0.0014181751757860184
240.0,0.0010907758260145783
256.0,0.002121624071151018
288.0,0.0011750368867069483
320.0,-0.0016606210265308619
352.0,-0.0023593741934746504
384.0,-0.0016991280717775226
416.0,-0.0018471748335286975
448.0,-0.0012969133676961064
480.0,8.393258758587763e-05
512.0,-0.0013629323802888393
576.0,-0.0025355303660035133
640.0,-0.0034121880307793617
704.0,-0.00303573883138597
768.0,-0.0016287736361846328
832.0,-0.0012231258442625403
896.0,4.707053449237719e-05
960.0,-0.0008709643734619021
1024.0,-0.0011425357079133391
1152.0,0.001061627408489585
1280.0,-0.00011230651580262929
1408.0,0.001062713097780943
1536.0,0.0023083824198693037
1664.0,0.0002878455852624029
1792.0,0.0002464585122652352
1920.0,-0.0007206082809716463
2048.0,-0.0005831154412589967
2304.0,-0.0017577651888132095
2560.0,-0.00025109719717875123
2816.0,0.0006326210568659008
3072.0,0.0014111746568232775
3328.0,0.0008955186931416392
3584.0,-0.0003005174803547561
3840.0,-0.0017676970455795527
4096.0,-0.0017913096817210317
4608.0,0.0013341110898181796
5120.0,-0.0002610788505990058
5632.0,-0.0016356605337932706
6144.0,0.00018568459199741483
6656.0,-0.0001497099146945402
7168.0,-0.0008905011345632374
7680.0,0.000918470963370055
8192.0,0.0004949114518240094
9216.0,0.0001804856292437762
10240.0,-0.0003138200845569372
11264.0,0.00023800677445251495
12288.0,0.0005325386300683022
13312.0,-0.0004213915963191539
14336.0,-0.0004225151496939361
end
