version,3.0
numOfCh,1
type,point
parent_name,8-cuts
ch_type,1_1
kcount,1
numberNandB,1
brightnessNandB,1
carpet pos,0
pc,0
Time (ms),CH1 Auto-Correlation
1.0,0.025414085015654564
2.0,0.02334132418036461
3.0,0.021534571424126625
4.0,0.019919810816645622
5.0,0.018543899059295654
6.0,0.017345992848277092
7.0,0.016274603083729744
8.0,0.015366192907094955
9.0,0.014522761106491089
10.0,0.01375589706003666
11.0,0.013127420097589493
12.0,0.012564687058329582
13.0,0.012131167575716972
14.0,0.011637156829237938
15.0,0.01113198697566986
16.0,0.010715664364397526
18.0,0.009857844561338425
20.0,0.009169097058475018
22.0,0.008509048260748386
24.0,0.007915259338915348
26.0,0.007394421845674515
28.0,0.006946987938135862
30.0,0.006535414606332779
32.0,0.006099365185946226
36.0,0.005227773450314999
40.0,0.004597699735313654
44.0,0.004099416546523571
48.0,0.0038153359200805426
52.0,0.0035518561489880085
56.0,0.003410427598282695
60.0,0.0033157935831695795
64.0,0.0030539564322680235
72.0,0.00248816329985857
80.0,0.002526111202314496
88.0,0.0020424562972038984
96.0,0.0015299106016755104
104.0,0.0009981548646464944
112.0,0.0007567456923425198
120.0,0.00053309096256271
128.0,0.00036114954855293036
144.0,0.0002545890165492892
160.0,-0.0001922634255606681
176.0,-0.0005588508793152869
192.0,-0.00031745442538522184
208.0,0.00036178980371914804
224.0,0.0004325269255787134
240.0,0.00036415166687220335
256.0,0.0007771452073939145
288.0,0.00021474524692166597
320.0,7.354428089456633e-05
352.0,-0.0005651921965181828
384.0,-0.00043400496360845864
416.0,-0.0008052301127463579
448.0,-4.8471727495780215e-05
480.0,0.0006814031512476504
512.0,0.0001730036165099591
576.0,0.00018296872440259904
640.0,0.0007034678710624576
704.0,0.00016039866022765636
768.0,-0.0007363844779320061
832.0,-0.00018924690084531903
896.0,0.001044413773342967
960.0,0.0009264535619877279
1024.0,0.0004439296026248485
1152.0,0.0007272533257491887
1280.0,0.00020501446851994842
1408.0,-0.0016295165987685323
1536.0,8.432718459516764e-05
1664.0,2.3898648578324355e-05
1792.0,0.0002768395934253931
1920.0,-1.871157655841671e-05
2048.0,0.0002860347449313849
2304.0,0.00020148546900600195
2560.0,-0.0002885041176341474
2816.0,-0.00026654661633074284
3072.0,-0.0004982949467375875
3328.0,-0.0012188588734716177
3584.0,-4.679430730902823e-06
3840.0,-0.0003590767446439713
4096.0,8.701706974534318e-05
4608.0,0.00048308729310519993
5120.0,8.475944923702627e-05
5632.0,-4.691283902502619e-05
6144.0,0.00028282045968808234
6656.0,0.0009457578416913748
7168.0,7.812754483893514e-05
7680.0,-0.0002152764645870775
8192.0,-0.0005803639069199562
9216.0,-0.00048698161845095456
10240.0,-0.00026662295567803085
11264.0,-1.7097372619900852e-05
12288.0,-0.0002776258625090122
13312.0,-0.0003796936653088778
14336.0,-0.0002423850673949346
end
