version,3.0
numOfCh,1
type,point
parent_name,8-cuts
ch_type,1_1
kcount,1
numberNandB,1
brightnessNandB,1
carpet pos,0
pc,0
Time (ms),CH1 Auto-Correlation
1.0,0.07658069580793381
2.0,0.07013969868421555
3.0,0.06457836925983429
4.0,0.059726957231760025
5.0,0.05544913560152054
6.0,0.05174804851412773
7.0,0.04844789579510689
8.0,0.045748449862003326
9.0,0.04331335797905922
10.0,0.041102923452854156
11.0,0.03902373090386391
12.0,0.03739503026008606
13.0,0.035862889140844345
14.0,0.03449438884854317
15.0,0.03319793567061424
16.0,0.031994499266147614
18.0,0.02991696074604988
20.0,0.028029123321175575
22.0,0.02653294987976551
24.0,0.025148432701826096
26.0,0.023922016844153404
28.0,0.022796014323830605
30.0,0.02157715894281864
32.0,0.020583638921380043
36.0,0.0185600146651268
40.0,0.016626575961709023
44.0,0.015230465680360794
48.0,0.013911561109125614
52.0,0.012347560375928879
56.0,0.011530115269124508
60.0,0.011452806182205677
64.0,0.011009653098881245
72.0,0.008744610473513603
80.0,0.007923549041152
88.0,0.008113930933177471
96.0,0.006943517364561558
104.0,0.005159313790500164
112.0,0.00527910003438592
120.0,0.005910269916057587
128.0,0.006983359344303608
144.0,0.005539115518331528
160.0,0.005353942047804594
176.0,0.003891638945788145
192.0,0.002971751382574439
208.0,0.0011776036117225885
224.0,0.0012734233168885112
240.0,0.0027627155650407076
256.0,0.003668025601655245
288.0,0.002793879946693778
320.0,0.0009057425777427852
352.0,0.0019463973585516214
384.0,0.0027597008738666773
416.0,0.002006205962970853
448.0,0.0005986269097775221
480.0,-0.001922693569213152
512.0,-0.0014677235158160329
576.0,-0.00020386770484037697
640.0,-0.0019572449382394552
704.0,0.001516146818175912
768.0,0.00014367964467965066
832.0,-0.0014468400040641427
896.0,-0.0021096859127283096
960.0,0.0013400008901953697
1024.0,-0.00033428706228733063
1152.0,-0.002617450663819909
1280.0,-0.0026061036624014378
1408.0,-0.004441991914063692
1536.0,-0.0004887021495960653
1664.0,-0.00020640497677959502
1792.0,-0.002502573886886239
1920.0,-0.0023650594521313906
2048.0,-0.0009341780096292496
2304.0,0.0006965795182622969
2560.0,-0.0012659062631428242
2816.0,-0.0020148977637290955
3072.0,0.0012872596271336079
3328.0,0.0007601995603181422
3584.0,-0.002827596152201295
3840.0,-0.0003903843753505498
4096.0,0.0024834347423166037
4608.0,-0.001565009355545044
5120.0,0.0005869180313311517
5632.0,0.0021719706710428
6144.0,-0.0033707618713378906
6656.0,-0.0018058731220662594
7168.0,-0.0006009113858453929
7680.0,-0.001277205185033381
8192.0,0.0022873368579894304
9216.0,0.0015396465314552188
10240.0,-0.003193121636286378
11264.0,-0.000712804845534265
12288.0,0.0008078994578681886
13312.0,-9.566082007950172e-05
14336.0,0.0006191987195052207
end
