version,3.0
numOfCh,1
type,point
parent_name,8-cuts
ch_type,1_1
kcount,1
numberNandB,1
brightnessNandB,1
carpet pos,0
pc,0
Time (ms),CH1 Auto-Correlation
1.0,0.044187117367982864
2.0,0.0409637875854969
3.0,0.03822566196322441
4.0,0.0358622670173645
5.0,0.033662550151348114
6.0,0.03174436837434769
7.0,0.029991891235113144
8.0,0.028438106179237366
9.0,0.026964854449033737
10.0,0.025695303454995155
11.0,0.02468280680477619
12.0,0.02370508946478367
13.0,0.022924154996871948
14.0,0.022244900465011597
15.0,0.021607592701911926
16.0,0.020964356139302254
18.0,0.019808180630207062
20.0,0.018832607194781303
22.0,0.01800932176411152
24.0,0.01718076504766941
26.0,0.016385510563850403
28.0,0.01567424088716507
30.0,0.015106727369129658
32.0,0.014453855343163013
36.0,0.013494983315467834
40.0,0.012893866747617722
44.0,0.012813039124011993
48.0,0.012564998120069504
52.0,0.012012610211968422
56.0,0.011845853179693222
60.0,0.011748649179935455
64.0,0.011109939776360989
72.0,0.009524721652269363
80.0,0.007528982125222683
88.0,0.0064627076499164104
96.0,0.005684245843440294
104.0,0.0054350728169083595
112.0,0.0050085061229765415
120.0,0.003663335694000125
128.0,0.002562243491411209
144.0,0.0017719538882374763
160.0,0.0009514551493339241
176.0,-0.00016873101412784308
192.0,-0.0005082831485196948
208.0,-0.0014329267432913184
224.0,-0.0022512085270136595
240.0,-0.002381132449954748
256.0,-0.002292115706950426
288.0,-0.0013756677508354187
320.0,-0.0008664184715598822
352.0,-0.0004220592090860009
384.0,0.0015499404398724437
416.0,0.0018813564674928784
448.0,0.0010475331218913198
480.0,-0.0008058915263973176
512.0,-0.001226713415235281
576.0,-0.0009200528147630394
640.0,-0.0021462803706526756
704.0,3.3091739169321954e-05
768.0,0.0007908051484264433
832.0,-4.12917033827398e-05
896.0,-0.0010558590292930603
960.0,-0.001699810498394072
1024.0,-0.0006468396750278771
1152.0,-0.0002785820688586682
1280.0,9.666735422797501e-05
1408.0,0.0009738276130519807
1536.0,-0.000313865632051602
1664.0,-0.0010215644724667072
1792.0,0.0006505040219053626
1920.0,0.0012683377135545015
2048.0,-0.0004090830043423921
2304.0,-0.000994413741864264
2560.0,-0.0011093333596363664
2816.0,-0.0009517637081444263
3072.0,-0.0006090631359256804
3328.0,0.001305118203163147
3584.0,-0.0009581992635503411
3840.0,-0.0005090524791739881
4096.0,0.00043556542368605733
4608.0,-0.0005648024380207062
5120.0,0.001052518025971949
5632.0,-0.0023458877112716436
6144.0,0.00035713068791665137
6656.0,-0.00012001068535028026
7168.0,0.0022382696624845266
7680.0,-0.0006623766385018826
8192.0,0.0020548978354781866
9216.0,0.001047796686179936
10240.0,-0.0011683974880725145
11264.0,-0.00044959966908209026
12288.0,-0.0011103381402790546
13312.0,0.00020010326988995075
14336.0,0.0002208829391747713
end
