version,3.0
numOfCh,1
type,point
parent_name,8-cuts
ch_type,1_1
kcount,1
numberNandB,1
brightnessNandB,1
carpet pos,0
pc,0
Time (ms),CH1 Auto-Correlation
1.0,0.028252026066184044
2.0,0.02610907144844532
3.0,0.02427796646952629
4.0,0.02273504249751568
5.0,0.021395329385995865
6.0,0.020235886797308922
7.0,0.019189802929759026
8.0,0.01826096512377262
9.0,0.017468992620706558
10.0,0.016787495464086533
11.0,0.016194812953472137
12.0,0.0156111354008317
13.0,0.015082151629030704
14.0,0.014518838375806808
15.0,0.01401262916624546
16.0,0.013591633178293705
18.0,0.012800546362996101
20.0,0.011990766040980816
22.0,0.011264221742749214
24.0,0.01060411985963583
26.0,0.009963782504200935
28.0,0.009426549077033997
30.0,0.008877024985849857
32.0,0.008345968089997768
36.0,0.007280401885509491
40.0,0.006391307804733515
44.0,0.005749576725065708
48.0,0.0051835281774401665
52.0,0.004464068450033665
56.0,0.003623901167884469
60.0,0.0029841067735105753
64.0,0.0022406450007110834
72.0,0.0011105178855359554
80.0,0.0007915695896372199
88.0,0.000750607461668551
96.0,0.00035270085209049284
104.0,0.00048356156912632287
112.0,0.0006532073603011668
120.0,0.0007192933117039502
128.0,0.0011886872816830873
144.0,0.0014880623202770948
160.0,0.0019062396604567766
176.0,0.0024368655867874622
192.0,0.0019154505571350455
208.0,0.0011576609686017036
224.0,7.412373088300228e-05
240.0,2.5874260245473124e-05
256.0,0.00040042863111011684
288.0,0.0016904722433537245
320.0,0.0018308620201423764
352.0,0.001664815004914999
384.0,0.0011089069303125143
416.0,-0.00031477349693886936
448.0,-0.0007637340459041297
480.0,-0.0006730059976689517
512.0,0.00010437749733682722
576.0,-0.0006184331723488867
640.0,-0.00036375303170643747
704.0,-0.0006339115207083523
768.0,-0.0012611798010766506
832.0,-0.0013094100868329406
896.0,-0.0011037131771445274
960.0,-0.0011246487265452743
1024.0,0.0013649305328726768
1152.0,0.00040125579107552767
1280.0,-0.00014350937271956354
1408.0,0.00037279853131622076
1536.0,-0.0002065958542516455
1664.0,0.0008470502798445523
1792.0,-0.00023118585522752255
1920.0,0.0002896751102525741
2048.0,-0.0002943419967778027
2304.0,-0.00047089977306313813
2560.0,-0.00038325213245116174
2816.0,-0.0002167185884900391
3072.0,0.0004415876173879951
3328.0,0.001027091289870441
3584.0,0.001239248551428318
3840.0,0.0006456878618337214
4096.0,-0.0006205321988090873
4608.0,-0.0004257356922607869
5120.0,-3.562772326404229e-05
5632.0,-0.00043124431977048516
6144.0,-0.0001496635959483683
6656.0,-0.00015828564937692136
7168.0,0.0012165145017206669
7680.0,-0.0015705403639003634
8192.0,-0.0005624689511023462
9216.0,-0.001423559384420514
10240.0,0.00014364828530233353
11264.0,-0.0005897515220567584
12288.0,-0.00018868493498302996
13312.0,0.00032169459154829383
14336.0,0.0003279095108155161
end
