version,3.0
numOfCh,1
type,point
parent_name,8-cuts
ch_type,1_1
kcount,1
numberNandB,1
brightnessNandB,1
carpet pos,0
pc,0
Time (ms),CH1 Auto-Correlation
1.0,0.02745182067155838
2.0,0.02529437653720379
3.0,0.02349446713924408
4.0,0.021965794265270233
5.0,0.020602799952030182
6.0,0.01932002604007721
7.0,0.01809738390147686
8.0,0.017045222222805023
9.0,0.01611175574362278
10.0,0.015261565335094929
11.0,0.014554178342223167
12.0,0.013857819139957428
13.0,0.013194534927606583
14.0,0.012551628984510899
15.0,0.01195734366774559
16.0,0.011425512842833996
18.0,0.010433290153741837
20.0,0.009488633833825588
22.0,0.008672710508108139
24.0,0.007940029725432396
26.0,0.007305638864636421
28.0,0.006692742928862572
30.0,0.006150278728455305
32.0,0.005594177171587944
36.0,0.004807816352695227
40.0,0.004267530515789986
44.0,0.0037021886091679335
48.0,0.003207333153113723
52.0,0.002726832404732704
56.0,0.002455298323184252
60.0,0.002266620984300971
64.0,0.0019176739733666182
72.0,0.001520049525424838
80.0,0.0014398656785488129
88.0,0.001464316388592124
96.0,0.0014295877190306783
104.0,0.0013007998932152987
112.0,0.00048802775563672185
120.0,8.560370770283043e-05
128.0,0.0003350078477524221
144.0,-0.00044416499440558255
160.0,-0.0008954958757385612
176.0,-0.0006123055936768651
192.0,-0.00025120744248852134
208.0,-0.000748874619603157
224.0,-0.00011004647240042686
240.0,0.00036239149631001055
256.0,0.00013839462189935148
288.0,0.00025491853011772037
320.0,-0.0004892435972578824
352.0,-0.001060883398167789
384.0,-0.001272857072763145
416.0,-0.0015759625239297748
448.0,-0.0014941036934033036
480.0,-0.000606273883022368
512.0,-0.0007744794129393995
576.0,-0.0006495643174275756
640.0,-0.0009567238739691675
704.0,0.0002951986389234662
768.0,0.0004964470281265676
832.0,0.0012291072634980083
896.0,0.00119608489330858
960.0,0.00032221866422332823
1024.0,-0.00033450699993409216
1152.0,-0.00039386108983308077
1280.0,-0.00032158481189981103
1408.0,-0.0002464903227519244
1536.0,-0.0006049072835594416
1664.0,-0.0007547492277808487
1792.0,-0.0005182887543924153
1920.0,0.0006981725455261767
2048.0,0.0013062215875834227
2304.0,3.1750609196024016e-05
2560.0,-0.00020094089268241078
2816.0,0.00013157480861991644
3072.0,-2.6402492494526086e-06
3328.0,0.00016465174849145114
3584.0,0.0007509476272389293
3840.0,-0.0012480461737141013
4096.0,-0.00043999464833177626
4608.0,-0.00015045034524518996
5120.0,0.00020376432803459466
5632.0,-1.1316257769067306e-05
6144.0,-0.0004822471528314054
6656.0,-4.796876964974217e-05
7168.0,0.0003684846160467714
7680.0,-0.0004615781654138118
8192.0,0.00025939804618246853
9216.0,-0.00016686624439898878
10240.0,-1.7366328393109143e-05
11264.0,-0.00045362187665887177
12288.0,0.00014575185196008533
13312.0,0.00018089936929754913
14336.0,-0.00032743081101216376
end
