version,3.0
numOfCh,1
type,point
parent_name,8-cuts
ch_type,1_1
kcount,1
numberNandB,1
brightnessNandB,1
carpet pos,0
pc,0
Time (ms),CH1 Auto-Correlation
1.0,0.08954841643571854
2.0,0.08268927037715912
3.0,0.07677703350782394
4.0,0.07183415442705154
5.0,0.06746986508369446
6.0,0.0634983628988266
7.0,0.060014959424734116
8.0,0.05686540901660919
9.0,0.054168667644262314
10.0,0.05168332904577255
11.0,0.049513425678014755
12.0,0.04755363613367081
13.0,0.04557380825281143
14.0,0.04340524598956108
15.0,0.0413048192858696
16.0,0.039328671991825104
18.0,0.0358876995742321
20.0,0.0329851359128952
22.0,0.030475087463855743
24.0,0.02821633778512478
26.0,0.026114998385310173
28.0,0.02413511835038662
30.0,0.022407488897442818
32.0,0.021091952919960022
36.0,0.019920947030186653
40.0,0.01878299005329609
44.0,0.01795016974210739
48.0,0.017200132831931114
52.0,0.01539631001651287
56.0,0.013703500851988792
60.0,0.012547388672828674
64.0,0.011253305710852146
72.0,0.008803227916359901
80.0,0.0064748418517410755
88.0,0.0036755776964128017
96.0,0.0029913398902863264
104.0,0.0035046779084950686
112.0,0.0043245707638561726
120.0,0.004819801542907953
128.0,0.0048918030224740505
144.0,0.0012182679492980242
160.0,-0.0009608077816665173
176.0,-0.0006096868310123682
192.0,-0.0017931344918906689
208.0,-0.002614924916997552
224.0,-0.002892695367336273
240.0,-0.0037165735848248005
256.0,-0.0031422567553818226
288.0,-0.0010776945855468512
320.0,0.0027954436372965574
352.0,-0.0008744668448343873
384.0,-0.0027444397564977407
416.0,-0.002224892610684037
448.0,0.0013074182206764817
480.0,0.003289315849542618
512.0,0.0012936737621203065
576.0,-0.0013412880944088101
640.0,-0.0006058606668375432
704.0,-0.004675083793699741
768.0,-0.0031558626797050238
832.0,-0.00034170865546911955
896.0,0.003290176624432206
960.0,0.0015623579965904355
1024.0,-0.0020767473615705967
1152.0,0.002562234876677394
1280.0,0.0027115335687994957
1408.0,-0.0021461115684360266
1536.0,0.003819024423137307
1664.0,-0.001919540693052113
1792.0,0.00016806907660793513
1920.0,0.003951841965317726
2048.0,0.0010959961218759418
2304.0,0.0008087005699053407
2560.0,-0.002994523849338293
2816.0,0.001563051133416593
3072.0,-0.00030810252064839005
3328.0,0.0009610005072318017
3584.0,0.0016435825964435935
3840.0,-0.0014239584561437368
4096.0,0.0008379232021979988
4608.0,-0.00320016429759562
5120.0,-0.0007084622047841549
5632.0,0.001778112375177443
6144.0,0.00041409756522625685
6656.0,-0.002885216847062111
7168.0,-0.0008170746732503176
7680.0,-7.587781146867201e-05
8192.0,-0.002858467400074005
9216.0,-0.00011847998393932357
10240.0,-0.0017527204472571611
11264.0,0.0011556119425222278
12288.0,0.0025912593118846416
13312.0,0.0003778204263653606
14336.0,-0.002948280656710267
end
