version,3.0
numOfCh,1
type,point
parent_name,8-cuts
ch_type,1_1
kcount,1
numberNandB,1
brightnessNandB,1
carpet pos,0
pc,0
Time (ms),CH1 Auto-Correlation
1.0,0.0843132883310318
2.0,0.07753971219062805
3.0,0.07151719182729721
4.0,0.06644469499588013
5.0,0.061812762171030045
6.0,0.058031581342220306
7.0,0.05465882271528244
8.0,0.051644522696733475
9.0,0.04891211539506912
10.0,0.04644609987735748
11.0,0.044122789055109024
12.0,0.0420960895717144
13.0,0.04014908894896507
14.0,0.0383196584880352
15.0,0.0365021787583828
16.0,0.03478504717350006
18.0,0.03164026141166687
20.0,0.029167059808969498
22.0,0.02739032730460167
24.0,0.02581341192126274
26.0,0.02410898171365261
28.0,0.022654572501778603
30.0,0.021298686042428017
32.0,0.019866548478603363
36.0,0.01841302216053009
40.0,0.01673501543700695
44.0,0.014721881598234177
48.0,0.013794006779789925
52.0,0.013162794522941113
56.0,0.012679889798164368
60.0,0.011677504517138004
64.0,0.010421942919492722
72.0,0.009269279427826405
80.0,0.0075457291677594185
88.0,0.007155601400882006
96.0,0.007333936635404825
104.0,0.006872520316392183
112.0,0.00718935439363122
120.0,0.00860445573925972
128.0,0.009057309478521347
144.0,0.0052852691151201725
160.0,1.3644897990161553e-05
176.0,-0.0008097871323116124
192.0,0.0002526774478610605
208.0,0.0011366978287696838
224.0,0.0011863622348755598
240.0,0.0035589260514825583
256.0,0.003094768151640892
288.0,0.002777265850454569
320.0,0.003966771997511387
352.0,0.003751373151317239
384.0,0.0033018405083566904
416.0,0.004728624131530523
448.0,0.007500749547034502
480.0,0.005135762970894575
512.0,0.0038677765987813473
576.0,0.002500317059457302
640.0,0.0006611579447053373
704.0,0.0005004409467801452
768.0,-0.0008214741828851402
832.0,0.0006742061814293265
896.0,0.00017517940432298928
960.0,0.0019275890663266182
1024.0,-0.004039195831865072
1152.0,0.00024528303765691817
1280.0,0.0018746750429272652
1408.0,-0.0006732259062118828
1536.0,-0.0049200598150491714
1664.0,-0.002103320322930813
1792.0,0.0001615317742107436
1920.0,-0.0042543536983430386
2048.0,-0.004077461548149586
2304.0,-0.000896430283319205
2560.0,-0.0007591463509015739
2816.0,-0.004646789748221636
3072.0,-0.0009924951009452343
3328.0,0.0021064335014671087
3584.0,0.0019130808068439364
3840.0,0.0018660923233255744
4096.0,0.0011889924062415957
4608.0,-0.0006694658659398556
5120.0,-0.003841186175122857
5632.0,-0.004301203414797783
6144.0,-0.002532800193876028
6656.0,-0.000625752261839807
7168.0,0.0009531609248369932
7680.0,0.0040754699148237705
8192.0,0.005681327078491449
9216.0,0.0004796476860065013
10240.0,-0.0008635986596345901
11264.0,0.0007263081497512758
12288.0,-0.0006265375996008515
13312.0,-0.0024775052443146706
14336.0,-0.0022185679990798235
end
