version,3.0
numOfCh,1
type,point
parent_name,8-cuts
ch_type,1_1
kcount,1
numberNandB,1
brightnessNandB,1
carpet pos,0
pc,0
Time (ms),CH1 Auto-Correlation
1.0,0.027459945529699326
2.0,0.02530026249587536
3.0,0.023397177457809448
4.0,0.021743841469287872
5.0,0.020266255363821983
6.0,0.018946625292301178
7.0,0.017784222960472107
8.0,0.01676156558096409
9.0,0.015795452520251274
10.0,0.015020550228655338
11.0,0.014289185404777527
12.0,0.013597842305898666
13.0,0.013004741631448269
14.0,0.01240603905171156
15.0,0.0118806641548872
16.0,0.011306259781122208
18.0,0.010290884412825108
20.0,0.00959165021777153
22.0,0.008949073031544685
24.0,0.008258530870079994
26.0,0.007606377359479666
28.0,0.007134304381906986
30.0,0.0067099519073963165
32.0,0.006356390658766031
36.0,0.005681089125573635
40.0,0.005024473648518324
44.0,0.004444208461791277
48.0,0.003979419823735952
52.0,0.00366210681386292
56.0,0.00336885591968894
60.0,0.0030638447497040033
64.0,0.002984353108331561
72.0,0.0028042709454894066
80.0,0.002181817777454853
88.0,0.0019723358564078808
96.0,0.0020210822112858295
104.0,0.002220658352598548
112.0,0.0020973451901227236
120.0,0.0019025629153475165
128.0,0.0016830996610224247
144.0,0.0017033710610121489
160.0,0.0018615841399878263
176.0,0.0017653551185503602
192.0,0.0011455261847004294
208.0,0.00017394319002050906
224.0,0.000526600400917232
240.0,0.0015019718557596207
256.0,0.0015184677904471755
288.0,0.0014067599549889565
320.0,0.0012983744964003563
352.0,0.0009116115397773683
384.0,-0.000355463067535311
416.0,-0.0003416974504943937
448.0,-0.000754272099584341
480.0,-0.001631479011848569
512.0,-0.0018064879113808274
576.0,-0.0016781094018369913
640.0,-0.0014533536741510034
704.0,-0.0004694824747275561
768.0,-0.00031892870902083814
832.0,-0.0004955856129527092
896.0,-0.00045481743291020393
960.0,-0.0012248398270457983
1024.0,-0.0005554173258133233
1152.0,0.00017551466589793563
1280.0,0.00044034546590410173
1408.0,0.0009119136375375092
1536.0,0.001588553423061967
1664.0,0.0005707175587303936
1792.0,-0.0003512240364216268
1920.0,-0.0003094674611929804
2048.0,-0.001031573279760778
2304.0,9.314627823187038e-05
2560.0,-0.0009236520272679627
2816.0,-0.0009859469719231129
3072.0,0.0001380009634885937
3328.0,0.0009379684343002737
3584.0,0.00048718106700107455
3840.0,0.0004948375280946493
4096.0,-0.0004780069866683334
4608.0,-0.0003006874758284539
5120.0,0.00023874723410699517
5632.0,-0.0006917461869306862
6144.0,-0.0007828870438970625
6656.0,0.0005576618132181466
7168.0,-0.0010494842426851392
7680.0,0.001618076697923243
8192.0,0.0005848733708262444
9216.0,0.0005745238158851862
10240.0,-0.000308620830764994
11264.0,0.0006516748107969761
12288.0,-0.0008957134559750557
13312.0,-0.0005806049448437989
14336.0,-0.0017010527662932873
end
