version,3.0
numOfCh,1
type,point
parent_name,8-cuts
ch_type,1_1
kcount,1
numberNandB,1
brightnessNandB,1
carpet pos,0
pc,0
Time (ms),CH1 Auto-Correlation
1.0,0.08797135949134827
2.0,0.08113186806440353
3.0,0.07540886849164963
4.0,0.07051224261522293
5.0,0.06623850017786026
6.0,0.062477655708789825
7.0,0.05918361246585846
8.0,0.056263960897922516
9.0,0.053443118929862976
10.0,0.05085548013448715
11.0,0.04851406812667847
12.0,0.046350929886102676
13.0,0.044163063168525696
14.0,0.04235374927520752
15.0,0.04086768999695778
16.0,0.03930872678756714
18.0,0.03674522414803505
20.0,0.03452802821993828
22.0,0.032550912350416183
24.0,0.03085913695394993
26.0,0.029009584337472916
28.0,0.02711397223174572
30.0,0.02530747838318348
32.0,0.023776408284902573
36.0,0.02137135900557041
40.0,0.01979542337357998
44.0,0.01827281154692173
48.0,0.016863012686371803
52.0,0.016100047156214714
56.0,0.014797359704971313
60.0,0.013406110927462578
64.0,0.01181110367178917
72.0,0.010844473727047443
80.0,0.009673808701336384
88.0,0.008907433599233627
96.0,0.006933482363820076
104.0,0.004553350619971752
112.0,0.003309152089059353
120.0,0.0030529119540005922
128.0,0.004074315540492535
144.0,0.005081719718873501
160.0,0.0034706760197877884
176.0,0.0008721536141820252
192.0,-0.0014236316783353686
208.0,-0.0024673130828887224
224.0,-0.0023537250235676765
240.0,-0.0001646713790250942
256.0,-0.0016322368755936623
288.0,-0.0022450885735452175
320.0,-0.0029660880099982023
352.0,-0.0033056791871786118
384.0,-0.0023238523863255978
416.0,-0.0023204993922263384
448.0,-0.002247539348900318
480.0,-0.004315131343901157
512.0,-0.0006127911619842052
576.0,0.0030750269070267677
640.0,0.0021067694760859013
704.0,-0.0013081419747322798
768.0,-0.0008128300542011857
832.0,0.004293876234441996
896.0,0.0024158041924238205
960.0,0.0021241039503365755
1024.0,0.002242299262434244
1152.0,-0.002385213039815426
1280.0,-0.0028277779929339886
1408.0,0.00018273945897817612
1536.0,0.0006669957656413317
1664.0,0.00021615842706523836
1792.0,0.0009829024784266949
1920.0,0.00011882613034686074
2048.0,-0.004593038000166416
2304.0,-0.003474863711744547
2560.0,-0.004147801082581282
2816.0,0.00012476938718464226
3072.0,0.0007167813600972295
3328.0,9.428787598153576e-05
3584.0,-0.002978494856506586
3840.0,-0.0026899019721895456
4096.0,-0.0021004690788686275
4608.0,-0.0017049387097358704
5120.0,0.0020669985096901655
5632.0,-0.0005678843590430915
6144.0,0.003403690177947283
6656.0,0.0015016495017334819
7168.0,-0.0007176492945291102
7680.0,0.002676744479686022
8192.0,0.00014050515892449766
9216.0,-0.0012504920596256852
10240.0,-0.0011240483727306128
11264.0,0.00036391307367011905
12288.0,0.0007536486373282969
13312.0,-8.291494305012748e-05
14336.0,0.00011002086830558255
end
