version,3.0
numOfCh,1
type,point
parent_name,8-cuts
ch_type,1_1
kcount,1
numberNandB,1
brightnessNandB,1
carpet pos,0
pc,0
Time (ms),CH1 Auto-Correlation
1.0,0.03570392727851868
2.0,0.032525599002838135
3.0,0.029748575761914253
4.0,0.027207637205719948
5.0,0.025025438517332077
6.0,0.023090297356247902
7.0,0.021409865468740463
8.0,0.019942905753850937
9.0,0.01859574392437935
10.0,0.017370382323861122
11.0,0.01622142270207405
12.0,0.015306098386645317
13.0,0.014560219831764698
14.0,0.01383357122540474
15.0,0.013199004344642162
16.0,0.012628362514078617
18.0,0.011760354042053223
20.0,0.01116897352039814
22.0,0.0105443699285388
24.0,0.009861755184829235
26.0,0.00913997832685709
28.0,0.008504413068294525
30.0,0.007915019989013672
32.0,0.007270234636962414
36.0,0.006151970941573381
40.0,0.005215643905103207
44.0,0.004672604613006115
48.0,0.00440572202205658
52.0,0.004125537816435099
56.0,0.003798674326390028
60.0,0.0033647737000137568
64.0,0.0030107684433460236
72.0,0.0028360344003885984
80.0,0.0027456157840788364
88.0,0.0019144484540447593
96.0,0.001388771808706224
104.0,0.0005965819000266492
112.0,0.00033694584271870553
120.0,0.000809787365142256
128.0,0.001287749852053821
144.0,0.0007978616049513221
160.0,0.0008959984988905489
176.0,-8.487566810799763e-05
192.0,-0.0021448282059282064
208.0,-0.001158483442850411
224.0,-0.0016291334759443998
240.0,-0.0014445290435105562
256.0,-0.0008573108934797347
288.0,-0.00020469617447815835
320.0,0.00048780080396682024
352.0,0.00019125558901578188
384.0,0.0001833559654187411
416.0,0.00011904603888979182
448.0,0.0007809369708411396
480.0,0.0009447966003790498
512.0,-0.00024656084133312106
576.0,-0.0006006818148307502
640.0,-0.0010133677860721946
704.0,-0.0005537853576242924
768.0,0.0009507784270681441
832.0,0.0015580977778881788
896.0,0.001237807678990066
960.0,0.0019814225379377604
1024.0,-0.0004136997158639133
1152.0,-0.001178559148684144
1280.0,-0.00016684396541677415
1408.0,-0.00016384810442104936
1536.0,-0.0005563117447309196
1664.0,0.0008473622729070485
1792.0,-0.00016217087977565825
1920.0,-0.000554905622266233
2048.0,-0.0017400901997461915
2304.0,0.0004899977357126772
2560.0,0.0002064233849523589
2816.0,-0.0005059874965809286
3072.0,-0.0005376983899623156
3328.0,0.0009461200097575784
3584.0,-7.416955668304581e-06
3840.0,-0.0006621961947530508
4096.0,8.41839355416596e-05
4608.0,0.00010070267308037728
5120.0,0.0003695302293635905
5632.0,-0.0006314531783573329
6144.0,8.418235665885732e-06
6656.0,2.081374441331718e-05
7168.0,-0.0005008860025554895
7680.0,-0.0005999988061375916
8192.0,-0.0004243912408128381
9216.0,-0.00015086527855601162
10240.0,0.0002252712583867833
11264.0,0.0002998265263158828
12288.0,-0.000739753246307373
13312.0,-0.0007304089958779514
14336.0,0.0016648366581648588
end
