version,3.0
numOfCh,1
type,point
parent_name,8-cuts
ch_type,1_1
kcount,1
numberNandB,1
brightnessNandB,1
carpet pos,0
pc,0
Time (ms),CH1 Auto-Correlation
1.0,0.04005751758813858
2.0,0.03676477447152138
3.0,0.03399617597460747
4.0,0.03150244057178497
5.0,0.029392655938863754
6.0,0.027586789801716805
7.0,0.026067771017551422
8.0,0.024718863889575005
9.0,0.023513782769441605
10.0,0.022329630330204964
11.0,0.021183602511882782
12.0,0.020096411928534508
13.0,0.01906903274357319
14.0,0.018161559477448463
15.0,0.017301209270954132
16.0,0.01652638614177704
18.0,0.015251624397933483
20.0,0.014030533842742443
22.0,0.012996100820600986
24.0,0.011989055201411247
26.0,0.011022256687283516
28.0,0.010073130019009113
30.0,0.009437152184545994
32.0,0.008762153796851635
36.0,0.00780412508174777
40.0,0.007007762789726257
44.0,0.006326036527752876
48.0,0.005747167393565178
52.0,0.00501072034239769
56.0,0.004591132514178753
60.0,0.004235516767948866
64.0,0.0037562220823019743
72.0,0.0030505890026688576
80.0,0.002427687169983983
88.0,0.002408170374110341
96.0,0.0025733481161296368
104.0,0.002425167243927717
112.0,0.0019163412507623434
120.0,0.0013828460359945893
128.0,0.0008636873681098223
144.0,0.0006316967774182558
160.0,0.00024375195789616555
176.0,-0.00018851170898415148
192.0,-2.5365718556713546e-06
208.0,0.00011415834887884557
224.0,0.00022345856996253133
240.0,0.0005279044853523374
256.0,-0.0007885132217779756
288.0,-0.0011581225553527474
320.0,-0.0009208761621266603
352.0,-0.0002850156743079424
384.0,-0.0006196619942784309
416.0,-0.000688185915350914
448.0,-0.0006713850307278335
480.0,-1.6774934920249507e-05
512.0,0.0003832952061202377
576.0,-0.0002255179570056498
640.0,-0.0010318842250853777
704.0,-0.0010666989255696535
768.0,-0.00011016635835403576
832.0,0.0002843775728251785
896.0,-0.0006944640772417188
960.0,5.8818266552407295e-05
1024.0,0.0016774816904217005
1152.0,0.0008560288697481155
1280.0,0.0009416791726835072
1408.0,-0.0005021741962991655
1536.0,-0.001542970770969987
1664.0,-0.0010673205833882093
1792.0,-0.0009617263567633927
1920.0,0.0008703576168045402
2048.0,-0.0013645230792462826
2304.0,0.0016651640180498362
2560.0,-0.0014048846205696464
2816.0,-0.0016636879881843925
3072.0,-0.0015366340521723032
3328.0,5.454641723190434e-05
3584.0,0.0005623148172162473
3840.0,-0.0016329784411936998
4096.0,-0.00011294048454146832
4608.0,0.0009217785554938018
5120.0,0.0008014036575332284
5632.0,0.00039690511766821146
6144.0,-0.0005557342665269971
6656.0,0.0007432568818330765
7168.0,-0.000619032303802669
7680.0,-0.0009893419919535518
8192.0,-0.0007710684440098703
9216.0,0.000498331559356302
10240.0,0.0006049246294423938
11264.0,0.0005804708926007152
12288.0,-0.0006783030112273991
13312.0,0.0008652187534607947
14336.0,-0.0017355772433802485
end
