version,3.0
numOfCh,1
type,point
parent_name,8-cuts
ch_type,1_1
kcount,1
numberNandB,1
brightnessNandB,1
carpet pos,0
pc,0
Time (ms),CH1 Auto-Correlation
1.0,0.04228828847408295
2.0,0.03913451358675957
3.0,0.036513350903987885
4.0,0.034209851175546646
5.0,0.032130442559719086
6.0,0.030207136645913124
7.0,0.028524406254291534
8.0,0.02694465033710003
9.0,0.02558278664946556
10.0,0.024296851828694344
11.0,0.023224374279379845
12.0,0.02226189710199833
13.0,0.021398646757006645
14.0,0.02061348222196102
15.0,0.0198407880961895
16.0,0.019080588594079018
18.0,0.017866259440779686
20.0,0.016762351617217064
22.0,0.01586831361055374
24.0,0.015093752183020115
26.0,0.014383448287844658
28.0,0.013560889288783073
30.0,0.012848327867686749
32.0,0.012208163738250732
36.0,0.011041095480322838
40.0,0.009803889319300652
44.0,0.008804790675640106
48.0,0.008057862520217896
52.0,0.007466411683708429
56.0,0.006802032236009836
60.0,0.006200709380209446
64.0,0.005866906605660915
72.0,0.005412830971181393
80.0,0.005029730964452028
88.0,0.0038221944123506546
96.0,0.0025512645952403545
104.0,0.002308767521753907
112.0,0.002455697860568762
120.0,0.0015702369855716825
128.0,0.0006343050044961274
144.0,-0.0004883361980319023
160.0,-0.0008570122881792486
176.0,-0.0007523963577114046
192.0,-0.0009721406968310475
208.0,-0.0003109582175966352
224.0,-0.0005515694501809776
240.0,-1.9419880118221045e-05
256.0,0.0002165993064409122
288.0,-0.0010901637142524123
320.0,-0.0019994794856756926
352.0,-0.001185311353765428
384.0,-0.001586470054462552
416.0,-0.001957425381988287
448.0,-0.0012370317708700895
480.0,-0.0011436479398980737
512.0,-0.0012958438601344824
576.0,-0.0018932393286377192
640.0,-0.0007501255604438484
704.0,0.0004953325260430574
768.0,-0.00022553357121068984
832.0,-0.0007500090287066996
896.0,-0.003030642867088318
960.0,-0.0026720960158854723
1024.0,-0.0018901400035247207
1152.0,-0.00038292506360448897
1280.0,0.0007584721315652132
1408.0,0.00018547895888332278
1536.0,-0.0020659721922129393
1664.0,0.0006196739850565791
1792.0,0.0008890205645002425
1920.0,-0.0002715584705583751
2048.0,0.0019453279674053192
2304.0,-2.9522630939027295e-05
2560.0,-0.0016061682254076004
2816.0,-2.284727270307485e-05
3072.0,0.0012134964345023036
3328.0,0.00021417198877315968
3584.0,0.00022903703211341053
3840.0,-0.0030239801853895187
4096.0,0.00048110182979144156
4608.0,-0.0002968066546600312
5120.0,0.0006508637452498078
5632.0,0.00018508276843931526
6144.0,-0.00040076853474602103
6656.0,-0.0004015114682260901
7168.0,0.0008356060134246945
7680.0,0.00018060208822134882
8192.0,-0.001211816444993019
9216.0,-0.0004826841759495437
10240.0,0.0006870562792755663
11264.0,-0.0010340324370190501
12288.0,0.0014195031253620982
13312.0,0.00010758494317997247
14336.0,9.473861427977681e-05
end
