version,3.0
numOfCh,1
type,point
parent_name,8-cuts
ch_type,1_1
kcount,1
numberNandB,1
brightnessNandB,1
carpet pos,0
pc,0
Time (ms),CH1 Auto-Correlation
1.0,0.041486095637083054
2.0,0.03812040761113167
3.0,0.03522303327918053
4.0,0.032693151384592056
5.0,0.030485032126307487
6.0,0.028547566384077072
7.0,0.026907050982117653
8.0,0.02532109245657921
9.0,0.02383721061050892
10.0,0.022424709051847458
11.0,0.021180449053645134
12.0,0.020002927631139755
13.0,0.0188461747020483
14.0,0.017941303551197052
15.0,0.017032958567142487
16.0,0.016280395910143852
18.0,0.015065968036651611
20.0,0.013871855102479458
22.0,0.012704912573099136
24.0,0.011657544411718845
26.0,0.010959264822304249
28.0,0.010274921543896198
30.0,0.009519127197563648
32.0,0.00868538860231638
36.0,0.007529912982136011
40.0,0.0065442463383078575
44.0,0.005243469029664993
48.0,0.004400361329317093
52.0,0.0033756692428141832
56.0,0.0029925962444394827
60.0,0.002822858514264226
64.0,0.002757468493655324
72.0,0.002316928468644619
80.0,0.002013975055888295
88.0,0.0020651991944760084
96.0,0.0027727577835321426
104.0,0.0035039198119193316
112.0,0.0033796378411352634
120.0,0.0027222856879234314
128.0,0.003024607663974166
144.0,0.003190389834344387
160.0,0.0020736935548484325
176.0,0.0018961982568725944
192.0,0.001884925994090736
208.0,0.0014928732998669147
224.0,0.0007023334037512541
240.0,0.0014068339951336384
256.0,-0.00037126103416085243
288.0,-0.00210263067856431
320.0,-0.0009385610464960337
352.0,-0.0003428145428188145
384.0,0.00016922409122344106
416.0,-0.0005031792679801583
448.0,-1.854812217061408e-05
480.0,0.00026357604656368494
512.0,-5.8822693972615525e-05
576.0,0.0011503595160320401
640.0,0.0013535673497244716
704.0,0.001949866535142064
768.0,-0.0005108614568598568
832.0,-0.0009833582444116473
896.0,-8.595237886765972e-06
960.0,-0.0002755388559307903
1024.0,0.0001336755813099444
1152.0,-0.00034216640051454306
1280.0,0.0002284724178025499
1408.0,4.605677986546652e-06
1536.0,-0.0006345431320369244
1664.0,-0.00044988683657720685
1792.0,0.0009909354848787189
1920.0,0.0008378896163776517
2048.0,0.0017150524072349072
2304.0,-0.0004281404544599354
2560.0,-0.0004841377376578748
2816.0,0.0002368838177062571
3072.0,-0.0002065775915980339
3328.0,-0.0004997665528208017
3584.0,0.00033328859717585146
3840.0,0.00067803735146299
4096.0,0.0004514588217716664
4608.0,-0.0006130565307103097
5120.0,-0.0008851184975355864
5632.0,0.00016306609904859215
6144.0,-0.0015016479883342981
6656.0,0.00018670728604774922
7168.0,0.0007001395570114255
7680.0,-9.800923726288602e-05
8192.0,-0.00015655408788006753
9216.0,-0.00025378598365932703
10240.0,-0.0006913969409652054
11264.0,-0.0003443859750404954
12288.0,-0.000562637927941978
13312.0,-0.0009429783094674349
14336.0,-0.0017198320711031556
end
