version,3.0
numOfCh,1
type,point
parent_name,8-cuts
ch_type,1_1
kcount,1
numberNandB,1
brightnessNandB,1
carpet pos,0
pc,0
Time (ms),CH1 Auto-Correlation
1.0,0.04045942798256874
2.0,0.037150267511606216
3.0,0.03430640324950218
4.0,0.03184746578335762
5.0,0.029696403071284294
6.0,0.02775733731687069
7.0,0.025911973789334297
8.0,0.024275267496705055
9.0,0.022819936275482178
10.0,0.02152511663734913
11.0,0.020307747647166252
12.0,0.01925022155046463
13.0,0.018246253952383995
14.0,0.017315449193120003
15.0,0.016467515379190445
16.0,0.01571200042963028
18.0,0.014446745626628399
20.0,0.013332611881196499
22.0,0.012505298480391502
24.0,0.011754052713513374
26.0,0.011169029399752617
28.0,0.01067302841693163
30.0,0.010187303647398949
32.0,0.00987269263714552
36.0,0.008684232831001282
40.0,0.007520303595811129
44.0,0.006770174950361252
48.0,0.006318795960396528
52.0,0.005803185049444437
56.0,0.005382469389587641
60.0,0.004980361554771662
64.0,0.004640082363039255
72.0,0.0047505940310657024
80.0,0.004642578307539225
88.0,0.004566963762044907
96.0,0.003763863118365407
104.0,0.0029439220670610666
112.0,0.0025845516938716173
120.0,0.002408397849649191
128.0,0.002087450586259365
144.0,0.002265295712277293
160.0,0.0017009724397212267
176.0,0.0007211763877421618
192.0,0.00018365509458817542
208.0,-0.0002134020032826811
224.0,-0.0015239056665450335
240.0,-0.0014190878719091415
256.0,-0.00022530356363859028
288.0,-0.00019397462892811745
320.0,-0.0017095861257985234
352.0,-0.0004775254928972572
384.0,-0.0016787598142400384
416.0,-0.0024481152649968863
448.0,-0.002131815068423748
480.0,-0.0020690844394266605
512.0,-0.0024772430770099163
576.0,-0.0035172661300748587
640.0,-0.001845592982135713
704.0,-0.0004490890132728964
768.0,-0.0005632453830912709
832.0,-1.7909174857777543e-05
896.0,0.0009744003182277083
960.0,-0.0007411067490465939
1024.0,-0.0003244099498260766
1152.0,0.0008711834088899195
1280.0,-0.00012259239156264812
1408.0,-0.00026750663528218865
1536.0,0.0009072530083358288
1664.0,-0.0017933744238689542
1792.0,-0.0008734514121897519
1920.0,-0.00036993235698901117
2048.0,0.00023272524413187057
2304.0,-2.4212578864535317e-05
2560.0,0.00036435804213397205
2816.0,0.0009268941357731819
3072.0,-0.0013949896674603224
3328.0,-0.0004918382037431002
3584.0,0.0005595628172159195
3840.0,0.0007246579043567181
4096.0,-0.0006361025152727962
4608.0,0.0001514226896688342
5120.0,-0.0004490403225645423
5632.0,0.0006183681543916464
6144.0,0.0008181915036402643
6656.0,-0.0008851931197568774
7168.0,0.00044495228212326765
7680.0,-0.0015624305233359337
8192.0,0.0016530335415154696
9216.0,0.00018745545821730047
10240.0,-0.0005496877711266279
11264.0,5.6609689636388794e-05
12288.0,0.00017253865371458232
13312.0,-0.0004646458546631038
14336.0,0.00030088427593000233
end
