version,3.0
numOfCh,1
type,point
parent_name,8-cuts
ch_type,1_1
kcount,1
numberNandB,1
brightnessNandB,1
carpet pos,0
pc,0
Time (ms),CH1 Auto-Correlation
1.0,0.04181594401597977
2.0,0.038579411804676056
3.0,0.03576430305838585
4.0,0.03335702046751976
5.0,0.03122100792825222
6.0,0.02926502376794815
7.0,0.027464210987091064
8.0,0.025823231786489487
9.0,0.024455847218632698
10.0,0.023289043456315994
11.0,0.022212421521544456
12.0,0.02125527709722519
13.0,0.020473122596740723
14.0,0.019662119448184967
15.0,0.018899178132414818
16.0,0.018168669193983078
18.0,0.01705961488187313
20.0,0.016062019392848015
22.0,0.015042007900774479
24.0,0.014154135249555111
26.0,0.013250919058918953
28.0,0.012352733872830868
30.0,0.01161902491003275
32.0,0.010995657183229923
36.0,0.009833533316850662
40.0,0.008952672593295574
44.0,0.008275045081973076
48.0,0.00796210765838623
52.0,0.007615414913743734
56.0,0.007031588815152645
60.0,0.006017616949975491
64.0,0.005393246654421091
72.0,0.004809326957911253
80.0,0.003808089066296816
88.0,0.002707059495151043
96.0,0.0019563809037208557
104.0,0.001664361683651805
112.0,0.0012077197898179293
120.0,0.0010905037634074688
128.0,0.001135772094130516
144.0,0.0007287158514373004
160.0,9.816087549552321e-05
176.0,-0.00019607690046541393
192.0,-0.0005064754514023662
208.0,-0.0010678600519895554
224.0,-0.0010082540102303028
240.0,-0.001552619389258325
256.0,-0.0017980501288548112
288.0,-0.0020982720889151096
320.0,-0.0018158252350986004
352.0,-0.0015731005696579814
384.0,-0.0002609681396279484
416.0,-0.00022243552666623145
448.0,0.000622356659732759
480.0,6.284107075771317e-05
512.0,0.0004994304617866874
576.0,0.0002702383208088577
640.0,-0.000537748564966023
704.0,-0.0014765210216864944
768.0,-0.000321648723911494
832.0,-0.0004049292183481157
896.0,0.001113588223233819
960.0,0.0019287007162347436
1024.0,0.0013195020146667957
1152.0,0.0006049183430150151
1280.0,0.0002844358386937529
1408.0,-0.0014061772963032126
1536.0,-0.0012803436256945133
1664.0,0.002037256257608533
1792.0,0.0024193422868847847
1920.0,-0.0008114491356536746
2048.0,0.0007539379294030368
2304.0,0.0002289631956955418
2560.0,-0.0005882680998183787
2816.0,0.0018541653407737613
3072.0,4.196016743662767e-05
3328.0,-0.0010513266315683722
3584.0,-2.0412571757333353e-05
3840.0,0.0025517886970192194
4096.0,0.0012137541780248284
4608.0,-0.0010021355701610446
5120.0,-0.0006383395520970225
5632.0,0.0006950808456167579
6144.0,-0.0004180549003649503
6656.0,0.0002752777363639325
7168.0,-0.0007544702966697514
7680.0,0.0008509554318152368
8192.0,-0.00014694208221044391
9216.0,-6.428858614526689e-05
10240.0,-0.0013075023889541626
11264.0,-0.0006474004476331174
12288.0,-0.0014666777569800615
13312.0,-0.0016858747694641352
14336.0,-0.00020198815036565065
end
