version,3.0
numOfCh,1
type,point
parent_name,8-cuts
ch_type,1_1
kcount,1
numberNandB,1
brightnessNandB,1
carpet pos,0
pc,0
Time (ms),CH1 Auto-Correlation
1.0,0.029046813026070595
2.0,0.026856685057282448
3.0,0.02498677931725979
4.0,0.023487480357289314
5.0,0.022146770730614662
6.0,0.020922360941767693
7.0,0.019857537001371384
8.0,0.018908744677901268
9.0,0.017991144210100174
10.0,0.017101315781474113
11.0,0.016360582783818245
12.0,0.015605844557285309
13.0,0.01491542998701334
14.0,0.014267892576754093
15.0,0.013723265379667282
16.0,0.01316382922232151
18.0,0.012256759218871593
20.0,0.011502194218337536
22.0,0.010772665962576866
24.0,0.01007035095244646
26.0,0.00948639027774334
28.0,0.008955058641731739
30.0,0.008474224247038364
32.0,0.007948193699121475
36.0,0.007072274573147297
40.0,0.006590086501091719
44.0,0.006274780258536339
48.0,0.005896317772567272
52.0,0.005508636124432087
56.0,0.005107337608933449
60.0,0.00488183181732893
64.0,0.004786040633916855
72.0,0.004319151397794485
80.0,0.004161185119301081
88.0,0.0047460682690143585
96.0,0.0049354881048202515
104.0,0.00500893360003829
112.0,0.004884948488324881
120.0,0.004656007047742605
128.0,0.004607084672898054
144.0,0.004372314549982548
160.0,0.003249052446335554
176.0,0.0023202544543892145
192.0,0.0021833903156220913
208.0,0.002141672419384122
224.0,0.0020348778925836086
240.0,0.002038470469415188
256.0,0.0016018481692299247
288.0,0.00077713473001495
320.0,0.00041752829565666616
352.0,0.0008312505087815225
384.0,0.0012144522042945027
416.0,0.0005820590886287391
448.0,0.00033497746335342526
480.0,-0.0004757595306728035
512.0,0.00018933913088403642
576.0,-0.0001230696652783081
640.0,1.3381351209318382e-06
704.0,1.2979216990061104e-05
768.0,-0.0006368583417497575
832.0,-0.0012515572598204017
896.0,-0.0010139462538063526
960.0,-0.0016922112554311752
1024.0,-0.0005340951029211283
1152.0,0.00010513846791582182
1280.0,-7.328098035941366e-06
1408.0,0.0001843350037233904
1536.0,-0.0013118801871314645
1664.0,-0.0020106304436922073
1792.0,-0.0016697343671694398
1920.0,-0.0005058354581706226
2048.0,-0.0009581075282767415
2304.0,-0.00012279563816264272
2560.0,0.00038688548374921083
2816.0,-0.00016059944755397737
3072.0,-0.0009426856995560229
3328.0,-0.0005525751621462405
3584.0,-8.367044938495383e-05
3840.0,0.000978574506007135
4096.0,0.00027495314134284854
4608.0,0.0010860608890652657
5120.0,-2.6202547815046273e-05
5632.0,0.00015923353203106672
6144.0,-0.0018286729464307427
6656.0,-0.0007126418058760464
7168.0,-0.000409773550927639
7680.0,-0.0013617031509056687
8192.0,0.0010850628605112433
9216.0,0.0007837113225832582
10240.0,-0.0011665417114272714
11264.0,0.00021435043890960515
12288.0,0.000489868107251823
13312.0,-0.0002593934768810868
14336.0,-0.0006944733904674649
end
