version,3.0
numOfCh,1
type,point
parent_name,8-cuts
ch_type,1_1
kcount,1
numberNandB,1
brightnessNandB,1
carpet pos,0
pc,0
Time (ms),CH1 Auto-Correlation
1.0,0.02793765813112259
2.0,0.025870926678180695
3.0,0.024066533893346786
4.0,0.022452056407928467
5.0,0.021012460812926292
6.0,0.019842417910695076
7.0,0.01888449117541313
8.0,0.018056249246001244
9.0,0.017341163009405136
10.0,0.01665636897087097
11.0,0.01601354219019413
12.0,0.015466983430087566
13.0,0.014916226267814636
14.0,0.014352591708302498
15.0,0.01384549867361784
16.0,0.013309666886925697
18.0,0.01235897932201624
20.0,0.011545875109732151
22.0,0.010762825608253479
24.0,0.010074112564325333
26.0,0.00941766519099474
28.0,0.008751939050853252
30.0,0.008140780963003635
32.0,0.007707695476710796
36.0,0.006955771706998348
40.0,0.006080463528633118
44.0,0.005384683609008789
48.0,0.005111448001116514
52.0,0.004599879961460829
56.0,0.004044531378895044
60.0,0.00378110958263278
64.0,0.003502228297293186
72.0,0.00274930358864367
80.0,0.002081297803670168
88.0,0.001782838604412973
96.0,0.0013008113019168377
104.0,0.0006693060859106481
112.0,0.00029948921292088926
120.0,0.0003509505186229944
128.0,0.0004482560616452247
144.0,-0.000384696846595034
160.0,-0.0011895271018147469
176.0,-0.0013182404218241572
192.0,-0.0007031576824374497
208.0,-0.0005532358190976083
224.0,-0.0002690920664463192
240.0,0.0007162446854636073
256.0,0.0018072690581902862
288.0,0.0006865979521535337
320.0,0.000180477523826994
352.0,-0.0007597483927384019
384.0,-0.0006021494045853615
416.0,-0.0003698034561239183
448.0,-0.0009431325015611947
480.0,-0.0004243672883603722
512.0,0.0003679787623696029
576.0,2.6005247491411865e-05
640.0,0.0007867988897487521
704.0,0.00013694624067284167
768.0,-0.001089369528926909
832.0,0.0005611754022538662
896.0,0.0026444289833307266
960.0,0.0010943464003503323
1024.0,-0.0004958560457453132
1152.0,-0.0013817764120176435
1280.0,-0.0010847875382751226
1408.0,-0.0012669743737205863
1536.0,-1.4199339602782857e-05
1664.0,-0.0019344135653227568
1792.0,-0.0003605943056754768
1920.0,-0.0006950198439881206
2048.0,-0.00085720035713166
2304.0,4.356419594842009e-06
2560.0,-0.0010327527998015285
2816.0,0.0003855213290080428
3072.0,-0.0007843389175832272
3328.0,0.0011282570194453
3584.0,0.0003066486387979239
3840.0,0.0009303923579864204
4096.0,0.0004924270324409008
4608.0,-0.0004095560871064663
5120.0,-0.0005641094176098704
5632.0,-8.850092126522213e-05
6144.0,0.000400116085074842
6656.0,-0.0008620513253845274
7168.0,-0.0001830639666877687
7680.0,0.0009489217191003263
8192.0,0.00025641528191044927
9216.0,9.932614375429694e-06
10240.0,-0.0005769885028712451
11264.0,4.117174739803886e-06
12288.0,2.939729529316537e-05
13312.0,0.0001397171727148816
14336.0,0.00048160902224481106
end
