version,3.0
numOfCh,1
type,point
parent_name,8-cuts
ch_type,1_1
kcount,1
numberNandB,1
brightnessNandB,1
carpet pos,0
pc,0
Time (ms),CH1 Auto-Correlation
1.0,0.02947091870009899
2.0,0.027296150103211403
3.0,0.025396205484867096
4.0,0.023703105747699738
5.0,0.022213611751794815
6.0,0.020943963900208473
7.0,0.01981681026518345
8.0,0.018803175538778305
9.0,0.017936013638973236
10.0,0.01713540032505989
11.0,0.016438834369182587
12.0,0.01578124612569809
13.0,0.015188443474471569
14.0,0.014610006473958492
15.0,0.014118175953626633
16.0,0.013629850931465626
18.0,0.012814812362194061
20.0,0.012080528773367405
22.0,0.011286229826509953
24.0,0.010663163848221302
26.0,0.010088599286973476
28.0,0.009645765647292137
30.0,0.009202155284583569
32.0,0.008812460117042065
36.0,0.00805851723998785
40.0,0.007421836256980896
44.0,0.006956546567380428
48.0,0.0065702591091394424
52.0,0.006231376435607672
56.0,0.006060438230633736
60.0,0.005771609488874674
64.0,0.005446035414934158
72.0,0.005099446512758732
80.0,0.0050635808147490025
88.0,0.00517466152086854
96.0,0.004771901294589043
104.0,0.0039789411239326
112.0,0.00313999829813838
120.0,0.0030982336029410362
128.0,0.002902794862166047
144.0,0.002788953948765993
160.0,0.0031683475244790316
176.0,0.0021084086038172245
192.0,0.0015934538096189499
208.0,0.0011409030994400382
224.0,0.0006251760642044246
240.0,0.00042700651101768017
256.0,0.0005686150980181992
288.0,-0.00015781811089254916
320.0,-0.0004299628490116447
352.0,-0.00020846874394919723
384.0,-4.421727862791158e-05
416.0,0.00010502911027288064
448.0,7.536849443567917e-05
480.0,-0.0003719458181876689
512.0,0.0006601475179195404
576.0,0.0010510252323001623
640.0,-0.00020999730622861534
704.0,3.032500330846233e-07
768.0,0.00012293551117181778
832.0,0.00010206099250353873
896.0,0.0007891776040196419
960.0,-0.00028341831057332456
1024.0,-0.0014089159667491913
1152.0,-0.002457810565829277
1280.0,-0.0029977771919220686
1408.0,-0.002286396687850356
1536.0,-0.0019219204550608993
1664.0,-0.001651662401854992
1792.0,-0.000492823775857687
1920.0,0.0006883115274831653
2048.0,0.0001931440201587975
2304.0,0.0015557827427983284
2560.0,0.0018975486746057868
2816.0,0.0014952376950532198
3072.0,0.0005695479339919984
3328.0,-0.0013280297862365842
3584.0,-0.0017950127366930246
3840.0,-0.0017572991782799363
4096.0,-0.0018557183211669326
4608.0,0.00031853679683990777
5120.0,0.0018076390260830522
5632.0,0.00021707241830881685
6144.0,-0.000770662329159677
6656.0,-0.001996382372453809
7168.0,-0.00041384686483070254
7680.0,0.0012383752036839724
8192.0,0.00021052175725344568
9216.0,-0.0008992974762804806
10240.0,0.0018462954321876168
11264.0,-0.0007898517651483417
12288.0,2.1490586732397787e-05
13312.0,0.0005101594142615795
14336.0,-0.0015114003326743841
end
