version,3.0
numOfCh,1
type,point
parent_name,8-cuts
ch_type,1_1
kcount,1
numberNandB,1
brightnessNandB,1
carpet pos,0
pc,0
Time (ms),CH1 Auto-Correlation
1.0,0.08799674361944199
2.0,0.08129245787858963
3.0,0.07538661360740662
4.0,0.07009395211935043
5.0,0.06561603397130966
6.0,0.06160500645637512
7.0,0.05806625261902809
8.0,0.054826684296131134
9.0,0.05197453126311302
10.0,0.04929431527853012
11.0,0.0468207485973835
12.0,0.0445638969540596
13.0,0.04252353683114052
14.0,0.04072681814432144
15.0,0.03906318545341492
16.0,0.03740006685256958
18.0,0.03432970494031906
20.0,0.031927186995744705
22.0,0.030171696096658707
24.0,0.02827264368534088
26.0,0.02629552222788334
28.0,0.024464039131999016
30.0,0.022541988641023636
32.0,0.02072502113878727
36.0,0.018179217353463173
40.0,0.01665801927447319
44.0,0.014456389471888542
48.0,0.012397430837154388
52.0,0.011068063788115978
56.0,0.009514917619526386
60.0,0.008042636327445507
64.0,0.007236823905259371
72.0,0.0063728815875947475
80.0,0.004717039875686169
88.0,0.0036588001530617476
96.0,0.0025128466077148914
104.0,0.0015307831345126033
112.0,1.774926931830123e-05
120.0,-0.002189307939261198
128.0,-0.0028488049283623695
144.0,-0.0037957080639898777
160.0,-0.003527096938341856
176.0,-0.003181550884619355
192.0,-0.00208900379948318
208.0,-0.0009770692558959126
224.0,-0.0007676002569496632
240.0,-0.0005295561859384179
256.0,-0.0008577661938033998
288.0,-0.002994583221152425
320.0,-0.007997402921319008
352.0,-0.006445035338401794
384.0,-0.001073481747880578
416.0,-0.0010138158686459064
448.0,0.0015933526447042823
480.0,-0.0006714508053846657
512.0,-0.0015631357673555613
576.0,0.0007000171463005245
640.0,-0.0007152128964662552
704.0,-0.0019689868204295635
768.0,-0.0035805192310363054
832.0,-0.0006272862083278596
896.0,-0.0033828425221145153
960.0,-0.0016570088919252157
1024.0,-0.003260058583691716
1152.0,0.0040722861886024475
1280.0,0.0018505587941035628
1408.0,-0.00023847004922572523
1536.0,-0.0028247316367924213
1664.0,-0.0002602343156468123
1792.0,0.005092554725706577
1920.0,-0.003303325967863202
2048.0,0.0016061716014519334
2304.0,0.0004031281278003007
2560.0,-0.0010787767823785543
2816.0,0.0023056589998304844
3072.0,-0.0007981857634149492
3328.0,1.402478574163979e-05
3584.0,-0.0015453172381967306
3840.0,0.0014186713378876448
4096.0,0.0029677064158022404
4608.0,-0.0010355745907872915
5120.0,0.0005883757257834077
5632.0,-0.0007367422804236412
6144.0,0.0006462230812758207
6656.0,-0.0015137101290747523
7168.0,6.450109503930435e-05
7680.0,7.07285144017078e-05
8192.0,0.0005537724937312305
9216.0,-1.0818901500897482e-05
10240.0,-0.001419396372511983
11264.0,-0.0003665077965706587
12288.0,0.0008164520259015262
13312.0,-0.0017962307902052999
14336.0,-0.0004246672324370593
end
