version,3.0
numOfCh,1
type,point
parent_name,8-cuts
ch_type,1_1
kcount,1
numberNandB,1
brightnessNandB,1
carpet pos,0
pc,0
Time (ms),CH1 Auto-Correlation
1.0,0.08370079100131989
2.0,0.07687400281429291
3.0,0.07103734463453293
4.0,0.06601732969284058
5.0,0.06143965199589729
6.0,0.05721284821629524
7.0,0.05355483666062355
8.0,0.05021141469478607
9.0,0.047433219850063324
10.0,0.04477524012327194
11.0,0.042566798627376556
12.0,0.04046691954135895
13.0,0.03847368061542511
14.0,0.03688295930624008
15.0,0.03547811508178711
16.0,0.03419344127178192
18.0,0.031773582100868225
20.0,0.029677042737603188
22.0,0.028258327394723892
24.0,0.02712683379650116
26.0,0.025614788755774498
28.0,0.024389928206801414
30.0,0.02323336713016033
32.0,0.021772122010588646
36.0,0.019488317891955376
40.0,0.01725439727306366
44.0,0.015725236386060715
48.0,0.014008049853146076
52.0,0.011970062740147114
56.0,0.010379896499216557
60.0,0.009018588811159134
64.0,0.008213048800826073
72.0,0.007416737265884876
80.0,0.006731688976287842
88.0,0.00758250430226326
96.0,0.007737981155514717
104.0,0.0075635649263858795
112.0,0.00604320177808404
120.0,0.005271713715046644
128.0,0.004390530753880739
144.0,0.0018631835700944066
160.0,-0.0009173917351290584
176.0,-0.00012972220429219306
192.0,0.001901604700833559
208.0,0.004338447470217943
224.0,0.0033192546106874943
240.0,0.002257976680994034
256.0,0.0013130020815879107
288.0,-0.002705997321754694
320.0,-0.0031719920225441456
352.0,-0.0026061884127557278
384.0,-0.0013366439379751682
416.0,-0.003413249272853136
448.0,-0.0005959314876236022
480.0,0.001421282417140901
512.0,0.00099294597748667
576.0,-0.0009746627765707672
640.0,-0.0019004796631634235
704.0,0.0017314273864030838
768.0,0.000322121602948755
832.0,-0.002188902348279953
896.0,-0.0017182257724925876
960.0,0.0020522912964224815
1024.0,0.0002240360772702843
1152.0,0.0010150717571377754
1280.0,0.00036258986801840365
1408.0,-0.000368185224942863
1536.0,0.0003926574136130512
1664.0,0.0016533706802874804
1792.0,0.0015887016197666526
1920.0,-0.005039469804614782
2048.0,-0.0038458944763988256
2304.0,0.001811416121199727
2560.0,0.003606274724006653
2816.0,0.0027208852116018534
3072.0,0.00018177831952925771
3328.0,-0.001463462831452489
3584.0,-0.0018470358336344361
3840.0,2.1322282918845303e-05
4096.0,0.000498936278745532
4608.0,-0.001590184634551406
5120.0,0.00010371530515840277
5632.0,-0.00025097737670876086
6144.0,7.768380601191893e-05
6656.0,0.00043225937406532466
7168.0,0.00013179612869862467
7680.0,-0.0006125745712779462
8192.0,-0.0007406307850033045
9216.0,-0.00038089018198661506
10240.0,-0.002000492764636874
11264.0,-0.002949415473267436
12288.0,-0.00012690035509876907
13312.0,-0.0021736654452979565
14336.0,0.0027514256071299314
end
