version,3.0
numOfCh,1
type,point
parent_name,8-cuts
ch_type,1_1
kcount,1
numberNandB,1
brightnessNandB,1
carpet pos,0
pc,0
Time (ms),CH1 Auto-Correlation
1.0,0.08257827907800674
2.0,0.07598070800304413
3.0,0.0702628567814827
4.0,0.06546484678983688
5.0,0.061451543122529984
6.0,0.05792731046676636
7.0,0.05459010973572731
8.0,0.051518481224775314
9.0,0.04885191097855568
10.0,0.046313539147377014
11.0,0.044065311551094055
12.0,0.0417805053293705
13.0,0.039482712745666504
14.0,0.03756058216094971
15.0,0.03575804829597473
16.0,0.034263744950294495
18.0,0.031227149069309235
20.0,0.028766583651304245
22.0,0.026715721935033798
24.0,0.024880478158593178
26.0,0.023116134107112885
28.0,0.021649016067385674
30.0,0.020158052444458008
32.0,0.01890050619840622
36.0,0.017069268971681595
40.0,0.015698039904236794
44.0,0.014010017737746239
48.0,0.012073288671672344
52.0,0.010996606200933456
56.0,0.010256893001496792
60.0,0.009401773102581501
64.0,0.008833285421133041
72.0,0.008196749724447727
80.0,0.008530017919838428
88.0,0.008316493593156338
96.0,0.008721315301954746
104.0,0.008674943819642067
112.0,0.008908521384000778
120.0,0.009355785325169563
128.0,0.007712094113230705
144.0,0.005823555868119001
160.0,0.00525641581043601
176.0,0.004590763244777918
192.0,0.001904450822621584
208.0,0.001819998025894165
224.0,0.0025311678182333708
240.0,0.0018471925286576152
256.0,0.0036339464131742716
288.0,0.005419332068413496
320.0,0.007643416058272123
352.0,0.007380986120551825
384.0,0.006115692667663097
416.0,0.005872215609997511
448.0,0.005834121257066727
480.0,0.0033475945238023996
512.0,0.0014278022572398186
576.0,0.0010127449641004205
640.0,0.0031618038192391396
704.0,-0.0008566358010284603
768.0,0.0017085904255509377
832.0,0.0022564688697457314
896.0,0.0018189552938565612
960.0,-0.0004494132590480149
1024.0,0.0019234102219343185
1152.0,0.0010086322436109185
1280.0,0.00046256385394372046
1408.0,0.0012027788907289505
1536.0,0.0023135412484407425
1664.0,-0.00037689803866669536
1792.0,-0.004927983973175287
1920.0,-0.0014362700749188662
2048.0,-0.00413178326562047
2304.0,-0.00432403851300478
2560.0,-0.005337654612958431
2816.0,-0.001614533830434084
3072.0,-0.0023871264420449734
3328.0,-0.0030561594758182764
3584.0,-0.003884372767060995
3840.0,-0.0032227481715381145
4096.0,-0.0030945141334086657
4608.0,0.0017794156447052956
5120.0,0.004016193561255932
5632.0,0.003004149766638875
6144.0,0.004786849487572908
6656.0,0.0022067876998335123
7168.0,-0.003149591153487563
7680.0,-0.0020678259897977114
8192.0,-0.002394672017544508
9216.0,-0.003023969940841198
10240.0,-0.0037703143898397684
11264.0,0.004368869122117758
12288.0,0.0025307193864136934
13312.0,-0.002183199394494295
14336.0,0.0019851571414619684
end
