version,3.0
numOfCh,1
type,point
parent_name,8-cuts
ch_type,1_1
kcount,1
numberNandB,1
brightnessNandB,1
carpet pos,0
pc,0
Time (ms),CH1 Auto-Correlation
1.0,0.04207957908511162
2.0,0.038774579763412476
3.0,0.035870905965566635
4.0,0.033442337065935135
5.0,0.03139548748731613
6.0,0.029543856158852577
7.0,0.027960186824202538
8.0,0.026591364294290543
9.0,0.02539941668510437
10.0,0.024363180622458458
11.0,0.023382961750030518
12.0,0.022441990673542023
13.0,0.02162541076540947
14.0,0.020910870283842087
15.0,0.020244665443897247
16.0,0.01954036019742489
18.0,0.01816830225288868
20.0,0.016840772703289986
22.0,0.015825476497411728
24.0,0.014929207973182201
26.0,0.013983752578496933
28.0,0.01321119163185358
30.0,0.012646947056055069
32.0,0.011992190033197403
36.0,0.010292358696460724
40.0,0.009017104282975197
44.0,0.007970301434397697
48.0,0.006759849842637777
52.0,0.006043160334229469
56.0,0.005362499039620161
60.0,0.0049689156003296375
64.0,0.0046242522075772285
72.0,0.004133174195885658
80.0,0.003842893522232771
88.0,0.0032800105400383472
96.0,0.003009505569934845
104.0,0.002744922647252679
112.0,0.001984941540285945
120.0,0.002014156198129058
128.0,0.0025475090369582176
144.0,0.002790842205286026
160.0,0.0018929006764665246
176.0,0.0013804305344820023
192.0,0.0010411908151581883
208.0,0.0008529829210601747
224.0,0.0009349321480840445
240.0,0.0017993432702496648
256.0,0.002439511241391301
288.0,0.000612070201896131
320.0,0.0007354597910307348
352.0,0.0006083085900172591
384.0,-0.0006996272131800652
416.0,0.00024624416255392134
448.0,0.001112656551413238
480.0,0.0011676286812871695
512.0,-0.0001642363058635965
576.0,-0.0008156215772032738
640.0,-0.0011686180951073766
704.0,-0.0010153907351195812
768.0,-0.002074082614853978
832.0,-0.001770819304510951
896.0,-0.0013859070604667068
960.0,-0.000683142221532762
1024.0,0.00020133861107751727
1152.0,0.0009476310224272311
1280.0,-0.0002791871957015246
1408.0,2.5021146939252503e-05
1536.0,0.0002730914857238531
1664.0,-0.0009065282647497952
1792.0,-6.873230449855328e-05
1920.0,0.0011955656809732318
2048.0,0.0015321132959797978
2304.0,-0.00027799553936347365
2560.0,-0.0001425884838681668
2816.0,-0.0009084467310458422
3072.0,0.0007805973873473704
3328.0,0.00033982968307100236
3584.0,0.0010394128039479256
3840.0,0.00017498208035249263
4096.0,0.0012364204740151763
4608.0,0.00012157064338680357
5120.0,-0.0005729628028348088
5632.0,-0.00022059379261918366
6144.0,-0.001716405269689858
6656.0,-0.0019013870041817427
7168.0,-0.00010340553126297891
7680.0,-0.0007338995346799493
8192.0,0.0006268793949857354
9216.0,-0.0012867572950199246
10240.0,-0.0009082884644158185
11264.0,-0.0006418442935682833
12288.0,0.0018132843542844057
13312.0,-0.00044567621080204844
14336.0,-0.0007238515536300838
end
