version,3.0
numOfCh,1
type,point
parent_name,8-cuts
ch_type,1_1
kcount,1
numberNandB,1
brightnessNandB,1
carpet pos,0
pc,0
Time (ms),CH1 Auto-Correlation
1.0,0.1008424311876297
2.0,0.0936659649014473
3.0,0.08747495710849762
4.0,0.08224257081747055
5.0,0.07768706232309341
6.0,0.07365524023771286
7.0,0.06991906464099884
8.0,0.06663801521062851
9.0,0.06354084610939026
10.0,0.06080975756049156
11.0,0.0584561750292778
12.0,0.05635498836636543
13.0,0.05469353497028351
14.0,0.05331028252840042
15.0,0.051619309931993484
16.0,0.04982604458928108
18.0,0.04659787192940712
20.0,0.04393862932920456
22.0,0.04161543771624565
24.0,0.03936895355582237
26.0,0.03747982904314995
28.0,0.035511165857315063
30.0,0.0330536775290966
32.0,0.03094804473221302
36.0,0.028041474521160126
40.0,0.02601056545972824
44.0,0.024303631857037544
48.0,0.022345688194036484
52.0,0.019988717511296272
56.0,0.01787048578262329
60.0,0.016551349312067032
64.0,0.01529227290302515
72.0,0.01359783299267292
80.0,0.012600504793226719
88.0,0.010500132106244564
96.0,0.008966861292719841
104.0,0.00881839171051979
112.0,0.008318073116242886
120.0,0.0071432022377848625
128.0,0.006175009533762932
144.0,0.0061662024818360806
160.0,0.005133031867444515
176.0,0.006186152342706919
192.0,0.008115344680845737
208.0,0.009116128087043762
224.0,0.009293477982282639
240.0,0.008480212651193142
256.0,0.007385129574686289
288.0,0.0028316713869571686
320.0,0.0023006319534033537
352.0,0.0034618929494172335
384.0,0.0019886253867298365
416.0,0.0020960739348083735
448.0,-3.2694013498257846e-05
480.0,-0.0011185782495886087
512.0,-0.0005556955002248287
576.0,-0.0017412449233233929
640.0,-0.0012220529606565833
704.0,-3.588041363400407e-05
768.0,0.0016732061048969626
832.0,0.0004197373636998236
896.0,-0.0016226443694904447
960.0,-0.0005468283779919147
1024.0,0.0008299577748402953
1152.0,-0.002221153350546956
1280.0,-0.0029201977886259556
1408.0,0.0017792584840208292
1536.0,0.0035083366092294455
1664.0,0.00700782798230648
1792.0,0.0044181314297020435
1920.0,0.0013477326137945056
2048.0,0.002011579228565097
2304.0,-1.6204949133680202e-05
2560.0,-0.002032509772107005
2816.0,-0.005886690691113472
3072.0,-0.0015704386169090867
3328.0,-0.0012377412058413029
3584.0,-0.003289167769253254
3840.0,0.0017479296075180173
4096.0,0.0014116102829575539
4608.0,-0.0015908863861113787
5120.0,-0.0025125383399426937
5632.0,-0.0023173305671662092
6144.0,-0.0015610939590260386
6656.0,-0.0017790038837119937
7168.0,-0.003322015516459942
7680.0,-0.002669151872396469
8192.0,-0.0004140046366956085
9216.0,-0.002518133260309696
10240.0,0.0031346941832453012
11264.0,0.0022551151923835278
12288.0,0.003098303684964776
13312.0,-0.000773781503085047
14336.0,-0.000992093118838966
end
