version,3.0
numOfCh,1
type,point
parent_name,8-cuts
ch_type,1_1
kcount,1
numberNandB,1
brightnessNandB,1
carpet pos,0
pc,0
Time (ms),CH1 Auto-Correlation
1.0,0.0250786654651165
2.0,0.022947685793042183
3.0,0.021015465259552002
4.0,0.01935637928545475
5.0,0.01789919100701809
6.0,0.0166094321757555
7.0,0.015451662242412567
8.0,0.014436316676437855
9.0,0.01347542554140091
10.0,0.012627663090825081
11.0,0.011901335790753365
12.0,0.011244259774684906
13.0,0.010632657445967197
14.0,0.010099020786583424
15.0,0.00954925362020731
16.0,0.009009812027215958
18.0,0.008202637545764446
20.0,0.0074713099747896194
22.0,0.006871012505143881
24.0,0.006354995537549257
26.0,0.005929970182478428
28.0,0.005605355836451054
30.0,0.0054408046416938305
32.0,0.005262536928057671
36.0,0.004730526357889175
40.0,0.004248897545039654
44.0,0.003947771154344082
48.0,0.003650554222986102
52.0,0.003231283277273178
56.0,0.0027340990491211414
60.0,0.0023678881116211414
64.0,0.0022108505945652723
72.0,0.002048088703304529
80.0,0.0018404654692858458
88.0,0.0014738666359335184
96.0,0.0011185036273673177
104.0,0.0010820290772244334
112.0,0.0010333304526284337
120.0,0.00038751543615944684
128.0,-0.00028742323047481477
144.0,0.00034811190562322736
160.0,0.000667728774715215
176.0,0.0009192799916490912
192.0,0.0007555022602900863
208.0,0.0004445367376320064
224.0,0.00038095327909104526
240.0,0.0004130200541112572
256.0,0.00075442751403898
288.0,-2.1569145246758126e-05
320.0,0.0005126309697516263
352.0,0.00019544475071597844
384.0,0.00027178609161637723
416.0,0.000360403792001307
448.0,0.0004024728259537369
480.0,8.969848568085581e-05
512.0,-7.886531238909811e-05
576.0,-0.0002529392659198493
640.0,-0.00015230367716867477
704.0,-0.00029533650376833975
768.0,0.0003854900423903018
832.0,0.0006077466532588005
896.0,-0.00027936117839999497
960.0,-0.0007038502371869981
1024.0,-0.00019532271835487336
1152.0,0.00012165189400548115
1280.0,0.00039752275915816426
1408.0,-0.0007291195215657353
1536.0,-0.0001773198164300993
1664.0,0.0007279712008312345
1792.0,0.00027439702535048127
1920.0,0.0006897504790686071
2048.0,0.00039504229789599776
2304.0,0.0002994741953443736
2560.0,0.0009007884655147791
2816.0,7.893641304690391e-05
3072.0,-0.0010944389505311847
3328.0,-0.0004340713785495609
3584.0,0.00015909952344372869
3840.0,-0.0017328859539702535
4096.0,-0.0008401433005928993
4608.0,0.0005347235128283501
5120.0,-0.0008130119531415403
5632.0,5.7310640841023996e-05
6144.0,-0.0008962854044511914
6656.0,-0.00010525638208491728
7168.0,0.0008386977133341134
7680.0,-0.00017477087385486811
8192.0,0.0005377110792323947
9216.0,0.00035758165176957846
10240.0,-0.0002793180465232581
11264.0,0.0004686629108618945
12288.0,-0.0007170535973273218
13312.0,0.0004070833674632013
14336.0,-0.0014181769220158458
end
