version,3.0
numOfCh,1
type,point
parent_name,8-cuts
ch_type,1_1
kcount,1
numberNandB,1
brightnessNandB,1
carpet pos,0
pc,0
Time (ms),CH1 Auto-Correlation
1.0,0.08054385334253311
2.0,0.07363232970237732
3.0,0.0677887350320816
4.0,0.06294683367013931
5.0,0.058770716190338135
6.0,0.05524340271949768
7.0,0.051898449659347534
8.0,0.04854785278439522
9.0,0.04562823846936226
10.0,0.043057218194007874
11.0,0.04077589884400368
12.0,0.038730937987565994
13.0,0.0367363840341568
14.0,0.03502217307686806
15.0,0.03341319039463997
16.0,0.031670793890953064
18.0,0.028771214187145233
20.0,0.026363717392086983
22.0,0.0242988970130682
24.0,0.02289617620408535
26.0,0.02154107391834259
28.0,0.020464830100536346
30.0,0.01976502500474453
32.0,0.01867310144007206
36.0,0.016670791432261467
40.0,0.014647740870714188
44.0,0.012850512750446796
48.0,0.011638936586678028
52.0,0.010813525877892971
56.0,0.010715612210333347
60.0,0.011605193838477135
64.0,0.011493519879877567
72.0,0.01053581852465868
80.0,0.01021001860499382
88.0,0.010064778849482536
96.0,0.010252485983073711
104.0,0.00854021217674017
112.0,0.008213798515498638
120.0,0.008204896934330463
128.0,0.007460832595825195
144.0,0.006186078768223524
160.0,0.006510598119348288
176.0,0.004921275656670332
192.0,0.0017312769778072834
208.0,0.0018939075525850058
224.0,0.0021638108883053064
240.0,0.0011774927843362093
256.0,0.00013627421867568046
288.0,0.0007602046825923026
320.0,-0.0016581122763454914
352.0,-0.002066181041300297
384.0,-0.004100726917386055
416.0,-0.004317262209951878
448.0,-0.002284032991155982
480.0,-0.0007648822502233088
512.0,0.00018652445578482002
576.0,-0.00011844099208246917
640.0,-0.0026913268957287073
704.0,-0.003164782887324691
768.0,-0.0034821301233023405
832.0,-0.003245474072173238
896.0,0.00046073822886683047
960.0,-0.0017141635762527585
1024.0,-0.0011307370150461793
1152.0,-0.0016914758598431945
1280.0,-0.0072215101681649685
1408.0,-0.002785851014778018
1536.0,-0.0016655883518978953
1664.0,0.0028344448655843735
1792.0,0.004043287597596645
1920.0,0.0042069400660693645
2048.0,0.0019224348943680525
2304.0,0.0017430726438760757
2560.0,0.000685487873852253
2816.0,-0.0003220325743313879
3072.0,-0.0034926647786051035
3328.0,-0.0030069942586123943
3584.0,-0.0022706775926053524
3840.0,0.003812774084508419
4096.0,0.0032289987429976463
4608.0,-0.0032525132410228252
5120.0,8.113824878819287e-05
5632.0,0.003741928143426776
6144.0,-0.0002478795940987766
6656.0,-0.0032596776727586985
7168.0,-0.003175675170496106
7680.0,0.003681008005514741
8192.0,0.0017426213016733527
9216.0,-0.0002764713717624545
10240.0,0.0005580782308243215
11264.0,3.698597720358521e-05
12288.0,-0.0005043033743277192
13312.0,0.0007101958617568016
14336.0,-0.0002299400366609916
end
