version,3.0
numOfCh,1
type,point
parent_name,8-cuts
ch_type,1_1
kcount,1
numberNandB,1
brightnessNandB,1
carpet pos,0
pc,0
Time (ms),CH1 Auto-Correlation
1.0,0.04024457186460495
2.0,0.03698185086250305
3.0,0.03415767103433609
4.0,0.03180680051445961
5.0,0.029756788164377213
6.0,0.027920102700591087
7.0,0.026258409023284912
8.0,0.024745503440499306
9.0,0.02341790311038494
10.0,0.022178806364536285
11.0,0.02110183797776699
12.0,0.020179567858576775
13.0,0.01923624984920025
14.0,0.01838618516921997
15.0,0.017613012343645096
16.0,0.016968093812465668
18.0,0.015837693586945534
20.0,0.014802382327616215
22.0,0.013876781798899174
24.0,0.013096252456307411
26.0,0.01234794408082962
28.0,0.01157871913164854
30.0,0.010858451947569847
32.0,0.010059172287583351
36.0,0.008753075264394283
40.0,0.007937606424093246
44.0,0.007506243884563446
48.0,0.007141694892197847
52.0,0.006606351118534803
56.0,0.006178177427500486
60.0,0.0057376292534172535
64.0,0.005238371901214123
72.0,0.004463782534003258
80.0,0.003712040837854147
88.0,0.0030684685334563255
96.0,0.002641664817929268
104.0,0.0024430034682154655
112.0,0.0021369352471083403
120.0,0.0017116129165515304
128.0,0.0017840699292719364
144.0,0.002399719785898924
160.0,0.0024902375880628824
176.0,0.0010683498112484813
192.0,0.0009527161600999534
208.0,0.0003714795457199216
224.0,-0.000525376875884831
240.0,-0.0012459413846954703
256.0,-0.001054974738508463
288.0,-0.0006884906906634569
320.0,-0.0010011354461312294
352.0,-3.755680154426955e-05
384.0,0.00016023866191972047
416.0,0.0006958071026019752
448.0,0.00021453562658280134
480.0,-0.0014444527914747596
512.0,-0.001134827733039856
576.0,0.000290596712147817
640.0,-1.4786152860324364e-05
704.0,0.0006774452049285173
768.0,0.0009633083827793598
832.0,0.00021653642761521041
896.0,-0.0005275829462334514
960.0,0.0007591808098368347
1024.0,0.0009290624875575304
1152.0,-0.0007739243446849287
1280.0,3.0336710551637225e-05
1408.0,0.0001252888177987188
1536.0,0.0008708791574463248
1664.0,9.531185787636787e-05
1792.0,-0.0008448552689515054
1920.0,-0.0001755000266712159
2048.0,0.0011566015891730785
2304.0,-0.0006347253802232444
2560.0,-0.0015170752303674817
2816.0,0.0009013712406158447
3072.0,-0.0005590782966464758
3328.0,-5.4455598728964105e-05
3584.0,-0.00041374354623258114
3840.0,0.0002707139647100121
4096.0,-0.0005971612990833819
4608.0,-0.0008763561490923166
5120.0,-4.621852349373512e-05
5632.0,-0.00033505502506159246
6144.0,-8.428374712821096e-05
6656.0,-0.0007230398477986455
7168.0,0.0013110507279634476
7680.0,0.0007060790085233748
8192.0,0.0006713849725201726
9216.0,0.0007354592089541256
10240.0,-0.00018533952243160456
11264.0,-6.52052040095441e-05
12288.0,-0.0010166626889258623
13312.0,-0.002218405017629266
14336.0,0.000850355951115489
end
