version,3.0
numOfCh,1
type,point
parent_name,8-cuts
ch_type,1_1
kcount,1
numberNandB,1
brightnessNandB,1
carpet pos,0
pc,0
Time (ms),CH1 Auto-Correlation
1.0,0.03788335621356964
2.0,0.03467223048210144
3.0,0.031919676810503006
4.0,0.02949962578713894
5.0,0.027383673936128616
6.0,0.025614021345973015
7.0,0.02402559109032154
8.0,0.02257639542222023
9.0,0.021192247048020363
10.0,0.019890062510967255
11.0,0.01872842386364937
12.0,0.017698228359222412
13.0,0.016797387972474098
14.0,0.01602719910442829
15.0,0.015272621065378189
16.0,0.014658667147159576
18.0,0.013436711393296719
20.0,0.012479320168495178
22.0,0.011800487525761127
24.0,0.011229362338781357
26.0,0.01061642449349165
28.0,0.00989610981196165
30.0,0.009234759025275707
32.0,0.008498531766235828
36.0,0.007368572987616062
40.0,0.00659876549616456
44.0,0.006446414161473513
48.0,0.006202928721904755
52.0,0.005815327633172274
56.0,0.004969480913132429
60.0,0.004385703708976507
64.0,0.00406023021787405
72.0,0.003320248331874609
80.0,0.002718188799917698
88.0,0.0019498675828799605
96.0,0.0014730622060596943
104.0,0.001210003043524921
112.0,0.0010665699373930693
120.0,0.0010976516641676426
128.0,0.0012127651134505868
144.0,0.0008323398651555181
160.0,-0.00019985302060376853
176.0,-0.000557705236133188
192.0,-0.0019042500061914325
208.0,-0.0012138524325564504
224.0,-3.636405381257646e-05
240.0,-0.00010787000064738095
256.0,-0.0014160674763843417
288.0,-0.0009351198677904904
320.0,-0.0003941593167837709
352.0,-9.420429705642164e-05
384.0,0.000456269335700199
416.0,-0.0003168637922499329
448.0,6.050138472346589e-05
480.0,-0.00028542877407744527
512.0,-0.0007971559534780681
576.0,-0.0004937468329444528
640.0,0.0006587020470760763
704.0,-0.00017233120161108673
768.0,0.0007302786107175052
832.0,0.0007648700848221779
896.0,-0.00022075690503697842
960.0,-0.0014931232435628772
1024.0,-0.001726464368402958
1152.0,0.0012326895957812667
1280.0,2.6041418095701374e-05
1408.0,0.00032660597935318947
1536.0,0.0010126855922862887
1664.0,-0.0008265536744147539
1792.0,-0.0019969886634498835
1920.0,-0.0013758830027654767
2048.0,-0.0014755540760233998
2304.0,-0.0003358173416927457
2560.0,0.00038655876414850354
2816.0,-0.00027130424859933555
3072.0,-0.0009386611636728048
3328.0,-0.000995549140498042
3584.0,0.0008474471396766603
3840.0,0.000949638953898102
4096.0,-0.0005253071431070566
4608.0,9.387966565554962e-05
5120.0,0.00023202392912935466
5632.0,-0.0007960267830640078
6144.0,0.00013445185322780162
6656.0,1.5818390011190786e-06
7168.0,0.0003026498598046601
7680.0,0.0005163665045984089
8192.0,-0.0008799357456155121
9216.0,-0.0008666456560604274
10240.0,8.123752195388079e-05
11264.0,0.0017254860140383244
12288.0,0.00023588677868247032
13312.0,-0.000852456025313586
14336.0,-0.0007283324375748634
end
