version,3.0
numOfCh,1
type,point
parent_name,8-cuts
ch_type,1_1
kcount,1
numberNandB,1
brightnessNandB,1
carpet pos,0
pc,0
Time (ms),CH1 Auto-Correlation
1.0,0.04326285421848297
2.0,0.04004187881946564
3.0,0.03723084554076195
4.0,0.03481677919626236
5.0,0.032696906477212906
6.0,0.030856437981128693
7.0,0.029250329360365868
8.0,0.027661431580781937
9.0,0.026261549443006516
10.0,0.02495204471051693
11.0,0.02382572926580906
12.0,0.022813139483332634
13.0,0.021816818043589592
14.0,0.020870229229331017
15.0,0.019951237365603447
16.0,0.01914042793214321
18.0,0.0176161490380764
20.0,0.016309956088662148
22.0,0.015140166506171227
24.0,0.014174208976328373
26.0,0.0132951894775033
28.0,0.012489709071815014
30.0,0.011957492679357529
32.0,0.01161244511604309
36.0,0.011181168258190155
40.0,0.010487765073776245
44.0,0.009586709551513195
48.0,0.00895883422344923
52.0,0.008360033854842186
56.0,0.007974348030984402
60.0,0.00778348371386528
64.0,0.007458617445081472
72.0,0.006447197869420052
80.0,0.005231298040598631
88.0,0.00363587005995214
96.0,0.0026318393647670746
104.0,0.0022940512280911207
112.0,0.0020588201005011797
120.0,0.002089989837259054
128.0,0.002191626001149416
144.0,0.0010974606266245246
160.0,0.00010055273014586419
176.0,0.000794148538261652
192.0,0.000727726670447737
208.0,-0.0008122334256768227
224.0,-0.0007829696405678988
240.0,6.262970418902114e-05
256.0,-0.000314572942443192
288.0,0.0006099666934460402
320.0,0.0007087754784151912
352.0,-2.836524072336033e-05
384.0,7.061897485982627e-05
416.0,0.0007553646573796868
448.0,0.002188023179769516
480.0,0.0036840469110757113
512.0,0.004228591453284025
576.0,0.0034564638044685125
640.0,0.000561303342692554
704.0,-0.0007721278234384954
768.0,-0.0018124358030036092
832.0,-0.0013412091648206115
896.0,-0.00028842262690886855
960.0,-0.0006209568819031119
1024.0,0.0012371210614219308
1152.0,0.0010235417867079377
1280.0,0.000755386718083173
1408.0,0.00215096864849329
1536.0,-0.0009792485507205129
1664.0,-0.0015653532464057207
1792.0,-0.0028050190303474665
1920.0,-0.0022334277164191008
2048.0,-0.002394714392721653
2304.0,-0.003020200878381729
2560.0,-0.0009042873280122876
2816.0,-0.0009696020861156285
3072.0,-0.00222583394497633
3328.0,-0.0011867719003930688
3584.0,-0.0023020387161523104
3840.0,-0.0002734568261075765
4096.0,0.000767197459936142
4608.0,0.0009928751969709992
5120.0,0.0010145376436412334
5632.0,0.0021201150957494974
6144.0,0.0004647381720133126
6656.0,0.00015047125634737313
7168.0,0.0006295343046076596
7680.0,-0.001017856178805232
8192.0,-0.00038734613917768
9216.0,-0.0013689957559108734
10240.0,-0.0005859330995008349
11264.0,0.0015946103958413005
12288.0,0.001643019844777882
13312.0,-0.001981818350031972
14336.0,-0.002504044910892844
end
