version,3.0
numOfCh,1
type,point
parent_name,8-cuts
ch_type,1_1
kcount,1
numberNandB,1
brightnessNandB,1
carpet pos,0
pc,0
Time (ms),CH1 Auto-Correlation
1.0,0.08439852297306061
2.0,0.07754217088222504
3.0,0.0719033032655716
4.0,0.06693307310342789
5.0,0.0625184178352356
6.0,0.058609623461961746
7.0,0.05490982532501221
8.0,0.051598746329545975
9.0,0.04877175763249397
10.0,0.04640793055295944
11.0,0.044351596385240555
12.0,0.04242481663823128
13.0,0.04072239249944687
14.0,0.03913853317499161
15.0,0.03745686262845993
16.0,0.035926103591918945
18.0,0.03306562453508377
20.0,0.030615031719207764
22.0,0.028618749231100082
24.0,0.026980657130479813
26.0,0.025497201830148697
28.0,0.024217696860432625
30.0,0.023208940401673317
32.0,0.022281302139163017
36.0,0.020404046401381493
40.0,0.018723277375102043
44.0,0.01674436591565609
48.0,0.015186403878033161
52.0,0.014606430195271969
56.0,0.015043966472148895
60.0,0.01493434514850378
64.0,0.01358445081859827
72.0,0.01116076298058033
80.0,0.008451306261122227
88.0,0.007733185775578022
96.0,0.008279150351881981
104.0,0.009182918816804886
112.0,0.00905745942145586
120.0,0.007497772108763456
128.0,0.005501344799995422
144.0,0.004065511282533407
160.0,0.004164098761975765
176.0,0.003467596136033535
192.0,0.0015666739782318473
208.0,0.0015527991345152259
224.0,0.00325123593211174
240.0,0.0013352681417018175
256.0,-0.00072531180921942
288.0,-0.0038193119689822197
320.0,-0.003586278762668371
352.0,-0.0010487271938472986
384.0,0.0022082121577113867
416.0,0.0001284006575588137
448.0,-0.0015836878446862102
480.0,0.0035105785354971886
512.0,0.0001959968649316579
576.0,0.00046546332305297256
640.0,-3.174160838170792e-06
704.0,-0.0014177202247083187
768.0,-0.0001922054070746526
832.0,-0.000942338549066335
896.0,0.005133847706019878
960.0,0.0033998892176896334
1024.0,2.8345230020931922e-05
1152.0,-0.0037106655072420835
1280.0,-0.0016910429112613201
1408.0,-0.0029073876794427633
1536.0,-0.004908197093755007
1664.0,-0.0048712133429944515
1792.0,-0.0008647688082419336
1920.0,0.00017233187099918723
2048.0,-0.001993467565625906
2304.0,-0.002095939125865698
2560.0,-0.0028903044294565916
2816.0,-0.0012098972219973803
3072.0,-0.00017741079500410706
3328.0,-0.0004183987039141357
3584.0,0.0027278943452984095
3840.0,0.002342429244890809
4096.0,0.0015248626004904509
4608.0,0.0011136074317619205
5120.0,-0.000512101105414331
5632.0,0.0009003814775496721
6144.0,-0.0031810193322598934
6656.0,0.0005318933399394155
7168.0,6.342036795103922e-05
7680.0,0.0036855314392596483
8192.0,-0.0009199293563142419
9216.0,-0.0008464297861792147
10240.0,-0.00019258390238974243
11264.0,-0.0005016833893023431
12288.0,0.0027802770491689444
13312.0,-0.0013240413973107934
14336.0,-0.002264434937387705
end
