version,3.0
numOfCh,1
type,point
parent_name,8-cuts
ch_type,1_1
kcount,1
numberNandB,1
brightnessNandB,1
carpet pos,0
pc,0
Time (ms),CH1 Auto-Correlation
1.0,0.026258964091539383
2.0,0.02414664998650551
3.0,0.022331083193421364
4.0,0.020788997411727905
5.0,0.019401302561163902
6.0,0.018113967031240463
7.0,0.016944607719779015
8.0,0.015889257192611694
9.0,0.014937864616513252
10.0,0.014088494703173637
11.0,0.013316170312464237
12.0,0.012633726932108402
13.0,0.012013155035674572
14.0,0.011461565271019936
15.0,0.010961821302771568
16.0,0.010477922856807709
18.0,0.009595890529453754
20.0,0.008921412751078606
22.0,0.008283952251076698
24.0,0.007732311729341745
26.0,0.0071861823089420795
28.0,0.006658480502665043
30.0,0.006183207500725985
32.0,0.0057430327869951725
36.0,0.004960398655384779
40.0,0.004353025928139687
44.0,0.003972345497459173
48.0,0.0035608867183327675
52.0,0.0033297650516033173
56.0,0.0034197333734482527
60.0,0.003258849959820509
64.0,0.002943022409453988
72.0,0.0026351381093263626
80.0,0.0024372932966798544
88.0,0.0021497728303074837
96.0,0.001763294916599989
104.0,0.0014291399857029319
112.0,0.001112097525037825
120.0,0.0007353377877734601
128.0,0.0008056226652115583
144.0,0.0007273653754964471
160.0,0.0003549822431523353
176.0,-0.00038867388502694666
192.0,-0.0008576583932153881
208.0,-0.0005805403925478458
224.0,-0.0007476545288227499
240.0,-0.00023488140141125768
256.0,-9.141964983427897e-05
288.0,0.00036298600025475025
320.0,0.00019881421758327633
352.0,-0.0001969519507838413
384.0,0.0005368809797801077
416.0,0.0017389435088261962
448.0,0.0014614486135542393
480.0,0.0006551838596351445
512.0,-0.0010211026528850198
576.0,-0.00045345016405917704
640.0,-0.00017562943685334176
704.0,-0.0013922469224780798
768.0,-0.0006863317685201764
832.0,2.3972503186087124e-05
896.0,0.00017486685828771442
960.0,-0.0009532116237096488
1024.0,-0.0002089487388730049
1152.0,-0.0005827461718581617
1280.0,-0.0002037087979260832
1408.0,-0.0002400778903393075
1536.0,0.00037948155659250915
1664.0,5.9523787058424205e-05
1792.0,-0.00035120220854878426
1920.0,-0.00046135607408359647
2048.0,-0.0006167940446175635
2304.0,-0.0002944562875200063
2560.0,-0.00019229663303121924
2816.0,0.00019337974663358182
3072.0,0.0011214253026992083
3328.0,0.0005658195586875081
3584.0,0.0008294293656945229
3840.0,-0.0007831364637240767
4096.0,-0.00023260258603841066
4608.0,-0.00022946805984247476
5120.0,0.00019142485689371824
5632.0,-0.00023985825828276575
6144.0,9.171767487714533e-06
6656.0,0.00010503157682251185
7168.0,-0.0005531804636120796
7680.0,-0.00029803431243635714
8192.0,-0.00026234317920170724
9216.0,-5.549741217691917e-06
10240.0,0.0006554005085490644
11264.0,-0.0006107367807999253
12288.0,-0.00031270034378394485
13312.0,0.00015054822142701596
14336.0,8.948723552748561e-05
end
