version,3.0
numOfCh,1
type,point
parent_name,8-cuts
ch_type,1_1
kcount,1
numberNandB,1
brightnessNandB,1
carpet pos,0
pc,0
Time (ms),CH1 Auto-Correlation
1.0,0.08692017197608948
2.0,0.07992815971374512
3.0,0.0739096999168396
4.0,0.06873558461666107
5.0,0.06418924033641815
6.0,0.06019257754087448
7.0,0.056644994765520096
8.0,0.05354933440685272
9.0,0.05066291615366936
10.0,0.048190951347351074
11.0,0.04613058269023895
12.0,0.0446043498814106
13.0,0.04311211034655571
14.0,0.04178188368678093
15.0,0.04021458327770233
16.0,0.03873775899410248
18.0,0.03627008944749832
20.0,0.03437602147459984
22.0,0.032535992562770844
24.0,0.030985334888100624
26.0,0.029583703726530075
28.0,0.0284276083111763
30.0,0.02716836705803871
32.0,0.02615777775645256
36.0,0.023755574598908424
40.0,0.021972360089421272
44.0,0.020000377669930458
48.0,0.019025657325983047
52.0,0.017672521993517876
56.0,0.015393538400530815
60.0,0.013514092192053795
64.0,0.012300236150622368
72.0,0.010392037220299244
80.0,0.008750543929636478
88.0,0.008319374173879623
96.0,0.007955638691782951
104.0,0.006636918988078833
112.0,0.004973281640559435
120.0,0.004531044512987137
128.0,0.004722889047116041
144.0,0.0036515039391815662
160.0,0.0033982719760388136
176.0,0.00439204229041934
192.0,0.004065746907144785
208.0,0.003929876256734133
224.0,0.0018647738033905625
240.0,0.0017238694708794355
256.0,0.0006016656989231706
288.0,0.003095305757597089
320.0,0.00417674146592617
352.0,0.004456843715161085
384.0,0.003984483890235424
416.0,0.004939671140164137
448.0,0.0018062860472127795
480.0,-8.868793520377949e-05
512.0,0.004946701228618622
576.0,0.0032143741846084595
640.0,-0.001447204384021461
704.0,0.0008509660256095231
768.0,0.0008372669108211994
832.0,0.0025793572422116995
896.0,0.002476245164871216
960.0,0.0007304413011297584
1024.0,-0.00044099928345531225
1152.0,0.0022172133903950453
1280.0,0.0007459353073500097
1408.0,0.006470582913607359
1536.0,0.0041635469533503056
1664.0,-0.001501582213677466
1792.0,0.0009799967519938946
1920.0,0.003048325888812542
2048.0,0.0005038608214817941
2304.0,-0.0007843580096960068
2560.0,-0.004098378587514162
2816.0,-0.002840889384970069
3072.0,-0.004011332057416439
3328.0,-0.0006329492316581309
3584.0,-0.003359010675922036
3840.0,-0.004564701579511166
4096.0,-0.006434399634599686
4608.0,-0.002985440893098712
5120.0,-0.0012395204976201057
5632.0,-0.0027339342050254345
6144.0,-0.00027830235194414854
6656.0,0.0006192578584887087
7168.0,0.004101044964045286
7680.0,0.003156923921778798
8192.0,0.004695354960858822
9216.0,0.003664680290967226
10240.0,-0.0007588142179884017
11264.0,-0.0034702199045568705
12288.0,-0.004015143029391766
13312.0,-0.002502909628674388
14336.0,-0.0013971440494060516
end
