version,3.0
numOfCh,1
type,point
parent_name,8-cuts
ch_type,1_1
kcount,1
numberNandB,1
brightnessNandB,1
carpet pos,0
pc,0
Time (ms),CH1 Auto-Correlation
1.0,0.027043461799621582
2.0,0.024847684428095818
3.0,0.023022690787911415
4.0,0.021356327459216118
5.0,0.019947201013565063
6.0,0.0187117550522089
7.0,0.01772158220410347
8.0,0.016806432977318764
9.0,0.01602182723581791
10.0,0.015303706750273705
11.0,0.014668332412838936
12.0,0.014073282480239868
13.0,0.013571260496973991
14.0,0.01310279592871666
15.0,0.012689649127423763
16.0,0.012306515127420425
18.0,0.011444229632616043
20.0,0.010609889402985573
22.0,0.009883400984108448
24.0,0.009213426150381565
26.0,0.008632107637822628
28.0,0.008098655380308628
30.0,0.007579042576253414
32.0,0.006973485462367535
36.0,0.006072252057492733
40.0,0.00526361633092165
44.0,0.004544463474303484
48.0,0.004147649742662907
52.0,0.003741435706615448
56.0,0.0033233766444027424
60.0,0.0032150335609912872
64.0,0.0030940864235162735
72.0,0.002374647418037057
80.0,0.0020824489183723927
88.0,0.002108327578753233
96.0,0.0016919294139370322
104.0,0.0008505932055413723
112.0,0.00045531391515396535
120.0,0.0003421166620682925
128.0,0.0007546413107775152
144.0,0.001523616723716259
160.0,0.0010429124813526869
176.0,0.0009578166645951569
192.0,0.0013058078475296497
208.0,0.0016944017261266708
224.0,0.0013520983047783375
240.0,0.000683790713082999
256.0,0.0005560123827308416
288.0,-0.00013565330300480127
320.0,-0.0006471235537901521
352.0,-0.00045390441664494574
384.0,-0.0005136543768458068
416.0,-0.0003144113870803267
448.0,-0.000540896609891206
480.0,-0.0005846392596140504
512.0,-0.00011124723096145317
576.0,-0.0007735516410320997
640.0,-0.0006294941413216293
704.0,0.0004911222495138645
768.0,0.0011777960462495685
832.0,-0.0003257834177929908
896.0,-0.0006670528673566878
960.0,0.0005575613467954099
1024.0,0.0003353508946020156
1152.0,-0.00031182452221401036
1280.0,-0.00047018053010106087
1408.0,-0.0005775041645392776
1536.0,-0.0010134069016203284
1664.0,-5.632561806123704e-05
1792.0,0.0008264267235063016
1920.0,0.0006209936109371483
2048.0,-0.0004134075716137886
2304.0,6.818996916990727e-05
2560.0,-0.0016485509695485234
2816.0,-0.0006976034492254257
3072.0,-4.3306255975039676e-05
3328.0,-0.0010018604807555676
3584.0,-0.00036874620127491653
3840.0,0.0007330365478992462
4096.0,0.0004721875302493572
4608.0,0.0006695162737742066
5120.0,-0.0007614297210238874
5632.0,-0.00037609797436743975
6144.0,0.0003659398353192955
6656.0,-0.0006528449594043195
7168.0,-0.0008420990197919309
7680.0,0.00033661763882264495
8192.0,0.0007188372546806931
9216.0,-0.00022336081019602716
10240.0,0.0006230543367564678
11264.0,-0.0012502147583290935
12288.0,0.0014579431153833866
13312.0,-0.0008087268797680736
14336.0,0.00048119996790774167
end
