version,3.0
numOfCh,1
type,point
parent_name,8-cuts
ch_type,1_1
kcount,1
numberNandB,1
brightnessNandB,1
carpet pos,0
pc,0
Time (ms),CH1 Auto-Correlation
1.0,0.02730500139296055
2.0,0.02516341395676136
3.0,0.02325732819736004
4.0,0.021561166271567345
5.0,0.020129583775997162
6.0,0.01886836253106594
7.0,0.01771843060851097
8.0,0.016685202717781067
9.0,0.015781467780470848
10.0,0.0149298794567585
11.0,0.01429001148790121
12.0,0.013700435869395733
13.0,0.013117659837007523
14.0,0.01260407641530037
15.0,0.012086761184036732
16.0,0.011609136126935482
18.0,0.010805636644363403
20.0,0.010114346630871296
22.0,0.00954959075897932
24.0,0.009036373347043991
26.0,0.008547551929950714
28.0,0.007993082515895367
30.0,0.007576218340545893
32.0,0.007210069801658392
36.0,0.0063436757773160934
40.0,0.0057678986340761185
44.0,0.005316019989550114
48.0,0.00488240784034133
52.0,0.004604896996170282
56.0,0.004391348920762539
60.0,0.004157002083957195
64.0,0.0038247874472290277
72.0,0.003000937169417739
80.0,0.002171153202652931
88.0,0.0019231134792789817
96.0,0.0014169771457090974
104.0,0.0013667007442563772
112.0,0.0012453986564651132
120.0,0.0009519950253888965
128.0,0.000543974048923701
144.0,0.0009944408666342497
160.0,0.0008236569119617343
176.0,0.0008586802869103849
192.0,0.0003892166423611343
208.0,8.747238462092355e-05
224.0,0.0003712991892825812
240.0,0.0009315850329585373
256.0,0.0006125041400082409
288.0,0.001137381885200739
320.0,0.001884107943624258
352.0,0.0018851860659196973
384.0,0.0017567527247592807
416.0,0.001348776975646615
448.0,0.0004147514409851283
480.0,0.00026522259577177465
512.0,4.363572952570394e-05
576.0,-0.0002159488940378651
640.0,-0.00028296568780206144
704.0,0.0003488442162051797
768.0,0.0006822731229476631
832.0,0.001351788523606956
896.0,0.001277051866054535
960.0,-0.00012072383105987683
1024.0,0.0001822246122173965
1152.0,-3.4252025216119364e-05
1280.0,-0.00020400118955876678
1408.0,0.00020196005061734468
1536.0,0.00013147867866791785
1664.0,-0.0003241082595195621
1792.0,-0.000360964477295056
1920.0,-0.0008143475279211998
2048.0,-0.00029770995024591684
2304.0,-0.00036898156395182014
2560.0,-0.0010996107012033463
2816.0,-0.0008895952487364411
3072.0,-0.0003457251004874706
3328.0,0.0006079376325942576
3584.0,-0.001338573987595737
3840.0,-9.230629802914336e-05
4096.0,0.0002961251011583954
4608.0,-6.241971277631819e-05
5120.0,-0.0004558460204862058
5632.0,-0.0004472204018384218
6144.0,-0.0006546936347149312
6656.0,-0.0014394897734746337
7168.0,-0.0008197900024242699
7680.0,0.0012030571233481169
8192.0,0.00045779210631735623
9216.0,0.0007955498876981437
10240.0,-0.000296133104711771
11264.0,6.150583794806153e-05
12288.0,0.00016335851978510618
13312.0,-0.000133727298816666
14336.0,-0.00044301903108134866
end
