version,3.0
numOfCh,1
type,point
parent_name,8-cuts
ch_type,1_1
kcount,1
numberNandB,1
brightnessNandB,1
carpet pos,0
pc,0
Time (ms),CH1 Auto-Correlation
1.0,0.08457794785499573
2.0,0.07784748077392578
3.0,0.07204064726829529
4.0,0.0670943632721901
5.0,0.06285794079303741
6.0,0.05917557701468468
7.0,0.055903274565935135
8.0,0.0528104305267334
9.0,0.050025198608636856
10.0,0.04745354875922203
11.0,0.04495541751384735
12.0,0.04269706830382347
13.0,0.04074505344033241
14.0,0.039069078862667084
15.0,0.037444818764925
16.0,0.03578844293951988
18.0,0.033244047313928604
20.0,0.03107154183089733
22.0,0.029023978859186172
24.0,0.02697831578552723
26.0,0.02489417791366577
28.0,0.023136431351304054
30.0,0.021755401045084
32.0,0.020008161664009094
36.0,0.017389625310897827
40.0,0.015300094150006771
44.0,0.013538629747927189
48.0,0.012102366425096989
52.0,0.011273065581917763
56.0,0.010531929321587086
60.0,0.010413013398647308
64.0,0.010135024785995483
72.0,0.009881201200187206
80.0,0.00881931558251381
88.0,0.00746773649007082
96.0,0.006521089933812618
104.0,0.0055061522871255875
112.0,0.00357972108758986
120.0,0.0027536125853657722
128.0,0.0008157439879141748
144.0,-0.0006116608856245875
160.0,0.002968525281175971
176.0,0.003227404085919261
192.0,0.0036063138395547867
208.0,0.0026746054645627737
224.0,0.0015167111996561289
240.0,0.0018688002601265907
256.0,0.0015182412462309003
288.0,0.0019194564083591104
320.0,0.0022772052325308323
352.0,0.00777451740577817
384.0,0.002187916310504079
416.0,0.002962760627269745
448.0,-0.0003642076626420021
480.0,-0.0029681124724447727
512.0,-0.004774860106408596
576.0,-0.0007492010481655598
640.0,0.0023637604899704456
704.0,0.005420299246907234
768.0,0.002152060391381383
832.0,-0.0006260931259021163
896.0,-0.004391045775264502
960.0,0.00038371648406609893
1024.0,0.0019077748293057084
1152.0,0.0010183280101045966
1280.0,0.0007954539614729583
1408.0,0.002861981512978673
1536.0,0.002484936034306884
1664.0,0.0054733119904994965
1792.0,0.0008008306031115353
1920.0,-0.00309049803763628
2048.0,0.002061642473563552
2304.0,-0.0002534853992983699
2560.0,-0.0021635349839925766
2816.0,-0.002334791701287031
3072.0,-0.0027609600219875574
3328.0,-1.0986572306137532e-05
3584.0,-0.0005865867715328932
3840.0,-0.0014752836432307959
4096.0,-0.002701639663428068
4608.0,-0.0008164825267158449
5120.0,-0.0030872810166329145
5632.0,-0.0017662609461694956
6144.0,-0.0009246023837476969
6656.0,0.0014110776828601956
7168.0,-0.0007127344724722207
7680.0,0.001624141470529139
8192.0,0.0013550412841141224
9216.0,-0.0015721075469627976
10240.0,-0.0013104897225275636
11264.0,-0.0038586577866226435
12288.0,0.0013402175391092896
13312.0,0.0007807756192050874
14336.0,0.003513931529596448
end
