version,3.0
numOfCh,1
type,point
parent_name,8-cuts
ch_type,1_1
kcount,1
numberNandB,1
brightnessNandB,1
carpet pos,0
pc,0
Time (ms),CH1 Auto-Correlation
1.0,0.026906693354249
2.0,0.024754326790571213
3.0,0.022928811609745026
4.0,0.021361108869314194
5.0,0.02004089206457138
6.0,0.018842553719878197
7.0,0.01773896999657154
8.0,0.01672639697790146
9.0,0.01581459864974022
10.0,0.015051501803100109
11.0,0.014412587508559227
12.0,0.013855709694325924
13.0,0.013294572941958904
14.0,0.012793570756912231
15.0,0.012322500348091125
16.0,0.0119000393897295
18.0,0.011158999986946583
20.0,0.010523386299610138
22.0,0.009941622614860535
24.0,0.009398122318089008
26.0,0.008841670118272305
28.0,0.008360249921679497
30.0,0.00793568417429924
32.0,0.007533223833888769
36.0,0.006572441663593054
40.0,0.0060480753891170025
44.0,0.005906957667320967
48.0,0.005793632008135319
52.0,0.0054984139278531075
56.0,0.004978455137461424
60.0,0.004717652685940266
64.0,0.004512597341090441
72.0,0.0037748131435364485
80.0,0.0025715043302625418
88.0,0.0016137873753905296
96.0,0.001258277683518827
104.0,0.0009137247106991708
112.0,0.0006507352809421718
120.0,0.0006053539691492915
128.0,0.0006941471947357059
144.0,0.0005039394600316882
160.0,0.00023869315919000655
176.0,0.00034764112206175923
192.0,0.00033341976813971996
208.0,-0.0003098546003457159
224.0,-0.00044473999878391623
240.0,0.00010175536590395495
256.0,-0.0003126475203316659
288.0,-0.0006493933615274727
320.0,-0.0008202223689295352
352.0,-0.0008911056211218238
384.0,-0.0004927230766043067
416.0,0.0003102628979831934
448.0,0.0008997853728942573
480.0,0.0018266262486577034
512.0,0.0019752541556954384
576.0,0.002786802826449275
640.0,0.0027032378129661083
704.0,0.0010486431419849396
768.0,0.0005520249251276255
832.0,0.0014361226931214333
896.0,0.00034618831705302
960.0,-0.0011392311425879598
1024.0,-0.00040534327854402363
1152.0,0.000706140766851604
1280.0,0.0002247219963464886
1408.0,-6.33601302979514e-05
1536.0,-0.0017381878569722176
1664.0,-0.0004116014461033046
1792.0,0.0005526652676053345
1920.0,-0.0008235967834480107
2048.0,-0.0018923735478892922
2304.0,-0.0004077887278981507
2560.0,-0.0011126789031550288
2816.0,-0.0003764938155654818
3072.0,-0.0004777269787155092
3328.0,-0.0003507236251607537
3584.0,-0.001337216468527913
3840.0,-0.0005719733890146017
4096.0,0.0001967974822036922
4608.0,-0.000900783808901906
5120.0,0.00025852350518107414
5632.0,0.00042510105413384736
6144.0,0.0011633677640929818
6656.0,0.0005651124520227313
7168.0,-0.0001503695093560964
7680.0,-0.0010970544535666704
8192.0,-0.00033034116495400667
9216.0,-0.00018911244114860892
10240.0,-0.00018852863286156207
11264.0,0.00025886413641273975
12288.0,0.0010662227869033813
13312.0,-0.0004553809412755072
14336.0,-0.0015685182297602296
end
