version,3.0
numOfCh,1
type,point
parent_name,8-cuts
ch_type,1_1
kcount,1
numberNandB,1
brightnessNandB,1
carpet pos,0
pc,0
Time (ms),CH1 Auto-Correlation
1.0,0.029148828238248825
2.0,0.027004947885870934
3.0,0.02512950450181961
4.0,0.023526212200522423
5.0,0.022120555862784386
6.0,0.020848175510764122
7.0,0.019746482372283936
8.0,0.0187523253262043
9.0,0.01781059056520462
10.0,0.01695215329527855
11.0,0.016131673008203506
12.0,0.015333103947341442
13.0,0.014606371521949768
14.0,0.013913492672145367
15.0,0.013353018090128899
16.0,0.012807860039174557
18.0,0.011801701970398426
20.0,0.010942130349576473
22.0,0.010169917717576027
24.0,0.009498389437794685
26.0,0.008910249918699265
28.0,0.008270397782325745
30.0,0.007637353148311377
32.0,0.007001934107393026
36.0,0.005939096678048372
40.0,0.0053351507522165775
44.0,0.005019150208681822
48.0,0.004897474776953459
52.0,0.004841451533138752
56.0,0.0047892238944768906
60.0,0.004497041925787926
64.0,0.004141573794186115
72.0,0.0037091209087520838
80.0,0.0037303606513887644
88.0,0.00331355188973248
96.0,0.0023983237333595753
104.0,0.0017278309678658843
112.0,0.0016037541208788753
120.0,0.0013477051397785544
128.0,0.0010302676819264889
144.0,0.0006922397296875715
160.0,0.00015742502000648528
176.0,-0.0003891145752277225
192.0,-0.0002710204862523824
208.0,5.7395904150325805e-05
224.0,7.686631579417735e-05
240.0,-0.00016983432578854263
256.0,-0.000705118291079998
288.0,0.00033840187825262547
320.0,-0.00022155596525408328
352.0,-5.514181611943059e-05
384.0,-0.000554826227016747
416.0,-0.0007561387028545141
448.0,8.252236875705421e-05
480.0,0.0007196249789558351
512.0,0.0016814317787066102
576.0,0.0019737486727535725
640.0,0.0009914967231452465
704.0,0.0007812423864379525
768.0,0.0015586345689371228
832.0,0.0007623164565302432
896.0,0.00024222405045293272
960.0,-0.0012884137686342
1024.0,-0.0013374866684898734
1152.0,-0.00016362828318960965
1280.0,-0.0011876969365403056
1408.0,-0.0010742461308836937
1536.0,-0.0005895867361687124
1664.0,-0.0005380249349400401
1792.0,-0.0009853077353909612
1920.0,-0.0018618233734741807
2048.0,-0.0012949287192896008
2304.0,-0.0005266397492960095
2560.0,-0.0008136271499097347
2816.0,-0.0010445888619869947
3072.0,0.00015382375568151474
3328.0,-3.061109237023629e-05
3584.0,0.0005591807421296835
3840.0,0.0002110998466378078
4096.0,0.0006312822224572301
4608.0,0.0007865773513913155
5120.0,6.438894342863932e-05
5632.0,0.00046828645281493664
6144.0,-0.0005355849862098694
6656.0,-0.00030253143631853163
7168.0,0.00017636215488892049
7680.0,-0.0007564945262856781
8192.0,0.000127513034385629
9216.0,0.0001464722736272961
10240.0,0.00020518832025118172
11264.0,0.0008911805343814194
12288.0,-5.002948091714643e-05
13312.0,-0.0028875151183456182
14336.0,-0.0006917433929629624
end
