version,3.0
numOfCh,1
type,point
parent_name,8-cuts
ch_type,1_1
kcount,1
numberNandB,1
brightnessNandB,1
carpet pos,0
pc,0
Time (ms),CH1 Auto-Correlation
1.0,0.08863454312086105
2.0,0.08198689669370651
3.0,0.07602542638778687
4.0,0.07077303528785706
5.0,0.06625382602214813
6.0,0.062274590134620667
7.0,0.05875681713223457
8.0,0.05575970932841301
9.0,0.05305417999625206
10.0,0.050350528210401535
11.0,0.047825418412685394
12.0,0.04541124403476715
13.0,0.043427228927612305
14.0,0.04156377539038658
15.0,0.039663996547460556
16.0,0.03808656334877014
18.0,0.0353650338947773
20.0,0.03330760449171066
22.0,0.03144080564379692
24.0,0.02997650019824505
26.0,0.02852090448141098
28.0,0.02675723470747471
30.0,0.025098763406276703
32.0,0.02419699914753437
36.0,0.022514110431075096
40.0,0.02005142718553543
44.0,0.017647666856646538
48.0,0.015536453574895859
52.0,0.013587504625320435
56.0,0.012022537179291248
60.0,0.011265164241194725
64.0,0.010811654850840569
72.0,0.008716261945664883
80.0,0.006810170132666826
88.0,0.007128603756427765
96.0,0.007906582206487656
104.0,0.007435031700879335
112.0,0.007538268808275461
120.0,0.007861264981329441
128.0,0.007924788631498814
144.0,0.005234149284660816
160.0,0.002024378627538681
176.0,-6.695528281852603e-05
192.0,-0.0012712462339550257
208.0,0.0017496163491159678
224.0,0.002558967098593712
240.0,0.0007659257971681654
256.0,-0.0011345078237354755
288.0,-0.002218266250565648
320.0,0.001635396503843367
352.0,-0.0007369481027126312
384.0,-0.0005468165618367493
416.0,0.003160159569233656
448.0,0.004110738635063171
480.0,0.0017982833087444305
512.0,-0.0018169396789744496
576.0,-0.0008396750199608505
640.0,-0.0013999466318637133
704.0,0.0003544166393112391
768.0,-0.002819973975419998
832.0,-0.00244264118373394
896.0,0.0002964274608530104
960.0,-0.001659113448113203
1024.0,0.0033863105345517397
1152.0,0.00146571290679276
1280.0,-0.0033401267137378454
1408.0,0.001790225855074823
1536.0,0.0003088270022999495
1664.0,-0.002566999988630414
1792.0,0.0010298637207597494
1920.0,-0.0019000128377228975
2048.0,-0.0049415696412324905
2304.0,0.0002977457770612091
2560.0,0.001149736694060266
2816.0,-0.002802149625495076
3072.0,-0.0007937230402603745
3328.0,-0.0016399282030761242
3584.0,-0.0028285367880016565
3840.0,-0.0012370988260954618
4096.0,-0.005830083508044481
4608.0,-0.0005517937242984772
5120.0,0.0001293051609536633
5632.0,0.00385076180100441
6144.0,-0.0024444235023111105
6656.0,0.0012469961075112224
7168.0,0.0007032428402453661
7680.0,-0.0008355228928849101
8192.0,0.004795935936272144
9216.0,-0.0006754574133083224
10240.0,0.0021835470106452703
11264.0,-0.0019714455120265484
12288.0,0.0005348030244931579
13312.0,0.0028152905870229006
14336.0,-0.00543233472853899
end
