version,3.0
numOfCh,1
type,point
parent_name,8-cuts
ch_type,1_1
kcount,1
numberNandB,1
brightnessNandB,1
carpet pos,0
pc,0
Time (ms),CH1 Auto-Correlation
1.0,0.09465008974075317
2.0,0.08786111325025558
3.0,0.08206018805503845
4.0,0.07707271724939346
5.0,0.07264372706413269
6.0,0.06877177208662033
7.0,0.06540890783071518
8.0,0.062363918870687485
9.0,0.059586867690086365
10.0,0.0570080429315567
11.0,0.054571643471717834
12.0,0.05217697098851204
13.0,0.0499008409678936
14.0,0.04791371524333954
15.0,0.04594124108552933
16.0,0.04419452324509621
18.0,0.041551947593688965
20.0,0.039225801825523376
22.0,0.037612952291965485
24.0,0.03602927178144455
26.0,0.03433804214000702
28.0,0.03244231268763542
30.0,0.03075931780040264
32.0,0.029100051149725914
36.0,0.026231644675135612
40.0,0.023719770833849907
44.0,0.021882427856326103
48.0,0.020602885633707047
52.0,0.019781623035669327
56.0,0.018416190519928932
60.0,0.016749223694205284
64.0,0.015171470120549202
72.0,0.013220713473856449
80.0,0.01136098150163889
88.0,0.009577352553606033
96.0,0.008928057737648487
104.0,0.00798944290727377
112.0,0.0072832051664590836
120.0,0.007800898049026728
128.0,0.007274220231920481
144.0,0.008867056109011173
160.0,0.010368680581450462
176.0,0.010925951413810253
192.0,0.011166315525770187
208.0,0.012373111210763454
224.0,0.009410969913005829
240.0,0.009374553337693214
256.0,0.008362453430891037
288.0,0.0035189709160476923
320.0,0.0019588263239711523
352.0,0.0022273575887084007
384.0,0.00276431767269969
416.0,0.0033602567855268717
448.0,0.002786014461889863
480.0,0.0008684879867359996
512.0,0.001242927392013371
576.0,0.0022780129220336676
640.0,0.0024378467351198196
704.0,-0.005586961749941111
768.0,-0.005906353704631329
832.0,-0.004147241357713938
896.0,-0.007703468669205904
960.0,-0.0076146903447806835
1024.0,-0.007086773868650198
1152.0,-0.0074325562454760075
1280.0,-0.008359147235751152
1408.0,-0.0043418556451797485
1536.0,-0.003950806800276041
1664.0,-0.0006628286791965365
1792.0,-0.0012343662092462182
1920.0,7.396852015517652e-05
2048.0,0.0005586959887295961
2304.0,0.003351627616211772
2560.0,0.0008598275599069893
2816.0,0.0027795559726655483
3072.0,0.0043019638396799564
3328.0,0.0028046409133821726
3584.0,-0.001735961646772921
3840.0,0.0002664924832060933
4096.0,-0.005380626767873764
4608.0,-0.0023027085699141026
5120.0,-0.0017259030137211084
5632.0,0.0018909953068941832
6144.0,0.00044658195110969245
6656.0,-0.000627491797786206
7168.0,-0.0016033467836678028
7680.0,0.0004244035517331213
8192.0,0.0024871169589459896
9216.0,0.0017193349776789546
10240.0,0.0032985261641442776
11264.0,-0.0038167268503457308
12288.0,0.0018069043289870024
13312.0,0.0015236897161230445
14336.0,-0.004027632996439934
end
