version,3.0
numOfCh,1
type,point
parent_name,8-cuts
ch_type,1_1
kcount,1
numberNandB,1
brightnessNandB,1
carpet pos,0
pc,0
Time (ms),CH1 Auto-Correlation
1.0,0.04015122726559639
2.0,0.03710083290934563
3.0,0.03444048389792442
4.0,0.03209006413817406
5.0,0.030033228918910027
6.0,0.0282377228140831
7.0,0.026646731421351433
8.0,0.02527342177927494
9.0,0.023984117433428764
10.0,0.022755824029445648
11.0,0.021716678515076637
12.0,0.02074330672621727
13.0,0.01982778124511242
14.0,0.019051121547818184
15.0,0.018343089148402214
16.0,0.017644191160798073
18.0,0.016479915007948875
20.0,0.015446004457771778
22.0,0.014326918870210648
24.0,0.013442803174257278
26.0,0.012556948699057102
28.0,0.011633320711553097
30.0,0.010790431872010231
32.0,0.010033066384494305
36.0,0.009104081429541111
40.0,0.00827424693852663
44.0,0.007532637566328049
48.0,0.007145091891288757
52.0,0.007214105222374201
56.0,0.006964238826185465
60.0,0.0067701502703130245
64.0,0.00668679503723979
72.0,0.006544079165905714
80.0,0.005997534841299057
88.0,0.005201586987823248
96.0,0.004509452264755964
104.0,0.004004503134638071
112.0,0.0033984018955379725
120.0,0.0031555176246911287
128.0,0.0032604909501969814
144.0,0.0026913522742688656
160.0,0.0031497974414378405
176.0,0.002304990543052554
192.0,0.0007799951708875597
208.0,-9.092495747609064e-05
224.0,-0.0010395923163741827
240.0,-0.0018300877418369055
256.0,-0.0019322981825098395
288.0,-0.0012908055214211345
320.0,-0.002463722601532936
352.0,-0.0014706408837810159
384.0,-0.0013311292277649045
416.0,-5.9578327636700124e-05
448.0,-0.0006941771716810763
480.0,0.000531666271854192
512.0,0.0008541352581232786
576.0,0.0003050906234420836
640.0,0.0007492235163226724
704.0,0.00022856555006001145
768.0,-0.0007521779625676572
832.0,-0.00041171335033141077
896.0,0.000851762481033802
960.0,0.0006563029601238668
1024.0,0.0015394361689686775
1152.0,0.00011076242662966251
1280.0,0.00030050353961996734
1408.0,0.0012783781858161092
1536.0,0.0002289594558533281
1664.0,-0.0014610426733270288
1792.0,-0.003271842608228326
1920.0,-0.0022971518337726593
2048.0,-0.0003444983158260584
2304.0,-0.0014774218434467912
2560.0,-0.0006926481728442013
2816.0,-0.00031764930463396013
3072.0,-0.003107806434854865
3328.0,-0.0009916737908497453
3584.0,-0.0003146470698993653
3840.0,0.00035562572884373367
4096.0,-0.0009314066846854985
4608.0,0.0009541762410663068
5120.0,0.00029969518072903156
5632.0,0.0014273475389927626
6144.0,0.001167339738458395
6656.0,0.0015361537225544453
7168.0,-0.0004905785899609327
7680.0,-0.001568158739246428
8192.0,-0.001005043974146247
9216.0,-0.0007286400068551302
10240.0,-6.311052129603922e-05
11264.0,0.0003908978251274675
12288.0,0.0005913126515224576
13312.0,0.00019426557992119342
14336.0,-0.0003161064232699573
end
