version,3.0
numOfCh,1
type,point
parent_name,8-cuts
ch_type,1_1
kcount,1
numberNandB,1
brightnessNandB,1
carpet pos,0
pc,0
Time (ms),CH1 Auto-Correlation
1.0,0.038600243628025055
2.0,0.03535880148410797
3.0,0.03262800723314285
4.0,0.03025694005191326
5.0,0.02827758900821209
6.0,0.026406774297356606
7.0,0.02473510429263115
8.0,0.023236744105815887
9.0,0.02191106230020523
10.0,0.02066253125667572
11.0,0.019484421238303185
12.0,0.018465662375092506
13.0,0.017529066652059555
14.0,0.016683528199791908
15.0,0.01591598615050316
16.0,0.015122679993510246
18.0,0.013748825527727604
20.0,0.012533084489405155
22.0,0.01151641272008419
24.0,0.010764066129922867
26.0,0.010120823048055172
28.0,0.009411778301000595
30.0,0.008687086403369904
32.0,0.007975265383720398
36.0,0.006927636452019215
40.0,0.0058378237299621105
44.0,0.0049011497758328915
48.0,0.004348580725491047
52.0,0.003980399575084448
56.0,0.003926414065063
60.0,0.0038752455729991198
64.0,0.00383390043862164
72.0,0.003624257631599903
80.0,0.0027409163303673267
88.0,0.001982016721740365
96.0,0.0017782296054065228
104.0,0.0020606680773198605
112.0,0.001731649274006486
120.0,0.0013243525754660368
128.0,0.0013005039654672146
144.0,0.0012120933970436454
160.0,0.0014602291630581021
176.0,0.0014181288424879313
192.0,-0.0001609938044566661
208.0,-0.0010692315408959985
224.0,-0.0016642758855596185
240.0,0.0005645396886393428
256.0,0.0013708459446206689
288.0,0.0010838413145393133
320.0,0.0012496461858972907
352.0,0.0007393257692456245
384.0,0.0004569381708279252
416.0,0.0012922333553433418
448.0,0.0018461955478414893
480.0,-0.0004850968543905765
512.0,-0.00019903968495782465
576.0,-0.0016917175380513072
640.0,-0.0007744901813566685
704.0,-0.0013317862758412957
768.0,-0.0014927007723599672
832.0,-0.0018516150303184986
896.0,-0.0013402265030890703
960.0,-0.000273185723926872
1024.0,0.00036208672099746764
1152.0,0.00010958377970382571
1280.0,-0.0015581462066620588
1408.0,-0.0008959236438386142
1536.0,0.0009084696648642421
1664.0,0.0008710079127922654
1792.0,-9.125283395405859e-05
1920.0,-0.0002602689783088863
2048.0,0.0007420832407660782
2304.0,7.469775482604746e-06
2560.0,-0.0005039477255195379
2816.0,-4.4743315811501816e-05
3072.0,0.000174208777025342
3328.0,-0.00150727026630193
3584.0,0.00011182729940628633
3840.0,0.0005478023085743189
4096.0,0.0014916122891008854
4608.0,-0.0008601451409049332
5120.0,-0.0015482616145163774
5632.0,0.0006841778522357345
6144.0,0.00035272122477181256
6656.0,-0.0007666024030186236
7168.0,-0.0012948832008987665
7680.0,0.0007505114190280437
8192.0,0.001070060534402728
9216.0,0.0005747789982706308
10240.0,-0.001067498465999961
11264.0,0.0008151138317771256
12288.0,-0.0004165036079939455
13312.0,-0.000351557566318661
14336.0,0.0015633536968380213
end
