version,3.0
numOfCh,1
type,point
parent_name,8-cuts
ch_type,1_1
kcount,1
numberNandB,1
brightnessNandB,1
carpet pos,0
pc,0
Time (ms),CH1 Auto-Correlation
1.0,0.04350568726658821
2.0,0.04029760882258415
3.0,0.03750098869204521
4.0,0.03505390137434006
5.0,0.03278711438179016
6.0,0.030863987281918526
7.0,0.029118886217474937
8.0,0.027628622949123383
9.0,0.02635064721107483
10.0,0.02535238303244114
11.0,0.024404358118772507
12.0,0.023546308279037476
13.0,0.022801300510764122
14.0,0.022093676030635834
15.0,0.021420324221253395
16.0,0.020840445533394814
18.0,0.019748015329241753
20.0,0.01874370686709881
22.0,0.017875008285045624
24.0,0.017229998484253883
26.0,0.016421234235167503
28.0,0.01550743542611599
30.0,0.014692427590489388
32.0,0.013919342309236526
36.0,0.01286473497748375
40.0,0.012211844325065613
44.0,0.011488624848425388
48.0,0.010807284153997898
52.0,0.009830992668867111
56.0,0.009258014149963856
60.0,0.009256692603230476
64.0,0.008725719526410103
72.0,0.007889809086918831
80.0,0.007415140978991985
88.0,0.006709857378154993
96.0,0.006397253833711147
104.0,0.00569817703217268
112.0,0.004572599660605192
120.0,0.0037077032029628754
128.0,0.0030719542410224676
144.0,0.0020977116655558348
160.0,0.0024750172160565853
176.0,0.0026817729230970144
192.0,0.0021491379011422396
208.0,0.0013431126717478037
224.0,0.002368207322433591
240.0,0.0030591494869440794
256.0,0.0021275042090564966
288.0,0.0010398938320577145
320.0,-0.0009632113506086171
352.0,-0.0008725921506993473
384.0,-0.0024627544917166233
416.0,-0.0024239798076450825
448.0,-0.0010787919163703918
480.0,0.00012538666487671435
512.0,0.00037094386061653495
576.0,-0.001251713838428259
640.0,-0.00132560555357486
704.0,0.0005684880306944251
768.0,0.0003362111165188253
832.0,0.00024419024703092873
896.0,0.00015442010771948844
960.0,-0.00033727215486578643
1024.0,0.0008002844988368452
1152.0,-0.0010939148487523198
1280.0,-0.0010728485649451613
1408.0,-0.0007874048314988613
1536.0,-0.0007219032850116491
1664.0,0.0008148276247084141
1792.0,0.0008147141779772937
1920.0,0.0008718908648006618
2048.0,-0.002080769743770361
2304.0,7.033529254840687e-05
2560.0,-0.00016308068006765097
2816.0,0.0033769358415156603
3072.0,-0.0019816451240330935
3328.0,0.002107783919200301
3584.0,0.0017624334432184696
3840.0,0.0014181165024638176
4096.0,-0.002588503062725067
4608.0,-0.0011243649059906602
5120.0,-0.0019215273205190897
5632.0,5.351124855224043e-05
6144.0,0.0005194433615542948
6656.0,0.0006089628441259265
7168.0,-0.0009205042733810842
7680.0,-0.0011060856049880385
8192.0,-0.0037920817267149687
9216.0,0.0004501124785747379
10240.0,-0.0006207363330759108
11264.0,0.00036264394293539226
12288.0,0.0012174162548035383
13312.0,0.0009981809416785836
14336.0,-0.0008573870873078704
end
