version,3.0
numOfCh,1
type,point
parent_name,8-cuts
ch_type,1_1
kcount,1
numberNandB,1
brightnessNandB,1
carpet pos,0
pc,0
Time (ms),CH1 Auto-Correlation
1.0,0.02645963430404663
2.0,0.024190954864025116
3.0,0.022307727485895157
4.0,0.02075137570500374
5.0,0.01934250071644783
6.0,0.01812109909951687
7.0,0.017011968418955803
8.0,0.015975983813405037
9.0,0.015095897018909454
10.0,0.014284897595643997
11.0,0.013516080565750599
12.0,0.012843329459428787
13.0,0.0121986148878932
14.0,0.011681051924824715
15.0,0.01125283632427454
16.0,0.010855638422071934
18.0,0.010196363553404808
20.0,0.009588439017534256
22.0,0.008982726372778416
24.0,0.008463023230433464
26.0,0.007899188436567783
28.0,0.007336250972002745
30.0,0.006858919747173786
32.0,0.006283210124820471
36.0,0.005536264274269342
40.0,0.005196833051741123
44.0,0.0047055622562766075
48.0,0.004452517721801996
52.0,0.003952424507588148
56.0,0.0036885582376271486
60.0,0.003475103760138154
64.0,0.0030624496284872293
72.0,0.0027111247181892395
80.0,0.002652300288900733
88.0,0.0024967011995613575
96.0,0.002120442222803831
104.0,0.0016408710507676005
112.0,0.001456509344279766
120.0,0.001325546414591372
128.0,0.0017943342681974173
144.0,0.0020009977743029594
160.0,0.0020663028117269278
176.0,0.0012224437668919563
192.0,0.00029692286625504494
208.0,0.0009361215634271502
224.0,0.0008125068270601332
240.0,0.000489486672449857
256.0,-0.00026608348707668483
288.0,-0.0003578239993657917
320.0,-0.0003301840624772012
352.0,-8.853570034261793e-05
384.0,0.000623363652266562
416.0,-0.0003054443805012852
448.0,-5.376620902097784e-05
480.0,-0.0005256312433630228
512.0,-0.0011979930568486452
576.0,-0.0002703792415559292
640.0,0.000143377052154392
704.0,0.0009060776210390031
768.0,0.0002999770804308355
832.0,-0.000498674635309726
896.0,9.193479490932077e-05
960.0,-0.0002564903406891972
1024.0,-0.001141273183748126
1152.0,-0.0012435781536623836
1280.0,-9.993220010073856e-05
1408.0,-0.000301086314721033
1536.0,-0.0005771837895736098
1664.0,0.00035190212656743824
1792.0,0.0005104891606606543
1920.0,0.00023370010603684932
2048.0,-0.00026410905411466956
2304.0,0.000408033694839105
2560.0,-0.0003566897357814014
2816.0,-0.0006859065033495426
3072.0,-0.00017969093460123986
3328.0,-0.00031486270017921925
3584.0,-0.00010866892262129113
3840.0,-0.0003661100927274674
4096.0,-0.0007869199616834521
4608.0,0.00021837613894604146
5120.0,-0.00039432436460629106
5632.0,-0.0007210185867734253
6144.0,-1.6455562217743136e-05
6656.0,0.00022970895224716514
7168.0,0.0001243821025127545
7680.0,0.0004483422380872071
8192.0,-0.000548176933079958
9216.0,0.0009711761958897114
10240.0,-0.0011016856878995895
11264.0,0.0008311985293403268
12288.0,0.0002493599895387888
13312.0,0.0011220989981666207
14336.0,-0.0032192026264965534
end
