version,3.0
numOfCh,1
type,point
parent_name,8-cuts
ch_type,1_1
kcount,1
numberNandB,1
brightnessNandB,1
carpet pos,0
pc,0
Time (ms),CH1 Auto-Correlation
1.0,0.04064799100160599
2.0,0.03743010759353638
3.0,0.034651048481464386
4.0,0.03224557265639305
5.0,0.030119530856609344
6.0,0.02820117399096489
7.0,0.0265556201338768
8.0,0.02505600079894066
9.0,0.023662909865379333
10.0,0.022337405011057854
11.0,0.021177202463150024
12.0,0.020122360438108444
13.0,0.019172778353095055
14.0,0.01833486557006836
15.0,0.017561523243784904
16.0,0.016805699095129967
18.0,0.015467100776731968
20.0,0.014372358098626137
22.0,0.013366668485105038
24.0,0.012480244040489197
26.0,0.011550034396350384
28.0,0.010768120177090168
30.0,0.009907898493111134
32.0,0.009219841100275517
36.0,0.00830114260315895
40.0,0.007805353961884975
44.0,0.00763080595061183
48.0,0.007549253758043051
52.0,0.007310101296752691
56.0,0.007116055581718683
60.0,0.006692429538816214
64.0,0.005799374543130398
72.0,0.004485797137022018
80.0,0.0034308433532714844
88.0,0.0031621030066162348
96.0,0.0027691200375556946
104.0,0.0021653827279806137
112.0,0.002376008313149214
120.0,0.002191735664382577
128.0,0.001673426479101181
144.0,0.0021827949676662683
160.0,0.0015757931396365166
176.0,0.0011287909001111984
192.0,0.0012916438281536102
208.0,0.0020806179381906986
224.0,0.0023411631118506193
240.0,0.0017351561691612005
256.0,0.0012361510889604688
288.0,0.0006895711412653327
320.0,0.0008868046570569277
352.0,0.0005597766721621156
384.0,-0.00033224455546587706
416.0,-0.0015392433851957321
448.0,-0.0019167796708643436
480.0,-0.00011665976489894092
512.0,-0.0011119470000267029
576.0,8.57521008583717e-05
640.0,0.0019408614607527852
704.0,0.0019960980862379074
768.0,0.002298919251188636
832.0,-0.0006147733074612916
896.0,-0.0011941582197323442
960.0,-0.0018327102297917008
1024.0,-0.0008395600598305464
1152.0,-0.0017531735356897116
1280.0,-8.467775478493422e-05
1408.0,0.0009842818835750222
1536.0,0.0006027822382748127
1664.0,-0.0001269894710276276
1792.0,-0.0009612090070731938
1920.0,-0.00044143522973172367
2048.0,-0.0009478561114519835
2304.0,0.001887125545181334
2560.0,-0.0008253995911218226
2816.0,-0.0008089040056802332
3072.0,0.0014563967706635594
3328.0,-0.0009607321117073298
3584.0,-0.00032632224611006677
3840.0,0.001289655570872128
4096.0,-0.000575132726226002
4608.0,0.0003403568116482347
5120.0,-0.0020436851773411036
5632.0,-0.00012506298662628978
6144.0,0.0004313634417485446
6656.0,-0.0015716401394456625
7168.0,-0.00012796714145224541
7680.0,0.0005516739329323173
8192.0,-0.0015935114352032542
9216.0,-0.00011875970812980086
10240.0,0.001636242843233049
11264.0,-0.0016556972404941916
12288.0,-0.00037153068115003407
13312.0,0.0035424011293798685
14336.0,0.00024548545479774475
end
