version,3.0
numOfCh,1
type,point
parent_name,8-cuts
ch_type,1_1
kcount,1
numberNandB,1
brightnessNandB,1
carpet pos,0
pc,0
Time (ms),CH1 Auto-Correlation
1.0,0.0908861979842186
2.0,0.08418479561805725
3.0,0.07843140512704849
4.0,0.0734342634677887
5.0,0.06908822059631348
6.0,0.06532599776983261
7.0,0.061945244669914246
8.0,0.05915214121341705
9.0,0.05668533593416214
10.0,0.054198991507291794
11.0,0.051832254976034164
12.0,0.04966316744685173
13.0,0.04768192395567894
14.0,0.04605494439601898
15.0,0.04438488557934761
16.0,0.042806293815374374
18.0,0.03957855701446533
20.0,0.036620546132326126
22.0,0.03443756327033043
24.0,0.0327252522110939
26.0,0.0313645675778389
28.0,0.030121389776468277
30.0,0.02873929962515831
32.0,0.02734743244946003
36.0,0.02558848261833191
40.0,0.02383003570139408
44.0,0.02275078557431698
48.0,0.02155681699514389
52.0,0.021252373233437538
56.0,0.02107248082756996
60.0,0.02047862857580185
64.0,0.018997797742486
72.0,0.017747385427355766
80.0,0.015781106427311897
88.0,0.014262997545301914
96.0,0.01328353676944971
104.0,0.012826801277697086
112.0,0.011939849704504013
120.0,0.011422383598983288
128.0,0.010871529579162598
144.0,0.010241628624498844
160.0,0.010156448930501938
176.0,0.008986773900687695
192.0,0.009343072772026062
208.0,0.008086573332548141
224.0,0.007145919371396303
240.0,0.005224789027124643
256.0,0.005878857336938381
288.0,0.005114404484629631
320.0,0.0025905922520905733
352.0,0.002216306747868657
384.0,0.0024599663447588682
416.0,0.00032045404077507555
448.0,0.0022013839334249496
480.0,0.003912451211363077
512.0,0.0036533200182020664
576.0,0.0029239347204566
640.0,0.0018429799238219857
704.0,-0.002042833250015974
768.0,0.004081725142896175
832.0,0.005403351504355669
896.0,0.005031396169215441
960.0,0.005364058073610067
1024.0,0.0070075117982923985
1152.0,0.0016247513704001904
1280.0,-0.002431461587548256
1408.0,-0.006707165390253067
1536.0,-0.004430785309523344
1664.0,-0.0003125046205241233
1792.0,-0.0023594938684254885
1920.0,0.0013873442076146603
2048.0,-0.0019431766122579575
2304.0,-0.0024642262142151594
2560.0,0.002957633463665843
2816.0,0.005254287272691727
3072.0,0.0006977205048315227
3328.0,-6.22285733697936e-05
3584.0,0.002481509232893586
3840.0,0.006038637366145849
4096.0,-0.0019987202249467373
4608.0,-0.003961347974836826
5120.0,-0.00046811907668597996
5632.0,-0.0010214742505922914
6144.0,-0.0011495023500174284
6656.0,-0.001988222124055028
7168.0,-0.005374841392040253
7680.0,-0.0027599020395427942
8192.0,-0.0014221029123291373
9216.0,0.002245494397357106
10240.0,-0.006058074999600649
11264.0,-0.007152879144996405
12288.0,0.004069058690220118
13312.0,0.009229323826730251
14336.0,-0.005650124978274107
end
