version,3.0
numOfCh,1
type,point
parent_name,8-cuts
ch_type,1_1
kcount,1
numberNandB,1
brightnessNandB,1
carpet pos,0
pc,0
Time (ms),CH1 Auto-Correlation
1.0,0.02808673493564129
2.0,0.02605772763490677
3.0,0.02431151084601879
4.0,0.022787202149629593
5.0,0.021419594064354897
6.0,0.020229369401931763
7.0,0.019107673317193985
8.0,0.018140388652682304
9.0,0.017262505367398262
10.0,0.016448907554149628
11.0,0.015711089596152306
12.0,0.015075607225298882
13.0,0.014525261707603931
14.0,0.013973014429211617
15.0,0.013497109524905682
16.0,0.013038983568549156
18.0,0.01219816505908966
20.0,0.011406204663217068
22.0,0.010624135844409466
24.0,0.01001835335046053
26.0,0.009433477185666561
28.0,0.008899657055735588
30.0,0.00841368455439806
32.0,0.007946331053972244
36.0,0.007263137027621269
40.0,0.006656707730144262
44.0,0.006053042598068714
48.0,0.005780342034995556
52.0,0.005533243995159864
56.0,0.0052845836617052555
60.0,0.004897802136838436
64.0,0.004536467604339123
72.0,0.0036566273774951696
80.0,0.0035112062469124794
88.0,0.003416891908273101
96.0,0.0032909049186855555
104.0,0.003150597680360079
112.0,0.0027568163350224495
120.0,0.0023926193825900555
128.0,0.001889407983981073
144.0,0.0010875118896365166
160.0,0.0013253038050606847
176.0,0.001974755199626088
192.0,0.0018773513147607446
208.0,0.0008156356052495539
224.0,7.875673327362165e-05
240.0,0.000320270424708724
256.0,0.001482333056628704
288.0,0.0019270755583420396
320.0,0.0016269668703898787
352.0,0.0015554320998489857
384.0,-0.00031255310750566423
416.0,-0.000520017696544528
448.0,0.00017363688675686717
480.0,0.00011640912998700514
512.0,-0.0006480785086750984
576.0,-0.0014360742643475533
640.0,-0.0005487443413585424
704.0,-0.0002192417741753161
768.0,-0.00022263661958277225
832.0,-0.00011855435877805576
896.0,-0.0004943138919770718
960.0,-0.0013442104682326317
1024.0,-0.001030532643198967
1152.0,-6.955557910259813e-05
1280.0,-0.0003722777182701975
1408.0,0.0004815274151042104
1536.0,0.000984886079095304
1664.0,0.00016504286031704396
1792.0,0.0006721248500980437
1920.0,0.00010163035040022805
2048.0,-0.001016924506984651
2304.0,-0.0007006684900261462
2560.0,-0.0005169147625565529
2816.0,0.00011037033254979178
3072.0,0.0010140110971406102
3328.0,-0.0005858077784068882
3584.0,-0.00031723728170618415
3840.0,0.0005608461215160787
4096.0,0.0003766473091673106
4608.0,-0.00027711130678653717
5120.0,3.927762372768484e-05
5632.0,-0.0014561547432094812
6144.0,-0.0007702375296503305
6656.0,-0.0007391708204522729
7168.0,-0.0003229948924854398
7680.0,-7.68548488849774e-05
8192.0,0.00016732365475036204
9216.0,0.00035085887066088617
10240.0,0.00032111481414176524
11264.0,-0.00016806827625259757
12288.0,0.00041225680615752935
13312.0,0.0012448118068277836
14336.0,-0.001382063957862556
end
