version,3.0
numOfCh,1
type,point
parent_name,8-cuts
ch_type,1_1
kcount,1
numberNandB,1
brightnessNandB,1
carpet pos,0
pc,0
Time (ms),CH1 Auto-Correlation
1.0,0.09466783702373505
2.0,0.08771206438541412
3.0,0.08178575336933136
4.0,0.0763503834605217
5.0,0.07145386934280396
6.0,0.06723418086767197
7.0,0.06351243704557419
8.0,0.06018604710698128
9.0,0.05726459622383118
10.0,0.054608218371868134
11.0,0.05206834897398949
12.0,0.04978378117084503
13.0,0.04746154323220253
14.0,0.04549286887049675
15.0,0.043541502207517624
16.0,0.04167848452925682
18.0,0.038018736988306046
20.0,0.034424204379320145
22.0,0.03131793439388275
24.0,0.028726298362016678
26.0,0.026369856670498848
28.0,0.024172835052013397
30.0,0.02230486460030079
32.0,0.020853154361248016
36.0,0.019654974341392517
40.0,0.018025122582912445
44.0,0.015980977565050125
48.0,0.01407699380069971
52.0,0.012221059761941433
56.0,0.011434475891292095
60.0,0.010454361326992512
64.0,0.009282084181904793
72.0,0.007341219577938318
80.0,0.005763163790106773
88.0,0.005701478570699692
96.0,0.00640763808041811
104.0,0.006213456392288208
112.0,0.005727760028094053
120.0,0.0044479588977992535
128.0,0.004053141456097364
144.0,0.0031253527849912643
160.0,0.0012722968822345138
176.0,-0.0020400637295097113
192.0,-0.000921280006878078
208.0,0.000953109934926033
224.0,-0.0007368321530520916
240.0,-0.001094215433113277
256.0,-0.0018245783867314458
288.0,-0.0008603762253187597
320.0,-0.0009933869587257504
352.0,0.0015794263454154134
384.0,-0.00011411496961954981
416.0,-0.0009302824619226158
448.0,-0.0013201407855376601
480.0,-0.0018675347091630101
512.0,-0.0019434603163972497
576.0,0.0020091866608709097
640.0,-9.265798871638253e-05
704.0,-0.000544022477697581
768.0,-0.002515541622415185
832.0,-0.0017360849305987358
896.0,7.72046550991945e-05
960.0,0.0024436551611870527
1024.0,-0.001120616216212511
1152.0,-0.0026880567893385887
1280.0,0.00015204328519757837
1408.0,0.0012061895104125142
1536.0,-0.0008826721459627151
1664.0,-0.002526347292587161
1792.0,-0.003255009651184082
1920.0,-0.0035709755029529333
2048.0,-0.006288319826126099
2304.0,-0.0006422666483558714
2560.0,-0.002719573676586151
2816.0,0.0015490788500756025
3072.0,0.0008612099918536842
3328.0,5.72553944948595e-05
3584.0,0.0031100886408239603
3840.0,0.0007077626069076359
4096.0,0.002266828203573823
4608.0,0.001301134005188942
5120.0,-0.004124913364648819
5632.0,-0.0011525676818564534
6144.0,-0.0022413735277950764
6656.0,-0.0008912049233913422
7168.0,0.002485615201294422
7680.0,0.0026509889867156744
8192.0,0.0019639362581074238
9216.0,-0.0034288892056792974
10240.0,0.0006502448231913149
11264.0,5.6182692787842825e-05
12288.0,0.0023713649716228247
13312.0,1.7019265214912593e-05
14336.0,0.001110483892261982
end
