version,3.0
numOfCh,1
type,point
parent_name,8-cuts
ch_type,1_1
kcount,1
numberNandB,1
brightnessNandB,1
carpet pos,0
pc,0
Time (ms),CH1 Auto-Correlation
1.0,0.08359704911708832
2.0,0.07683134824037552
3.0,0.07090501487255096
4.0,0.0659349262714386
5.0,0.061634697020053864
6.0,0.057793036103248596
7.0,0.05443986505270004
8.0,0.051595158874988556
9.0,0.04889436066150665
10.0,0.04642894119024277
11.0,0.044399961829185486
12.0,0.0425279401242733
13.0,0.04115698114037514
14.0,0.03979865461587906
15.0,0.03840210288763046
16.0,0.03711765259504318
18.0,0.03439388424158096
20.0,0.03189355507493019
22.0,0.029652077704668045
24.0,0.02754327468574047
26.0,0.025500964373350143
28.0,0.024478204548358917
30.0,0.02373756654560566
32.0,0.023370129987597466
36.0,0.02284926176071167
40.0,0.02107364870607853
44.0,0.01923386938869953
48.0,0.017789484933018684
52.0,0.016259608790278435
56.0,0.015496485866606236
60.0,0.013872110284864902
64.0,0.012435263022780418
72.0,0.011362140066921711
80.0,0.010115153156220913
88.0,0.008212469518184662
96.0,0.007124085910618305
104.0,0.006076020188629627
112.0,0.005601390730589628
120.0,0.005193907767534256
128.0,0.003504033200442791
144.0,0.00041431441786698997
160.0,0.0020920278038829565
176.0,0.00116954674012959
192.0,0.0021895961835980415
208.0,0.002404985949397087
224.0,0.0020178284030407667
240.0,0.0033291953150182962
256.0,0.004088328219950199
288.0,0.006039042957127094
320.0,0.005170295014977455
352.0,0.0051221689209342
384.0,0.0028019770979881287
416.0,-0.00014957167149987072
448.0,0.002069831592962146
480.0,0.00011368045670678839
512.0,-0.0023106576409190893
576.0,-0.0014440888771787286
640.0,-0.0012295632623136044
704.0,-0.001035052351653576
768.0,-0.0012052329257130623
832.0,-0.00037054449785500765
896.0,0.0028324269223958254
960.0,0.0032739085145294666
1024.0,0.0003261476813349873
1152.0,-0.0016915708547458053
1280.0,-0.0037345478776842356
1408.0,-0.004528106190264225
1536.0,-0.004937965888530016
1664.0,-0.007354810368269682
1792.0,-0.003860282711684704
1920.0,-0.0037788962945342064
2048.0,-0.004098427481949329
2304.0,0.0007556461496278644
2560.0,0.00265061529353261
2816.0,0.002890904899686575
3072.0,0.003224270883947611
3328.0,0.0041298633441329
3584.0,-0.002255732426419854
3840.0,-0.001018664101138711
4096.0,-0.004896912723779678
4608.0,-0.0032474363688379526
5120.0,6.269208824960515e-05
5632.0,0.0032948299776762724
6144.0,-0.000374833878595382
6656.0,-0.0030121253803372383
7168.0,-0.0026301778852939606
7680.0,-0.0009557515732012689
8192.0,0.004629317671060562
9216.0,0.0030181235633790493
10240.0,-0.0025614008773118258
11264.0,0.00041771403630264103
12288.0,0.002271933015435934
13312.0,-0.0017515886574983597
14336.0,-0.00277232495136559
end
