version,3.0
numOfCh,1
type,point
parent_name,8-cuts
ch_type,1_1
kcount,1
numberNandB,1
brightnessNandB,1
carpet pos,0
pc,0
Time (ms),CH1 Auto-Correlation
1.0,0.08003853261470795
2.0,0.07368617504835129
3.0,0.06828361004590988
4.0,0.0635107234120369
5.0,0.05927971377968788
6.0,0.05565593019127846
7.0,0.05229165032505989
8.0,0.04922151565551758
9.0,0.04657968506217003
10.0,0.044388748705387115
11.0,0.042189668864011765
12.0,0.040197256952524185
13.0,0.0382702611386776
14.0,0.03646586462855339
15.0,0.03481420874595642
16.0,0.033055342733860016
18.0,0.030059179291129112
20.0,0.027395956218242645
22.0,0.02470974437892437
24.0,0.02228306606411934
26.0,0.020370682701468468
28.0,0.019042987376451492
30.0,0.018125826492905617
32.0,0.016956275328993797
36.0,0.015302728861570358
40.0,0.014039105735719204
44.0,0.012487580999732018
48.0,0.011770647950470448
52.0,0.011354556307196617
56.0,0.010967089794576168
60.0,0.011531870812177658
64.0,0.011463508941233158
72.0,0.01077419612556696
80.0,0.009417140856385231
88.0,0.007844622246921062
96.0,0.007726356852799654
104.0,0.007176344282925129
112.0,0.005926663056015968
120.0,0.003962744027376175
128.0,0.004003985319286585
144.0,0.003703370923176408
160.0,0.004448481369763613
176.0,0.0013710999628528953
192.0,-0.0007278009434230626
208.0,4.5704007789026946e-05
224.0,-0.0017106286250054836
240.0,-0.00230006268247962
256.0,-0.0030343022663146257
288.0,-0.0020256731659173965
320.0,0.0023758967872709036
352.0,0.002636444056406617
384.0,0.0016210968606173992
416.0,-0.0016414814162999392
448.0,5.691740079782903e-05
480.0,3.518900848575868e-05
512.0,-0.0004956236225552857
576.0,0.00029706707573495805
640.0,-0.002428434556350112
704.0,0.00011986541358055547
768.0,2.0865136320935562e-05
832.0,0.0011215261183679104
896.0,0.0008847826393321157
960.0,0.0012874872190877795
1024.0,0.003825556952506304
1152.0,0.0025219391100108624
1280.0,-0.0025410556700080633
1408.0,3.967100929003209e-05
1536.0,0.001394640770740807
1664.0,-0.00092380924616009
1792.0,-2.427502658974845e-05
1920.0,-0.0001175866273115389
2048.0,-0.0006043431349098682
2304.0,-0.0028850173112004995
2560.0,0.0018591828411445022
2816.0,-9.405427408637479e-05
3072.0,0.00015943577454891056
3328.0,-0.0022057052701711655
3584.0,-0.002731454325839877
3840.0,-0.001674152910709381
4096.0,0.002081054262816906
4608.0,0.00015650095883756876
5120.0,-0.0007033220026642084
5632.0,-0.0013665376463904977
6144.0,0.0011085198493674397
6656.0,0.0008341010543517768
7168.0,0.0016122412635013461
7680.0,0.00024065432080533355
8192.0,-0.003917233552783728
9216.0,-0.0023917104117572308
10240.0,-0.0013275628443807364
11264.0,0.0010385627392679453
12288.0,-0.00012347690062597394
13312.0,0.004653941374272108
14336.0,0.004452078603208065
end
