version,3.0
numOfCh,1
type,point
parent_name,8-cuts
ch_type,1_1
kcount,1
numberNandB,1
brightnessNandB,1
carpet pos,0
pc,0
Time (ms),CH1 Auto-Correlation
1.0,0.027491863816976547
2.0,0.02541680634021759
3.0,0.023627471178770065
4.0,0.022014925256371498
5.0,0.02058604545891285
6.0,0.019325459375977516
7.0,0.018112309277057648
8.0,0.01705927588045597
9.0,0.016071254387497902
10.0,0.01524074375629425
11.0,0.014494884759187698
12.0,0.01373802125453949
13.0,0.013118085451424122
14.0,0.012625358067452908
15.0,0.012192503549158573
16.0,0.011751114390790462
18.0,0.010922321118414402
20.0,0.010171908885240555
22.0,0.009576035663485527
24.0,0.009115634486079216
26.0,0.008757584728300571
28.0,0.008381474763154984
30.0,0.007975032553076744
32.0,0.00766388513147831
36.0,0.007252960931509733
40.0,0.007106023374944925
44.0,0.0069102756679058075
48.0,0.006550559774041176
52.0,0.005924391094595194
56.0,0.00555992079898715
60.0,0.005343850702047348
64.0,0.005063031800091267
72.0,0.004484052304178476
80.0,0.003938113339245319
88.0,0.0035942725371569395
96.0,0.0037783498410135508
104.0,0.004143758211284876
112.0,0.0038477310445159674
120.0,0.00320868706330657
128.0,0.0030164532363414764
144.0,0.002839738503098488
160.0,0.003188793547451496
176.0,0.0021319012157619
192.0,0.0015729009173810482
208.0,0.0020048748701810837
224.0,0.0013315724208950996
240.0,0.0010986089473590255
256.0,0.0023072015028446913
288.0,0.0030250537674874067
320.0,0.0022537894546985626
352.0,0.0018355827778577805
384.0,0.002191693289205432
416.0,0.0019072387367486954
448.0,0.001818175078369677
480.0,0.0008198006544262171
512.0,-0.0007575881318189204
576.0,0.00022552776499651372
640.0,0.0005482353735715151
704.0,-0.0005697820452041924
768.0,-0.0004886988317593932
832.0,-0.0005377642228268087
896.0,-0.0010374536504969
960.0,0.00012751147733069956
1024.0,-0.00039737479528412223
1152.0,-0.0009012228692881763
1280.0,-0.0006848948542028666
1408.0,-0.0007988617871887982
1536.0,-0.002203828888013959
1664.0,-0.0018418619874864817
1792.0,-0.002947846194729209
1920.0,-0.001992614474147558
2048.0,-0.0005737908068113029
2304.0,-3.971142359660007e-05
2560.0,-2.902199048548937e-05
2816.0,0.0007630439940840006
3072.0,0.001264849677681923
3328.0,0.0006845969473943114
3584.0,0.0010930524440482259
3840.0,0.0007759840227663517
4096.0,0.0012537017464637756
4608.0,-0.0015242359368130565
5120.0,-0.0012672517914324999
5632.0,-0.0015603576321154833
6144.0,0.00028048420790582895
6656.0,0.001201596693135798
7168.0,0.0018149197567254305
7680.0,0.0003907703794538975
8192.0,-0.00040609348798170686
9216.0,-0.0013168832520022988
10240.0,0.0009893918177112937
11264.0,-0.0008047250448726118
12288.0,-0.00019289940246380866
13312.0,0.00022414025443140417
14336.0,0.0005725381197407842
end
