version,3.0
numOfCh,1
type,point
parent_name,8-cuts
ch_type,1_1
kcount,1
numberNandB,1
brightnessNandB,1
carpet pos,0
pc,0
Time (ms),CH1 Auto-Correlation
1.0,0.0275042112916708
2.0,0.025319606065750122
3.0,0.023480474948883057
4.0,0.021899404004216194
5.0,0.02045765146613121
6.0,0.019156143069267273
7.0,0.018000034615397453
8.0,0.01695910282433033
9.0,0.016069019213318825
10.0,0.015269405208528042
11.0,0.014510716311633587
12.0,0.013763930648565292
13.0,0.01304562482982874
14.0,0.012397313490509987
15.0,0.011845252476632595
16.0,0.011359292082488537
18.0,0.010486384853720665
20.0,0.009726735763251781
22.0,0.009050318039953709
24.0,0.008465472608804703
26.0,0.007892629131674767
28.0,0.007329193409532309
30.0,0.006912193261086941
32.0,0.006506072357296944
36.0,0.005772956181317568
40.0,0.004963083192706108
44.0,0.004392302595078945
48.0,0.003970660734921694
52.0,0.0036001878324896097
56.0,0.0032044209074229
60.0,0.0027368918526917696
64.0,0.0023084506392478943
72.0,0.0016225220169872046
80.0,0.0016180261736735702
88.0,0.0012876836117357016
96.0,0.0017531679477542639
104.0,0.0023087600711733103
112.0,0.0019879858009517193
120.0,0.001522145583294332
128.0,0.0015899324789643288
144.0,0.0012924072798341513
160.0,0.00048538052942603827
176.0,-0.0007039114134386182
192.0,-0.0012417214456945658
208.0,-0.0019434799905866385
224.0,-0.001717607956379652
240.0,-0.0016026622615754604
256.0,-0.0013359753647819161
288.0,-0.001084521529264748
320.0,-0.001357420114800334
352.0,-0.001703001675195992
384.0,-0.0017472283216193318
416.0,-0.0016644718125462532
448.0,-0.0005784850800409913
480.0,-0.00021090627706144005
512.0,-0.0008844045223668218
576.0,-0.0004252785292919725
640.0,-0.0005330924177542329
704.0,-0.0005778811173513532
768.0,-0.0004888635594397783
832.0,-0.0006116812583059072
896.0,-0.0009080846793949604
960.0,-0.0004595820792019367
1024.0,-0.00023484471603296697
1152.0,0.0004767532809637487
1280.0,0.0009553824202157557
1408.0,0.0010121490340679884
1536.0,-0.0010969211580231786
1664.0,0.00048531880020163953
1792.0,-0.00013567048881668597
1920.0,-0.0005139841814525425
2048.0,-0.0007558521465398371
2304.0,0.00047639411059208214
2560.0,-0.0003372417122591287
2816.0,4.904532033833675e-05
3072.0,-0.0003017640847247094
3328.0,0.00044150894973427057
3584.0,-0.0005492985364980996
3840.0,-0.0008630335214547813
4096.0,0.0012775114737451077
4608.0,-0.0004735729598905891
5120.0,1.1308713254720715e-07
5632.0,0.0001404002687195316
6144.0,3.8119563328109507e-07
6656.0,0.0002890288014896214
7168.0,-0.0006982662016525865
7680.0,0.00028612735331989825
8192.0,-2.98963209388603e-06
9216.0,-5.792928277514875e-05
10240.0,-0.00014475628267973661
11264.0,-0.0003443218010943383
12288.0,0.00012263179814908653
13312.0,-0.00023751199478283525
14336.0,0.0003395589010324329
end
