version,3.0
numOfCh,1
type,point
parent_name,8-cuts
ch_type,1_1
kcount,1
numberNandB,1
brightnessNandB,1
carpet pos,0
pc,0
Time (ms),CH1 Auto-Correlation
1.0,0.08819187432527542
2.0,0.08143848180770874
3.0,0.07560984790325165
4.0,0.07075484842061996
5.0,0.06641040742397308
6.0,0.0624021515250206
7.0,0.05892346799373627
8.0,0.05598321557044983
9.0,0.05314365029335022
10.0,0.05047592148184776
11.0,0.047964680939912796
12.0,0.04555314779281616
13.0,0.043652117252349854
14.0,0.04192306846380234
15.0,0.04029350355267525
16.0,0.03857763856649399
18.0,0.03555180877447128
20.0,0.033011455088853836
22.0,0.030500533059239388
24.0,0.028235584497451782
26.0,0.026431189849972725
28.0,0.02482128143310547
30.0,0.023616982623934746
32.0,0.022565938532352448
36.0,0.02002793550491333
40.0,0.01742180995643139
44.0,0.01540164090692997
48.0,0.013995202258229256
52.0,0.012853761203587055
56.0,0.011393307708203793
60.0,0.009699505753815174
64.0,0.009035606868565083
72.0,0.008549822494387627
80.0,0.0067052957601845264
88.0,0.005088458769023418
96.0,0.004213431850075722
104.0,0.003031601430848241
112.0,0.0010170876048505306
120.0,-0.00020531489280983806
128.0,-0.0001463907101424411
144.0,0.0008287967066280544
160.0,0.000546809402294457
176.0,0.001122849527746439
192.0,8.203934703487903e-05
208.0,0.0011572387302294374
224.0,-0.00117924390360713
240.0,-0.002042431617155671
256.0,-0.0031504747457802296
288.0,-0.008875562809407711
320.0,-0.009867222048342228
352.0,-0.006820548791438341
384.0,-0.0054334537126123905
416.0,-0.0008630615193396807
448.0,-0.0011009746231138706
480.0,-0.0016427765367552638
512.0,-0.002075369469821453
576.0,-0.006481886375695467
640.0,-0.002349252114072442
704.0,-0.0059006656520068645
768.0,-0.003559967502951622
832.0,0.000920490303542465
896.0,0.003971666097640991
960.0,0.0042105126194655895
1024.0,-0.0007558153592981398
1152.0,-0.0006330113392323256
1280.0,-0.003470468567684293
1408.0,0.001168122747913003
1536.0,0.0031898736488074064
1664.0,0.004622775595635176
1792.0,-0.0023396359756588936
1920.0,-9.731054160511121e-05
2048.0,-0.0014871347229927778
2304.0,-0.004087977577000856
2560.0,0.0025097597390413284
2816.0,0.002619875827804208
3072.0,0.0009964583441615105
3328.0,0.0006907719071023166
3584.0,-0.0010357066057622433
3840.0,-0.002232656115666032
4096.0,0.001204458880238235
4608.0,-0.00012522948964033276
5120.0,-0.003082982264459133
5632.0,0.0038018717896193266
6144.0,-0.0012299114605411887
6656.0,0.0003685584815684706
7168.0,0.0018462407169863582
7680.0,-0.0031183764804154634
8192.0,3.892684617312625e-05
9216.0,-0.0007521932711824775
10240.0,0.00039472218486480415
11264.0,-6.391896022250876e-05
12288.0,-0.0007983485120348632
13312.0,0.00045248164678923786
14336.0,0.0004901187494397163
end
