version,3.0
numOfCh,1
type,point
parent_name,8-cuts
ch_type,1_1
kcount,1
numberNandB,1
brightnessNandB,1
carpet pos,0
pc,0
Time (ms),CH1 Auto-Correlation
1.0,0.026408353820443153
2.0,0.02429019846022129
3.0,0.02245458774268627
4.0,0.020838269963860512
5.0,0.019417857751250267
6.0,0.018148113042116165
7.0,0.017019039019942284
8.0,0.016040679067373276
9.0,0.015201237984001637
10.0,0.014423742890357971
11.0,0.013731242157518864
12.0,0.013110456056892872
13.0,0.01252542994916439
14.0,0.01199048850685358
15.0,0.011506722308695316
16.0,0.01101499143987894
18.0,0.010151832364499569
20.0,0.009415502659976482
22.0,0.008703790605068207
24.0,0.008077741600573063
26.0,0.007545392960309982
28.0,0.0071868631057441235
30.0,0.006950271315872669
32.0,0.0066917589865624905
36.0,0.006468979176133871
40.0,0.005982047878205776
44.0,0.005267626140266657
48.0,0.004400939214974642
52.0,0.003962678834795952
56.0,0.0034321036655455828
60.0,0.0029767199885100126
64.0,0.002630036324262619
72.0,0.0019952147267758846
80.0,0.001840165234170854
88.0,0.001527426764369011
96.0,0.0012845181627199054
104.0,0.0013392919208854437
112.0,0.0015098281437531114
120.0,0.0016532719600945711
128.0,0.0017957795644178987
144.0,0.00222225789912045
160.0,0.001802658080123365
176.0,0.001764876302331686
192.0,0.0020902901887893677
208.0,0.0021444023586809635
224.0,0.0019423937192186713
240.0,0.0016916906461119652
256.0,0.0015709915896877646
288.0,0.0009426383767277002
320.0,0.0007823434425517917
352.0,0.000650491623673588
384.0,0.000221081412746571
416.0,-0.00039335404289886355
448.0,-0.00024395473883487284
480.0,-0.00024336962087545544
512.0,-0.0005371107836253941
576.0,-0.00037450104719027877
640.0,0.00018668481789063662
704.0,0.00019998650532215834
768.0,0.001089923083782196
832.0,0.0003965514770243317
896.0,0.0010110220173373818
960.0,0.0018104144837707281
1024.0,0.0002944380394183099
1152.0,0.0007881232886575162
1280.0,0.0003071895334869623
1408.0,-0.00011638168507488444
1536.0,-0.000162145821377635
1664.0,-0.0003288007283117622
1792.0,-0.0007879280601628125
1920.0,-0.0008019877132028341
2048.0,-0.0008774597081355751
2304.0,9.703954128781334e-05
2560.0,-0.0010730866342782974
2816.0,-0.0009568759123794734
3072.0,-9.683649841463193e-05
3328.0,-0.00017081521218642592
3584.0,-0.0017308371607214212
3840.0,-0.0016690026968717575
4096.0,-0.002045273780822754
4608.0,-0.0006221688818186522
5120.0,-0.0005559943965636194
5632.0,0.001320336014032364
6144.0,0.0008399598300457001
6656.0,0.0013052653521299362
7168.0,0.0007672176579944789
7680.0,0.000600900559220463
8192.0,0.0005335875903256238
9216.0,-0.0008129309862852097
10240.0,-0.0011379775824025273
11264.0,-0.0005755783058702946
12288.0,-0.0007878647302277386
13312.0,0.0007224834989756346
14336.0,0.0015195587184280157
end
