version,3.0
numOfCh,1
type,point
parent_name,8-cuts
ch_type,1_1
kcount,1
numberNandB,1
brightnessNandB,1
carpet pos,0
pc,0
Time (ms),CH1 Auto-Correlation
1.0,0.02780839428305626
2.0,0.025699591264128685
3.0,0.023862004280090332
4.0,0.0222785584628582
5.0,0.02088281139731407
6.0,0.019606512039899826
7.0,0.01849491335451603
8.0,0.017471563071012497
9.0,0.016582181677222252
10.0,0.015788622200489044
11.0,0.01498645544052124
12.0,0.01424136757850647
13.0,0.013614701107144356
14.0,0.013128005899488926
15.0,0.012605153024196625
16.0,0.012105255387723446
18.0,0.011093963868916035
20.0,0.010248619131743908
22.0,0.00951346755027771
24.0,0.008838494308292866
26.0,0.008205900900065899
28.0,0.007757259998470545
30.0,0.007338220719248056
32.0,0.0069592478685081005
36.0,0.006251043174415827
40.0,0.005581140052527189
44.0,0.005143734160810709
48.0,0.004768129903823137
52.0,0.0044680871069431305
56.0,0.004207604099065065
60.0,0.004070407710969448
64.0,0.003672879422083497
72.0,0.0030048645567148924
80.0,0.0024598506279289722
88.0,0.002085257787257433
96.0,0.001575659611262381
104.0,0.0014122730353847146
112.0,0.0014762072823941708
120.0,0.0013061714125797153
128.0,0.0009025555336847901
144.0,0.0005223111365921795
160.0,0.0012278093490749598
176.0,0.0011718298774212599
192.0,0.0011654951376840472
208.0,0.00023067466099746525
224.0,-0.0005265357904136181
240.0,-0.0008288791868835688
256.0,-0.0008060256368480623
288.0,-0.00034554910962469876
320.0,-0.0010440172627568245
352.0,-0.0004573688202071935
384.0,0.0003953399136662483
416.0,-0.000560124171897769
448.0,-0.0013078071642667055
480.0,-0.0009590546251274645
512.0,-0.0005076791858300567
576.0,-0.0012221364304423332
640.0,-0.0005603467579931021
704.0,-6.3188485910359304e-06
768.0,-0.0003456072008702904
832.0,-0.0007041922654025257
896.0,0.0003022191231139004
960.0,0.0005000423989258707
1024.0,-0.0002705813094507903
1152.0,-0.00034213325125165284
1280.0,0.0008574617095291615
1408.0,0.0010272201616317034
1536.0,0.001583550707437098
1664.0,0.0012248310958966613
1792.0,-0.0014205119805410504
1920.0,-0.0009327373118139803
2048.0,-0.000889234768692404
2304.0,-0.0003819428675342351
2560.0,-0.0002460917748976499
2816.0,-0.00040979133336804807
3072.0,-0.0005376678891479969
3328.0,0.00020683299226220697
3584.0,-0.00023757116287015378
3840.0,0.00024376351211685687
4096.0,-0.0011839714134112
4608.0,-0.0002034667122643441
5120.0,0.00031782910809852183
5632.0,-0.0007692812941968441
6144.0,-5.528299152501859e-05
6656.0,-0.0001306164776906371
7168.0,-0.00014198034477885813
7680.0,0.0002537349646445364
8192.0,0.00038361724000424147
9216.0,0.00040048040682449937
10240.0,2.129280983353965e-05
11264.0,-0.00024982207105495036
12288.0,8.388730748265516e-06
13312.0,-0.000466157536720857
14336.0,-0.0006662578089162707
end
