version,3.0
numOfCh,1
type,point
parent_name,8-cuts
ch_type,1_1
kcount,1
numberNandB,1
brightnessNandB,1
carpet pos,0
pc,0
Time (ms),CH1 Auto-Correlation
1.0,0.04368121922016144
2.0,0.040475357323884964
3.0,0.03776564821600914
4.0,0.035436760634183884
5.0,0.03343663737177849
6.0,0.0317191481590271
7.0,0.030201580375432968
8.0,0.028749719262123108
9.0,0.027437182143330574
10.0,0.026230184361338615
11.0,0.025125915184617043
12.0,0.024149727076292038
13.0,0.023231377825140953
14.0,0.02241068333387375
15.0,0.021711092442274094
16.0,0.020958896726369858
18.0,0.019660277292132378
20.0,0.018768005073070526
22.0,0.01806739903986454
24.0,0.01741458661854267
26.0,0.01687232032418251
28.0,0.016367873176932335
30.0,0.015805590897798538
32.0,0.015356270596385002
36.0,0.014420678839087486
40.0,0.013691440224647522
44.0,0.012987509369850159
48.0,0.012223567813634872
52.0,0.011206652969121933
56.0,0.009860791265964508
60.0,0.008615785278379917
64.0,0.00781978853046894
72.0,0.006972091738134623
80.0,0.006144961342215538
88.0,0.005257408134639263
96.0,0.00473763607442379
104.0,0.0046252114698290825
112.0,0.004120875149965286
120.0,0.003635840956121683
128.0,0.003323744051158428
144.0,0.00394099997356534
160.0,0.0033627578523010015
176.0,0.0027920138090848923
192.0,0.002081970451399684
208.0,0.0009621366043575108
224.0,0.0006013854290358722
240.0,0.0008864783449098468
256.0,0.0007096923072822392
288.0,0.0011988695478066802
320.0,0.0017763831419870257
352.0,0.0010691344505175948
384.0,0.002610163064673543
416.0,0.00335115403868258
448.0,0.003035551868379116
480.0,0.0023788237012922764
512.0,0.002046761568635702
576.0,0.000636186043266207
640.0,-1.364803574688267e-05
704.0,0.0005866200081072748
768.0,0.002020685700699687
832.0,0.0012063365429639816
896.0,0.0018247257685288787
960.0,-0.00019688656902872026
1024.0,-0.0006363903521560133
1152.0,0.0018387290183454752
1280.0,0.001820894656702876
1408.0,0.0011799144558608532
1536.0,0.0009457820560783148
1664.0,0.0008426212007179856
1792.0,-0.0015306571731343865
1920.0,-0.002967543201521039
2048.0,-0.0005563852027989924
2304.0,-0.0008773528970777988
2560.0,-0.00046319712419062853
2816.0,-0.0002225865755463019
3072.0,-0.0035713918041437864
3328.0,-0.001018039183691144
3584.0,-0.0021323671098798513
3840.0,0.0004053959855809808
4096.0,-0.0015988177619874477
4608.0,-0.0018376143416389823
5120.0,-0.000720203563105315
5632.0,0.0014209385262802243
6144.0,0.0005894241039641201
6656.0,0.0008563405135646462
7168.0,0.0009984225034713745
7680.0,0.00046677576028741896
8192.0,0.0014374724123626947
9216.0,-0.0014924623537808657
10240.0,-4.5374385081231594e-05
11264.0,0.0011519086547195911
12288.0,0.0014674733392894268
13312.0,-0.004111535847187042
14336.0,-0.005687250290066004
end
