version,3.0
numOfCh,1
type,point
parent_name,8-cuts
ch_type,1_1
kcount,1
numberNandB,1
brightnessNandB,1
carpet pos,0
pc,0
Time (ms),CH1 Auto-Correlation
1.0,0.02596691995859146
2.0,0.023887736722826958
3.0,0.022113846614956856
4.0,0.020557481795549393
5.0,0.019160214811563492
6.0,0.01792840287089348
7.0,0.01681653782725334
8.0,0.015809718519449234
9.0,0.014930427074432373
10.0,0.014131029136478901
11.0,0.013385111466050148
12.0,0.01264924369752407
13.0,0.01195866335183382
14.0,0.011339407414197922
15.0,0.010795543901622295
16.0,0.010322741232812405
18.0,0.009590836241841316
20.0,0.008938102051615715
22.0,0.008224853314459324
24.0,0.007564373314380646
26.0,0.006990956142544746
28.0,0.006420201156288385
30.0,0.0060478379018604755
32.0,0.005670198705047369
36.0,0.005072892643511295
40.0,0.00445222482085228
44.0,0.0038981949910521507
48.0,0.0036350858863443136
52.0,0.0035441608633846045
56.0,0.003677996573969722
60.0,0.003676177468150854
64.0,0.0035109815653413534
72.0,0.0033993555698543787
80.0,0.002841492649167776
88.0,0.002089675748720765
96.0,0.001873345230706036
104.0,0.0015049153007566929
112.0,0.0009242013329640031
120.0,0.0007637779344804585
128.0,0.000926048553083092
144.0,0.0011269289534538984
160.0,0.0009124060743488371
176.0,0.0008916141814552248
192.0,0.0010122701060026884
208.0,0.0008521723793819547
224.0,0.00029487814754247665
240.0,0.00016798284195829183
256.0,-0.00095822085859254
288.0,-0.0011466729920357466
320.0,-0.0014539200346916914
352.0,-0.00038838383625261486
384.0,-3.345968798385002e-05
416.0,-0.0003367878671269864
448.0,-0.00042546854820102453
480.0,-0.000575337850023061
512.0,-0.0005087006138637662
576.0,0.0003788141766563058
640.0,-8.001674723345786e-05
704.0,0.00028753053629770875
768.0,0.0007444698712788522
832.0,0.00022747636830899864
896.0,0.0005133062950335443
960.0,-0.00014925275172572583
1024.0,-0.00019151136802975088
1152.0,-0.000255015300353989
1280.0,-0.0007906822138465941
1408.0,-0.0007645682781003416
1536.0,-0.00036125024780631065
1664.0,-0.00020559376571327448
1792.0,0.00041372314444743097
1920.0,0.0008374089957214892
2048.0,-0.0005570778157562017
2304.0,0.0004009342519566417
2560.0,8.423868712270632e-05
2816.0,-0.0008270256803371012
3072.0,0.0002575256221462041
3328.0,-0.0005888296873308718
3584.0,2.1853453290532343e-05
3840.0,-0.0005729224067181349
4096.0,0.0003550160035956651
4608.0,-0.00033160188468173146
5120.0,-0.0004908962291665375
5632.0,-0.0007694459054619074
6144.0,-0.0004201261617708951
6656.0,-0.0004912602598778903
7168.0,0.0011550576891750097
7680.0,0.0002973386144731194
8192.0,4.161643664701842e-05
9216.0,-0.00031591218430548906
10240.0,0.0006066953064873815
11264.0,-7.528418791480362e-05
12288.0,-2.7190741093363613e-05
13312.0,-0.0006321672117337584
14336.0,0.0005390392034314573
end
