version,3.0
numOfCh,1
type,point
parent_name,8-cuts
ch_type,1_1
kcount,1
numberNandB,1
brightnessNandB,1
carpet pos,0
pc,0
Time (ms),CH1 Auto-Correlation
1.0,0.04320492222905159
2.0,0.040111906826496124
3.0,0.03750873729586601
4.0,0.03523359075188637
5.0,0.03322083130478859
6.0,0.03146277368068695
7.0,0.029918229207396507
8.0,0.02859741635620594
9.0,0.027338970452547073
10.0,0.026229994371533394
11.0,0.02515532076358795
12.0,0.02410806156694889
13.0,0.02320975251495838
14.0,0.022455263882875443
15.0,0.02180132083594799
16.0,0.02111288160085678
18.0,0.019908564165234566
20.0,0.018841974437236786
22.0,0.017735490575432777
24.0,0.01677672564983368
26.0,0.016039637848734856
28.0,0.015403657220304012
30.0,0.014843570068478584
32.0,0.014402244240045547
36.0,0.013644643127918243
40.0,0.012760687619447708
44.0,0.011759324930608273
48.0,0.010957792401313782
52.0,0.01023794338107109
56.0,0.009564579464495182
60.0,0.00919763371348381
64.0,0.009011713787913322
72.0,0.008368656039237976
80.0,0.00812703836709261
88.0,0.008222579024732113
96.0,0.008264302276074886
104.0,0.00805077888071537
112.0,0.0071774194948375225
120.0,0.006425817962735891
128.0,0.005353914108127356
144.0,0.005004093982279301
160.0,0.0059156776405870914
176.0,0.005879121366888285
192.0,0.005959689151495695
208.0,0.005888629239052534
224.0,0.004500746261328459
240.0,0.0036582399625331163
256.0,0.0045576742850244045
288.0,0.005301011726260185
320.0,0.0048664286732673645
352.0,0.002469878178089857
384.0,0.0011989760678261518
416.0,0.0005046649021096528
448.0,0.00017741542251314968
480.0,0.0002667517401278019
512.0,-0.0002340208156965673
576.0,-0.0015433338703587651
640.0,-0.0019359258003532887
704.0,-0.003343407530337572
768.0,-0.002561405301094055
832.0,-0.0036081273574382067
896.0,-0.0037287555169314146
960.0,-0.0033024928998202085
1024.0,-0.0031010196544229984
1152.0,-0.0016964295646175742
1280.0,-0.0016375365667045116
1408.0,-0.0020457145292311907
1536.0,-0.0005447390722110868
1664.0,-0.0005151289515197277
1792.0,-0.0007989429286681116
1920.0,0.0003694561601150781
2048.0,0.0007466789102181792
2304.0,0.002546536736190319
2560.0,0.0006231479346752167
2816.0,-0.0028990295249968767
3072.0,-0.0009068455547094345
3328.0,-2.5126717446255498e-05
3584.0,-0.00022549956338480115
3840.0,-0.0002519712143111974
4096.0,0.00019977671036031097
4608.0,0.0031388914212584496
5120.0,-0.0014292312553152442
5632.0,-0.0020786758977919817
6144.0,-0.0004192522610537708
6656.0,0.00226338068023324
7168.0,0.002105393446981907
7680.0,-0.0031138788908720016
8192.0,-0.0009199501946568489
9216.0,0.00044776350841857493
10240.0,0.0009925824124366045
11264.0,-0.0011756111634895205
12288.0,-0.0034743715077638626
13312.0,-0.0015216448809951544
14336.0,0.0012641577050089836
end
