version,3.0
numOfCh,1
type,point
parent_name,8-cuts
ch_type,1_1
kcount,1
numberNandB,1
brightnessNandB,1
carpet pos,0
pc,0
Time (ms),CH1 Auto-Correlation
1.0,0.09476279467344284
2.0,0.0871325209736824
3.0,0.08060164004564285
4.0,0.07487080246210098
5.0,0.07006514072418213
6.0,0.06593756377696991
7.0,0.062248218804597855
8.0,0.058970507234334946
9.0,0.05623173713684082
10.0,0.05354796350002289
11.0,0.051027361303567886
12.0,0.04876871407032013
13.0,0.04652540385723114
14.0,0.04435966536402702
15.0,0.04261138662695885
16.0,0.04087149351835251
18.0,0.03788931295275688
20.0,0.03553116321563721
22.0,0.03310465067625046
24.0,0.030908862128853798
26.0,0.028849001973867416
28.0,0.027209725230932236
30.0,0.02575233019888401
32.0,0.024052970111370087
36.0,0.020876368507742882
40.0,0.018899794667959213
44.0,0.018398262560367584
48.0,0.0182177871465683
52.0,0.01792437955737114
56.0,0.017662588506937027
60.0,0.017002994194626808
64.0,0.015029744245111942
72.0,0.013060825876891613
80.0,0.011490619741380215
88.0,0.010008534416556358
96.0,0.010360064916312695
104.0,0.01135407853871584
112.0,0.00977250374853611
120.0,0.00864065159112215
128.0,0.007523525971919298
144.0,0.0031914629507809877
160.0,0.0009595183655619621
176.0,-0.00017812888836488128
192.0,-0.0009774384088814259
208.0,-0.003358246525749564
224.0,-0.0021304816473275423
240.0,-0.0009529719827696681
256.0,-0.0023724243510514498
288.0,-0.0017439441289752722
320.0,-0.00176420493517071
352.0,-0.003490905510261655
384.0,7.925387762952596e-05
416.0,0.004729606676846743
448.0,0.003620837815105915
480.0,0.006684011314064264
512.0,0.011310825124382973
576.0,0.006303967908024788
640.0,0.002880496671423316
704.0,-0.0032966448925435543
768.0,-0.0024753364268690348
832.0,-0.0011577772675082088
896.0,0.0019542197696864605
960.0,0.004504463169723749
1024.0,0.0013535721227526665
1152.0,0.0013807667419314384
1280.0,-0.0028630520682781935
1408.0,-0.002386491745710373
1536.0,-0.0005497040110640228
1664.0,-2.9762742997263558e-05
1792.0,-0.0005594473914243281
1920.0,0.0017360211350023746
2048.0,0.0043607368133962154
2304.0,0.0011617933632805943
2560.0,-0.0011543603613972664
2816.0,-0.001517520984634757
3072.0,-0.003497194265946746
3328.0,-0.0024049682542681694
3584.0,-0.005007014609873295
3840.0,-0.0022975641768425703
4096.0,-0.00022814121621195227
4608.0,0.0015659601194784045
5120.0,-0.00222279061563313
5632.0,-0.00225763488560915
6144.0,-0.0024560994934290648
6656.0,0.0012923793401569128
7168.0,6.864154420327395e-05
7680.0,-0.0009202836663462222
8192.0,-0.004570581018924713
9216.0,0.0014057713560760021
10240.0,0.001506832311861217
11264.0,0.005054672714322805
12288.0,-0.0005375178880058229
13312.0,-0.0028166191186755896
14336.0,-0.004343001171946526
end
