version,3.0
numOfCh,1
type,point
parent_name,8-cuts
ch_type,1_1
kcount,1
numberNandB,1
brightnessNandB,1
carpet pos,0
pc,0
Time (ms),CH1 Auto-Correlation
1.0,0.0903489962220192
2.0,0.08360207825899124
3.0,0.07777518033981323
4.0,0.07253589481115341
5.0,0.06811121106147766
6.0,0.06435581296682358
7.0,0.060870856046676636
8.0,0.05759843438863754
9.0,0.054702967405319214
10.0,0.05202092230319977
11.0,0.04954085126519203
12.0,0.04723796993494034
13.0,0.045150257647037506
14.0,0.04319410398602486
15.0,0.04140746220946312
16.0,0.039789970964193344
18.0,0.03663768619298935
20.0,0.03386233001947403
22.0,0.031455252319574356
24.0,0.029409391805529594
26.0,0.02750701643526554
28.0,0.025982053950428963
30.0,0.02468227781355381
32.0,0.023431872949004173
36.0,0.021218206733465195
40.0,0.019402317702770233
44.0,0.017177144065499306
48.0,0.014570570550858974
52.0,0.012851273640990257
56.0,0.011714094318449497
60.0,0.010425273329019547
64.0,0.009626454673707485
72.0,0.00959389004856348
80.0,0.008932968601584435
88.0,0.006933367345482111
96.0,0.004905457608401775
104.0,0.004954335745424032
112.0,0.0044809672981500626
120.0,0.0022067108657211065
128.0,0.0014469142770394683
144.0,0.0018119484884664416
160.0,0.0026599299162626266
176.0,-0.0013934962917119265
192.0,-0.005114862695336342
208.0,-0.0030505468603223562
224.0,-0.003144617658108473
240.0,-0.0033340477384626865
256.0,-0.0042520249262452126
288.0,-0.004786354023963213
320.0,-0.004851034842431545
352.0,-0.003472926327958703
384.0,-0.0031211290042847395
416.0,-0.002833496779203415
448.0,-0.0009039872093126178
480.0,0.0027224551886320114
512.0,0.005092618986964226
576.0,0.005173127632588148
640.0,0.006428842432796955
704.0,0.004792917054146528
768.0,0.0049482653848826885
832.0,0.0024367456790059805
896.0,-0.002833439502865076
960.0,-0.0029409844428300858
1024.0,-0.00643874891102314
1152.0,0.0009039413998834789
1280.0,0.004495181143283844
1408.0,0.0014171847142279148
1536.0,-0.00053214724175632
1664.0,-0.0011641770834103227
1792.0,-0.0006858467240817845
1920.0,0.0014847840648144484
2048.0,0.0023089360911399126
2304.0,-0.0025142193771898746
2560.0,-0.003446308895945549
2816.0,0.0015427418984472752
3072.0,-0.0035311351530253887
3328.0,0.002691297559067607
3584.0,-0.0008552914950996637
3840.0,-0.002852537902072072
4096.0,0.0005424664705060422
4608.0,-0.0007910332642495632
5120.0,0.00047801239998079836
5632.0,0.0002793568419292569
6144.0,0.0009200480417348444
6656.0,0.0002478353853803128
7168.0,-0.001876428141258657
7680.0,-0.0015331234317272902
8192.0,-0.0020115613006055355
9216.0,-0.002133469097316265
10240.0,-0.0017557746032252908
11264.0,0.0018432996002957225
12288.0,0.0019453890854492784
13312.0,-0.00424045417457819
14336.0,0.0017535962397232652
end
