version,3.0
numOfCh,1
type,point
parent_name,8-cuts
ch_type,1_1
kcount,1
numberNandB,1
brightnessNandB,1
carpet pos,0
pc,0
Time (ms),CH1 Auto-Correlation
1.0,0.04206467047333717
2.0,0.03891628608107567
3.0,0.036154087632894516
4.0,0.0337313711643219
5.0,0.031654082238674164
6.0,0.02974279783666134
7.0,0.028029877692461014
8.0,0.026495616883039474
9.0,0.025117775425314903
10.0,0.023912912234663963
11.0,0.02283247373998165
12.0,0.02189069427549839
13.0,0.020924726501107216
14.0,0.019971128553152084
15.0,0.019090432673692703
16.0,0.018298981711268425
18.0,0.016901535913348198
20.0,0.015536420047283173
22.0,0.014083409681916237
24.0,0.012752891518175602
26.0,0.011650911532342434
28.0,0.01080826111137867
30.0,0.010096191428601742
32.0,0.009551041759550571
36.0,0.008744713850319386
40.0,0.007870061323046684
44.0,0.007149363402277231
48.0,0.006873875390738249
52.0,0.0064936368726193905
56.0,0.006009938195347786
60.0,0.0055216639302670956
64.0,0.005220006685703993
72.0,0.004913063254207373
80.0,0.0044830115512013435
88.0,0.00446105794981122
96.0,0.0047985888086259365
104.0,0.005098363384604454
112.0,0.0048333122394979
120.0,0.00463869608938694
128.0,0.004760787822306156
144.0,0.004886241164058447
160.0,0.00444834865629673
176.0,0.0032711303792893887
192.0,0.0036387708969414234
208.0,0.004403247497975826
224.0,0.0033349604345858097
240.0,0.0027764916885644197
256.0,0.0016253356589004397
288.0,0.001651562750339508
320.0,0.0003914933477062732
352.0,0.0009694049367681146
384.0,0.0025603550020605326
416.0,0.001544899889267981
448.0,0.001103365095332265
480.0,-0.0006308547453954816
512.0,-0.00034343075822107494
576.0,0.0014998947735875845
640.0,1.335078923148103e-05
704.0,-0.0009172669961117208
768.0,-0.0025142275262624025
832.0,-0.001371904625557363
896.0,-0.0017101161647588015
960.0,-0.001502613304182887
1024.0,-0.0001898088667076081
1152.0,-0.0005986039177514613
1280.0,-0.0023295602295547724
1408.0,-0.0007531855371780694
1536.0,0.00026117649395018816
1664.0,-0.000428184139309451
1792.0,-0.0008596624247729778
1920.0,-0.001856426359154284
2048.0,-0.0004543171962723136
2304.0,0.0017255949787795544
2560.0,0.002116416348144412
2816.0,0.0022299818228930235
3072.0,0.00021785739227198064
3328.0,0.0002821958623826504
3584.0,-0.0005048771854490042
3840.0,6.0491696785902604e-05
4096.0,-3.378729161340743e-05
4608.0,-0.0004029796691611409
5120.0,-0.001169886440038681
5632.0,0.0002960920101031661
6144.0,0.0016976508777588606
6656.0,0.0006692615570500493
7168.0,-0.0009596916497685015
7680.0,-0.00249904440715909
8192.0,-0.0013427650555968285
9216.0,0.001301166252233088
10240.0,-0.002700445242226124
11264.0,-0.0008969708578661084
12288.0,-0.0014015199849382043
13312.0,0.00031654865597374737
14336.0,-0.004100482910871506
end
