version,3.0
numOfCh,1
type,point
parent_name,8-cuts
ch_type,1_1
kcount,1
numberNandB,1
brightnessNandB,1
carpet pos,0
pc,0
Time (ms),CH1 Auto-Correlation
1.0,0.03840917721390724
2.0,0.0351414680480957
3.0,0.0323718823492527
4.0,0.029924597591161728
5.0,0.027740728110074997
6.0,0.025842834264039993
7.0,0.024104448035359383
8.0,0.02249375730752945
9.0,0.021064894273877144
10.0,0.019790424033999443
11.0,0.018687663599848747
12.0,0.017735986039042473
13.0,0.01679038256406784
14.0,0.01603543572127819
15.0,0.015274961479008198
16.0,0.014705516397953033
18.0,0.013693010434508324
20.0,0.012639787048101425
22.0,0.011788638308644295
24.0,0.011053991504013538
26.0,0.010272515006363392
28.0,0.009678085334599018
30.0,0.008947323076426983
32.0,0.008294682018458843
36.0,0.007189760450273752
40.0,0.005757468752563
44.0,0.0045727938413619995
48.0,0.003936628811061382
52.0,0.0035327142104506493
56.0,0.0030722657684236765
60.0,0.0029629352502524853
64.0,0.0028251137118786573
72.0,0.0024716597981750965
80.0,0.002360894111916423
88.0,0.0022206781432032585
96.0,0.0023994799703359604
104.0,0.0020445394329726696
112.0,0.0018501549493521452
120.0,0.001496621873229742
128.0,0.001295382739044726
144.0,0.0008545949822291732
160.0,0.00032893705065362155
176.0,2.644430242071394e-05
192.0,-0.0007772596436552703
208.0,-0.0011423516552895308
224.0,-0.00011482246918603778
240.0,0.00012260534276720136
256.0,-0.0007366330246441066
288.0,-0.0008614378748461604
320.0,-0.0015456152614206076
352.0,-0.00210463791154325
384.0,-0.0011124294251203537
416.0,-0.001540637924335897
448.0,-0.0019645963329821825
480.0,-0.0033316565677523613
512.0,-0.002645136322826147
576.0,-0.0010896509047597647
640.0,-1.0101647603733e-05
704.0,-0.0011810834985226393
768.0,-2.3833417799323797e-05
832.0,0.0010268297046422958
896.0,8.113844523904845e-05
960.0,-0.0006318052182905376
1024.0,-0.0013681667624041438
1152.0,-0.00025413651019334793
1280.0,-9.31111499085091e-05
1408.0,-0.00025041354820132256
1536.0,-0.0009559637401252985
1664.0,0.0011095908703282475
1792.0,0.0017396303592249751
1920.0,0.0008032892947085202
2048.0,0.00036039503174833953
2304.0,-0.0011825861874967813
2560.0,0.0001604634744580835
2816.0,-0.0005701049813069403
3072.0,0.0001439997140550986
3328.0,-0.0004225336015224457
3584.0,-0.0007162651745602489
3840.0,0.0014538886025547981
4096.0,7.713356171734631e-05
4608.0,-0.00015758551307953894
5120.0,0.0005440140957944095
5632.0,-0.00065690214978531
6144.0,0.0005333501612767577
6656.0,-0.00035298391594551504
7168.0,0.0011580399004742503
7680.0,-0.001535013783723116
8192.0,0.001000028452835977
9216.0,-3.536792064551264e-05
10240.0,-0.00031925158691592515
11264.0,0.00011307801469229162
12288.0,0.00016722605505492538
13312.0,-8.857540524331853e-05
14336.0,-4.747842831420712e-05
end
