version,3.0
numOfCh,1
type,point
parent_name,8-cuts
ch_type,1_1
kcount,1
numberNandB,1
brightnessNandB,1
carpet pos,0
pc,0
Time (ms),CH1 Auto-Correlation
1.0,0.04077173396945
2.0,0.03758236765861511
3.0,0.03481701761484146
4.0,0.032434042543172836
5.0,0.030288780108094215
6.0,0.028402861207723618
7.0,0.026650162413716316
8.0,0.02508712373673916
9.0,0.023660611361265182
10.0,0.022465510293841362
11.0,0.02128298394382
12.0,0.02030939795076847
13.0,0.01937694475054741
14.0,0.018454745411872864
15.0,0.017647624015808105
16.0,0.01684301346540451
18.0,0.015382107347249985
20.0,0.0141478655859828
22.0,0.013229976408183575
24.0,0.012502290308475494
26.0,0.011963400058448315
28.0,0.011696278117597103
30.0,0.0114373117685318
32.0,0.0111418217420578
36.0,0.010367819108068943
40.0,0.00937130581587553
44.0,0.008760161697864532
48.0,0.008107652887701988
52.0,0.007537354715168476
56.0,0.007267812266945839
60.0,0.0070995851419866085
64.0,0.006999374832957983
72.0,0.006098161451518536
80.0,0.0057586608454585075
88.0,0.006045818328857422
96.0,0.005926312413066626
104.0,0.005575957708060741
112.0,0.005798588506877422
120.0,0.005480322986841202
128.0,0.004984548781067133
144.0,0.0053779310546815395
160.0,0.006280625704675913
176.0,0.006048894952982664
192.0,0.005049484316259623
208.0,0.003943827468901873
224.0,0.002988827880471945
240.0,0.003471449250355363
256.0,0.003970381338149309
288.0,0.003747060662135482
320.0,0.002417302457615733
352.0,0.0019194863270968199
384.0,0.0020441922824829817
416.0,0.003188712988048792
448.0,0.004347310867160559
480.0,0.002344974782317877
512.0,0.00047905900282785296
576.0,0.000711002096068114
640.0,0.0008134125382639468
704.0,0.00018460363207850605
768.0,0.00036695486051030457
832.0,-0.00066751753911376
896.0,-0.00031644984846934676
960.0,-0.0004431907436810434
1024.0,-0.0001557359064463526
1152.0,-0.0007149259909056127
1280.0,-0.00201945542357862
1408.0,-0.0015208031982183456
1536.0,-0.0023769012186676264
1664.0,-0.004035192541778088
1792.0,-0.0036825297866016626
1920.0,-0.00364906364120543
2048.0,-0.0037605022080242634
2304.0,-0.001090993289835751
2560.0,0.000937318371143192
2816.0,0.001973508158698678
3072.0,0.0016395312268286943
3328.0,0.0008897265652194619
3584.0,6.789051258238032e-05
3840.0,0.0018233367009088397
4096.0,0.0011465147836133838
4608.0,-0.0012038609711453319
5120.0,0.0008298553293570876
5632.0,0.0009523353655822575
6144.0,3.232246308471076e-05
6656.0,-0.0008678805315867066
7168.0,-0.002625846303999424
7680.0,-7.972300227265805e-05
8192.0,0.002755145775154233
9216.0,0.0002601192391011864
10240.0,-0.004856498446315527
11264.0,0.0023320631589740515
12288.0,0.003966992720961571
13312.0,-0.004565839655697346
14336.0,-0.006002879235893488
end
