version,3.0
numOfCh,1
type,point
parent_name,8-cuts
ch_type,1_1
kcount,1
numberNandB,1
brightnessNandB,1
carpet pos,0
pc,0
Time (ms),CH1 Auto-Correlation
1.0,0.09007036685943604
2.0,0.08323083817958832
3.0,0.07756411284208298
4.0,0.07257763296365738
5.0,0.06822678446769714
6.0,0.06420496106147766
7.0,0.06058309227228165
8.0,0.057187117636203766
9.0,0.054234717041254044
10.0,0.05147455260157585
11.0,0.04909215867519379
12.0,0.04692104831337929
13.0,0.04485313221812248
14.0,0.0430673286318779
15.0,0.0414668507874012
16.0,0.04000678285956383
18.0,0.037255022674798965
20.0,0.0350646898150444
22.0,0.03295283392071724
24.0,0.031342413276433945
26.0,0.02999623864889145
28.0,0.028986824676394463
30.0,0.02788659743964672
32.0,0.026927227154374123
36.0,0.025218239054083824
40.0,0.023845290765166283
44.0,0.022540710866451263
48.0,0.020700780674815178
52.0,0.019209228456020355
56.0,0.017590856179594994
60.0,0.01594480872154236
64.0,0.014039448462426662
72.0,0.011405352503061295
80.0,0.010794195346534252
88.0,0.010033809579908848
96.0,0.008516045287251472
104.0,0.006239119917154312
112.0,0.004624280612915754
120.0,0.0037025129422545433
128.0,0.0034668489824980497
144.0,0.0035913828760385513
160.0,0.0038174993824213743
176.0,0.005377471912652254
192.0,0.007612820714712143
208.0,0.00933681707829237
224.0,0.010312948375940323
240.0,0.006697387434542179
256.0,0.004166854545474052
288.0,0.003940480295568705
320.0,0.0006772780907340348
352.0,-0.003662638133391738
384.0,-0.0006458827992901206
416.0,0.0010303277522325516
448.0,0.0018991560209542513
480.0,0.004665250889956951
512.0,0.003879767609760165
576.0,-0.002219372196123004
640.0,-0.004392105154693127
704.0,-0.001737173879519105
768.0,-0.0003290691820438951
832.0,0.00036303792148828506
896.0,0.001149070798419416
960.0,0.004791111685335636
1024.0,0.004733336623758078
1152.0,0.0023401486687362194
1280.0,0.0028251176699995995
1408.0,0.0010301140137016773
1536.0,0.0017581982538104057
1664.0,-0.0005536653334274888
1792.0,4.9224770918954164e-05
1920.0,-0.004384956788271666
2048.0,-0.00551596051082015
2304.0,-0.002325498266145587
2560.0,-0.0018729245057329535
2816.0,0.0008043012348935008
3072.0,3.510492024361156e-05
3328.0,-0.0021819151006639004
3584.0,-0.0015148118836805224
3840.0,-0.0033705318346619606
4096.0,0.001615061890333891
4608.0,-0.0003902572498191148
5120.0,-0.0036250760313123465
5632.0,0.0011984312441200018
6144.0,0.0027413556817919016
6656.0,-0.001964559778571129
7168.0,0.003812937531620264
7680.0,0.0007580172969028354
8192.0,-0.002120780060067773
9216.0,0.0017647319473326206
10240.0,0.0018219405319541693
11264.0,-0.00465431809425354
12288.0,-0.002514996798709035
13312.0,-0.0004626557056326419
14336.0,-0.005455337930470705
end
