version,3.0
numOfCh,1
type,point
parent_name,8-cuts
ch_type,1_1
kcount,1
numberNandB,1
brightnessNandB,1
carpet pos,0
pc,0
Time (ms),CH1 Auto-Correlation
1.0,0.03175393491983414
2.0,0.0295674167573452
3.0,0.027681589126586914
4.0,0.025990229099988937
5.0,0.02452172338962555
6.0,0.023221831768751144
7.0,0.02209588512778282
8.0,0.021068166941404343
9.0,0.02007201686501503
10.0,0.019153563305735588
11.0,0.01826084405183792
12.0,0.01746486686170101
13.0,0.016724662855267525
14.0,0.016107844188809395
15.0,0.015558646991848946
16.0,0.015073205344378948
18.0,0.014172075316309929
20.0,0.013432463631033897
22.0,0.012825863435864449
24.0,0.012272218242287636
26.0,0.01163427997380495
28.0,0.011096722446382046
30.0,0.010604342445731163
32.0,0.010151692666113377
36.0,0.009355948306620121
40.0,0.008449330925941467
44.0,0.007599239237606525
48.0,0.006741012912243605
52.0,0.005829921457916498
56.0,0.005136828403919935
60.0,0.004693722818046808
64.0,0.004286120180040598
72.0,0.0037392512895166874
80.0,0.004008091054856777
88.0,0.003716664621606469
96.0,0.0028233591001480818
104.0,0.0030100210569798946
112.0,0.002936495700851083
120.0,0.002320223255082965
128.0,0.0017298130551353097
144.0,0.0012601485941559076
160.0,0.00017285013746004552
176.0,-0.00054455257486552
192.0,-0.0006575316074304283
208.0,-0.0007136079366318882
224.0,-0.0013187563745304942
240.0,-0.0017726125661283731
256.0,-0.0018164407229050994
288.0,-0.0006263753748498857
320.0,-0.0001424322254024446
352.0,-0.0002803458773996681
384.0,-0.0008002601098269224
416.0,-0.0001502946252003312
448.0,0.0017056134529411793
480.0,0.0027240081690251827
512.0,0.0013780687004327774
576.0,-0.0016385468188673258
640.0,-0.0013570812297984958
704.0,-0.0007696259999647737
768.0,-3.82651160180103e-05
832.0,0.0002035948127740994
896.0,-0.0004953075549565256
960.0,0.0006307140574790537
1024.0,0.0003240322694182396
1152.0,0.00034907809458673
1280.0,0.0015636265743523836
1408.0,0.0006887718918733299
1536.0,0.0007009017863310874
1664.0,0.0003467639035079628
1792.0,0.0004944163374602795
1920.0,-0.000961691839620471
2048.0,0.00028885892243124545
2304.0,0.0005847835564054549
2560.0,-0.00021602875494863838
2816.0,-0.0007374917040579021
3072.0,-0.0005419343942776322
3328.0,0.0006226547411642969
3584.0,-0.0006014801911078393
3840.0,0.0018184053478762507
4096.0,-0.0021262499503791332
4608.0,-0.0001133365512941964
5120.0,-0.0004151696339249611
5632.0,-0.0001810499670682475
6144.0,-0.0005531980423256755
6656.0,-0.0010995561024174094
7168.0,-0.000997381517663598
7680.0,8.389740105485544e-05
8192.0,-0.0004892718279734254
9216.0,6.964700878597796e-05
10240.0,-0.0009719295776449144
11264.0,0.0007236315286718309
12288.0,0.0002069352485705167
13312.0,5.446299383038422e-06
14336.0,0.001658212742768228
end
