version,3.0
numOfCh,1
type,point
parent_name,8-cuts
ch_type,1_1
kcount,1
numberNandB,1
brightnessNandB,1
carpet pos,0
pc,0
Time (ms),CH1 Auto-Correlation
1.0,0.030947675928473473
2.0,0.02885281667113304
3.0,0.026960037648677826
4.0,0.025416726246476173
5.0,0.02406773529946804
6.0,0.022867973893880844
7.0,0.021779831498861313
8.0,0.020812438800930977
9.0,0.01992788538336754
10.0,0.019099144265055656
11.0,0.01834150031208992
12.0,0.017666537314653397
13.0,0.017053617164492607
14.0,0.016476590186357498
15.0,0.015987791121006012
16.0,0.015489962883293629
18.0,0.014613278210163116
20.0,0.013898534700274467
22.0,0.013326521031558514
24.0,0.012903465889394283
26.0,0.01247910875827074
28.0,0.011971448548138142
30.0,0.011365843936800957
32.0,0.010733121074736118
36.0,0.009516824036836624
40.0,0.0086211534217
44.0,0.007773234508931637
48.0,0.007030876819044352
52.0,0.006238323170691729
56.0,0.005189415533095598
60.0,0.00420690281316638
64.0,0.003625014331191778
72.0,0.003293210407719016
80.0,0.003230474889278412
88.0,0.0029911547899246216
96.0,0.002856709063053131
104.0,0.0025107262190431356
112.0,0.0021421867422759533
120.0,0.002126255538314581
128.0,0.0019788770005106926
144.0,0.0017002327367663383
160.0,0.0022734752856194973
176.0,0.002473845612257719
192.0,0.0028383724857121706
208.0,0.0030950147192925215
224.0,0.0027803368866443634
240.0,0.0021898329723626375
256.0,0.0020743519999086857
288.0,0.002584670903161168
320.0,0.0022723088040947914
352.0,0.002259543864056468
384.0,0.0012677682098001242
416.0,-0.0004971126327291131
448.0,-0.001506065484136343
480.0,-0.0007358172442764044
512.0,2.8413751351763494e-05
576.0,0.0002244529314339161
640.0,0.000901327352039516
704.0,-0.0009953805711120367
768.0,-0.00113885966129601
832.0,-0.001957929227501154
896.0,-0.0015676622278988361
960.0,0.00010702998406486586
1024.0,-0.001691116369329393
1152.0,-0.000902792438864708
1280.0,0.0001611703191883862
1408.0,0.00023441632220055908
1536.0,0.0008668043883517385
1664.0,0.0004498977796174586
1792.0,-0.00038843153743073344
1920.0,9.225639223586768e-05
2048.0,-0.00013963210221845657
2304.0,-0.0005367313860915601
2560.0,0.0010627261362969875
2816.0,0.001691766083240509
3072.0,0.0004765885241795331
3328.0,-0.0006655522738583386
3584.0,-0.001973705366253853
3840.0,-0.0015215645544230938
4096.0,-0.0019217432709410787
4608.0,-0.00013435687287710607
5120.0,-0.0004852302954532206
5632.0,0.0005735374288633466
6144.0,0.0013625407591462135
6656.0,-0.0018913199892267585
7168.0,-0.00021122304315213114
7680.0,7.510362775065005e-05
8192.0,0.0003060271847061813
9216.0,9.155122097581625e-05
10240.0,-0.00024289444263558835
11264.0,0.00036950534558854997
12288.0,-0.0019463655771687627
13312.0,0.0002718163304962218
14336.0,-0.00010819364979397506
end
