version,3.0
numOfCh,1
type,point
parent_name,8-cuts
ch_type,1_1
kcount,1
numberNandB,1
brightnessNandB,1
carpet pos,0
pc,0
Time (ms),CH1 Auto-Correlation
1.0,0.0265527181327343
2.0,0.024428103119134903
3.0,0.022626865655183792
4.0,0.021116899326443672
5.0,0.0197592843323946
6.0,0.01857062056660652
7.0,0.017534513026475906
8.0,0.016624456271529198
9.0,0.01580161415040493
10.0,0.015082675032317638
11.0,0.014381807297468185
12.0,0.013748805038630962
13.0,0.01314355805516243
14.0,0.012655496597290039
15.0,0.012214777991175652
16.0,0.011757714673876762
18.0,0.010801376774907112
20.0,0.009909381158649921
22.0,0.00909616332501173
24.0,0.00843137502670288
26.0,0.007869604043662548
28.0,0.007372044026851654
30.0,0.00706100556999445
32.0,0.006752734538167715
36.0,0.006034426856786013
40.0,0.005394183564931154
44.0,0.004962561186403036
48.0,0.0047129979357123375
52.0,0.004276325926184654
56.0,0.0036171572282910347
60.0,0.003082479117438197
64.0,0.0030117551796138287
72.0,0.0027714374009519815
80.0,0.002386285923421383
88.0,0.001987110124900937
96.0,0.0017743755597621202
104.0,0.0019139619544148445
112.0,0.001676220796070993
120.0,0.0011964659206569195
128.0,0.0007273450028151274
144.0,0.0002104079903801903
160.0,-0.0003055076231248677
176.0,0.00012472047819755971
192.0,0.0006929818773642182
208.0,0.00038824157672934234
224.0,0.0007525754626840353
240.0,0.0013628557790070772
256.0,0.0015900800935924053
288.0,0.0005480768159031868
320.0,2.0397124899318442e-05
352.0,-1.9835011698887683e-05
384.0,0.00015575076395180076
416.0,0.001139024505391717
448.0,0.0013142299139872193
480.0,0.0006696664495393634
512.0,0.0005571157089434564
576.0,0.0010154697811231017
640.0,0.0008790903375484049
704.0,0.0009737986256368458
768.0,0.000375288596842438
832.0,0.00037182262167334557
896.0,0.00105326680932194
960.0,0.0004050985735375434
1024.0,1.60545387188904e-05
1152.0,-0.0009511802345514297
1280.0,-0.0007272337097674608
1408.0,-0.0004546402196865529
1536.0,-0.0004496878245845437
1664.0,-0.0007446101517416537
1792.0,-8.64992180140689e-05
1920.0,-0.001578991999849677
2048.0,-0.0020537548698484898
2304.0,-0.0006792260683141649
2560.0,-0.00021802628180012107
2816.0,-0.0007588084554299712
3072.0,2.2260554032982327e-05
3328.0,0.0002947303291875869
3584.0,0.00047231497592292726
3840.0,0.0003914684639312327
4096.0,5.871751272934489e-05
4608.0,-0.0002580440486781299
5120.0,-0.0009749262244440615
5632.0,-0.0010136122582480311
6144.0,0.0003112031554337591
6656.0,0.00038058654172345996
7168.0,0.0010758360149338841
7680.0,0.0012902086600661278
8192.0,-2.2645285753242206e-06
9216.0,-0.0003678407520055771
10240.0,-0.00015223113587126136
11264.0,-7.3275436989206355e-06
12288.0,1.1072653251176234e-05
13312.0,-7.126887066988274e-05
14336.0,0.00021955426200293005
end
