version,3.0
numOfCh,1
type,point
parent_name,8-cuts
ch_type,1_1
kcount,1
numberNandB,1
brightnessNandB,1
carpet pos,0
pc,0
Time (ms),CH1 Auto-Correlation
1.0,0.038229018449783325
2.0,0.035081543028354645
3.0,0.0324028842151165
4.0,0.030177149921655655
5.0,0.02819039672613144
6.0,0.026418514549732208
7.0,0.02477359026670456
8.0,0.02329024113714695
9.0,0.021947259083390236
10.0,0.020763549953699112
11.0,0.019672604277729988
12.0,0.018707137554883957
13.0,0.01788843236863613
14.0,0.01702885702252388
15.0,0.016219545155763626
16.0,0.015509413555264473
18.0,0.014311151579022408
20.0,0.013337243348360062
22.0,0.012461145408451557
24.0,0.011686326004564762
26.0,0.010910481214523315
28.0,0.010064100846648216
30.0,0.009538945741951466
32.0,0.00914714951068163
36.0,0.00817857589572668
40.0,0.0074332887306809425
44.0,0.006890749093145132
48.0,0.006365075707435608
52.0,0.005679790396243334
56.0,0.004956998396664858
60.0,0.0044598267413675785
64.0,0.004213992971926928
72.0,0.0032313137780874968
80.0,0.0027983812615275383
88.0,0.003316036192700267
96.0,0.003569304011762142
104.0,0.004027839284390211
112.0,0.003150532953441143
120.0,0.002164641162380576
128.0,0.0013861588668078184
144.0,4.966177948517725e-05
160.0,-0.00022457329032476991
176.0,-0.000562100438401103
192.0,0.0004512300656642765
208.0,-4.162045297562145e-05
224.0,-0.0013212717603892088
240.0,-0.002227280754595995
256.0,-0.0031314820516854525
288.0,-0.003246771637350321
320.0,-0.001395562430843711
352.0,0.00021224288502708077
384.0,0.002380174119025469
416.0,0.0022500224877148867
448.0,0.0029262742027640343
480.0,0.0026731048710644245
512.0,0.0011333503061905503
576.0,0.0015245825052261353
640.0,-6.871294317534193e-05
704.0,-0.0005274911527521908
768.0,0.0005422602407634258
832.0,0.0002050171751761809
896.0,0.0009428706835024059
960.0,0.0009111727122217417
1024.0,-0.00035134467179886997
1152.0,0.0013448498211801052
1280.0,0.0004725154140032828
1408.0,0.00015931998495943844
1536.0,0.0004710901412181556
1664.0,-3.36741345563496e-06
1792.0,0.0013218204258009791
1920.0,0.0009046970517374575
2048.0,-0.0008420284138992429
2304.0,-0.00045461702393367887
2560.0,0.000546391005627811
2816.0,-0.0027550060767680407
3072.0,0.0018858214607462287
3328.0,-0.002188742160797119
3584.0,-0.000442538526840508
3840.0,-0.0014747701352462173
4096.0,-0.001961235888302326
4608.0,-0.0006227887351997197
5120.0,0.00036123767495155334
5632.0,-0.0003784475557040423
6144.0,-0.0004635177901946008
6656.0,2.365513410040876e-06
7168.0,7.056202593958005e-05
7680.0,0.000525078212376684
8192.0,0.0005558875272981822
9216.0,0.0006666037370450795
10240.0,0.0009983049239963293
11264.0,-0.0007407642551697791
12288.0,-0.0021857162937521935
13312.0,-0.0010216871742159128
14336.0,-0.00029954651836305857
end
