version,3.0
numOfCh,1
type,point
parent_name,8-cuts
ch_type,1_1
kcount,1
numberNandB,1
brightnessNandB,1
carpet pos,0
pc,0
Time (ms),CH1 Auto-Correlation
1.0,0.044475868344306946
2.0,0.04131563752889633
3.0,0.03859831765294075
4.0,0.03635137155652046
5.0,0.03435860946774483
6.0,0.03260476514697075
7.0,0.030966710299253464
8.0,0.02955952286720276
9.0,0.028337230905890465
10.0,0.02722129598259926
11.0,0.02612505853176117
12.0,0.025029975920915604
13.0,0.024033857509493828
14.0,0.023141633719205856
15.0,0.022270437330007553
16.0,0.021474583074450493
18.0,0.02001265622675419
20.0,0.018715394660830498
22.0,0.017658362165093422
24.0,0.016849789768457413
26.0,0.01595524698495865
28.0,0.015117025934159756
30.0,0.01438098307698965
32.0,0.013748696073889732
36.0,0.012872405350208282
40.0,0.012023910880088806
44.0,0.010852251201868057
48.0,0.009693581610918045
52.0,0.008496115915477276
56.0,0.007459049113094807
60.0,0.006827094126492739
64.0,0.006160999648272991
72.0,0.00481580151244998
80.0,0.004444189835339785
88.0,0.00405602902173996
96.0,0.0036135967820882797
104.0,0.0023637099657207727
112.0,0.0016347459750249982
120.0,0.0014013131149113178
128.0,0.0009571330738253891
144.0,0.0005914109642617404
160.0,0.0005467875744216144
176.0,0.0004285308823455125
192.0,-0.00015167024685069919
208.0,-0.00018019408162217587
224.0,-8.182590681826696e-05
240.0,0.0014211887028068304
256.0,0.0021155376452952623
288.0,0.0017907967558130622
320.0,0.001473075244575739
352.0,0.0003122962370980531
384.0,-0.0008929498726502061
416.0,-0.0001288573257625103
448.0,0.001240797690115869
480.0,0.0010901776840910316
512.0,0.0004940992221236229
576.0,0.001610988867469132
640.0,-0.0006456787814386189
704.0,-8.412110764766112e-05
768.0,-0.0001593888009665534
832.0,0.000782312941737473
896.0,-0.0001217425597133115
960.0,-0.0013375802664086223
1024.0,0.0011686446378007531
1152.0,-0.0013337928103283048
1280.0,-0.0030395539943128824
1408.0,-0.0016252471832558513
1536.0,-0.0012673772871494293
1664.0,-0.0007479008054360747
1792.0,-0.002130257897078991
1920.0,-0.00022173910110723227
2048.0,-0.001417702529579401
2304.0,0.0001337009307462722
2560.0,0.00030553777469322085
2816.0,-0.00018956515123136342
3072.0,0.000699387863278389
3328.0,-5.529441841645166e-05
3584.0,-0.0008110655471682549
3840.0,-1.285571215703385e-05
4096.0,-0.0015137225855141878
4608.0,-0.00025461410405114293
5120.0,5.790024260932114e-06
5632.0,0.0018389889737591147
6144.0,0.0003496197168715298
6656.0,0.00018227841064799577
7168.0,-0.0015729140723124146
7680.0,-0.00011297586024738848
8192.0,-0.0011666136560961604
9216.0,-0.0004998630611225963
10240.0,0.0014920930843800306
11264.0,0.0012255902402102947
12288.0,0.0019102835794910789
13312.0,-0.0016019496833905578
14336.0,-0.001997457817196846
end
