version,3.0
numOfCh,1
type,point
parent_name,8-cuts
ch_type,1_1
kcount,1
numberNandB,1
brightnessNandB,1
carpet pos,0
pc,0
Time (ms),CH1 Auto-Correlation
1.0,0.08566737920045853
2.0,0.07907011359930038
3.0,0.07307998090982437
4.0,0.06791017949581146
5.0,0.06322720646858215
6.0,0.0590670183300972
7.0,0.055359989404678345
8.0,0.0522015318274498
9.0,0.04945561662316322
10.0,0.04695635661482811
11.0,0.04465955123305321
12.0,0.04272763431072235
13.0,0.0407925546169281
14.0,0.039121635258197784
15.0,0.03773012012243271
16.0,0.03648095205426216
18.0,0.034240227192640305
20.0,0.032242149114608765
22.0,0.03011981211602688
24.0,0.027939986437559128
26.0,0.02598707750439644
28.0,0.023944495245814323
30.0,0.021960169076919556
32.0,0.0202532559633255
36.0,0.01818343997001648
40.0,0.016362931579351425
44.0,0.015078948810696602
48.0,0.014054295606911182
52.0,0.013050760142505169
56.0,0.012600469402968884
60.0,0.01136302575469017
64.0,0.009896491654217243
72.0,0.008561049588024616
80.0,0.00640322919934988
88.0,0.004498186055570841
96.0,0.004107343498617411
104.0,0.001640238449908793
112.0,-3.176393511239439e-05
120.0,-0.0021786706056445837
128.0,-0.0035967985168099403
144.0,-0.004664981737732887
160.0,-0.004645039793103933
176.0,-0.004898610524833202
192.0,-0.003572622546926141
208.0,-0.0006957852747291327
224.0,-0.0006237803027033806
240.0,-4.778189031640068e-05
256.0,-0.0016739815473556519
288.0,-0.0028865693602710962
320.0,-0.0044549028389155865
352.0,-0.0020308727398514748
384.0,0.0001523408864159137
416.0,-0.0006288171862252057
448.0,-0.0014028919395059347
480.0,-0.0018513643881306052
512.0,-0.005616251844912767
576.0,-0.0020490519236773252
640.0,0.003144718473777175
704.0,0.004954721312969923
768.0,-6.864871920697624e-06
832.0,0.001582888187840581
896.0,-0.000521883019246161
960.0,-0.0065080164931714535
1024.0,-0.003677120665088296
1152.0,0.0026680806186050177
1280.0,0.0010131779126822948
1408.0,-0.001946142641827464
1536.0,-0.0019149812869727612
1664.0,-0.0028180673252791166
1792.0,-0.0015680532669648528
1920.0,-0.002935342025011778
2048.0,-0.0021805420983582735
2304.0,-0.0009393799700774252
2560.0,-0.0022781912703067064
2816.0,0.0001903190277516842
3072.0,0.00206459267064929
3328.0,0.0003497286234050989
3584.0,-0.0022111907601356506
3840.0,0.001799450139515102
4096.0,0.0016620805254206061
4608.0,0.0006864137831144035
5120.0,-0.0005080891423858702
5632.0,-0.0004974192706868052
6144.0,9.398053953191265e-05
6656.0,0.0005679031019099057
7168.0,0.0022717590909451246
7680.0,-0.0010803217301145196
8192.0,-0.0002682182239368558
9216.0,-0.00040733645437285304
10240.0,0.00018197023018728942
11264.0,0.0011635991977527738
12288.0,-0.00014675274724140763
13312.0,-0.0021280129440128803
14336.0,0.0003276921925134957
end
