version,3.0
numOfCh,1
type,point
parent_name,8-cuts
ch_type,1_1
kcount,1
numberNandB,1
brightnessNandB,1
carpet pos,0
pc,0
Time (ms),CH1 Auto-Correlation
1.0,0.0889500230550766
2.0,0.08204253017902374
3.0,0.07600332796573639
4.0,0.07078251242637634
5.0,0.0660967081785202
6.0,0.062289562076330185
7.0,0.059039406478405
8.0,0.05605735257267952
9.0,0.05368182063102722
10.0,0.05144299939274788
11.0,0.04919677972793579
12.0,0.04721592366695404
13.0,0.04516084864735603
14.0,0.04346529021859169
15.0,0.04161141440272331
16.0,0.03980909287929535
18.0,0.03691186383366585
20.0,0.03459998965263367
22.0,0.03242406249046326
24.0,0.03032568283379078
26.0,0.028552202507853508
28.0,0.026886461302638054
30.0,0.025298980996012688
32.0,0.02403913624584675
36.0,0.022452933713793755
40.0,0.021378643810749054
44.0,0.019066089764237404
48.0,0.016371475532650948
52.0,0.01413855329155922
56.0,0.012696703895926476
60.0,0.011056036688387394
64.0,0.008592411875724792
72.0,0.005286365281790495
80.0,0.003929773345589638
88.0,0.003175147110596299
96.0,0.003967698663473129
104.0,0.002980464370921254
112.0,0.0023576330859214067
120.0,0.001391264726407826
128.0,0.001067297998815775
144.0,0.00014587485929951072
160.0,-0.00028406153433024883
176.0,-0.000734194996766746
192.0,0.00024299888173118234
208.0,0.00011294341675238684
224.0,-0.0002894429489970207
240.0,-0.00015496766718570143
256.0,0.0008484508143737912
288.0,0.0006013056845404208
320.0,3.509128146106377e-05
352.0,0.00013789389049634337
384.0,0.00011864434054587036
416.0,-0.003284803591668606
448.0,-0.005243867635726929
480.0,-0.003978752065449953
512.0,-0.0036427045706659555
576.0,0.00045356148621067405
640.0,0.0027516260743141174
704.0,0.004315727390348911
768.0,0.0032265963964164257
832.0,0.004867248702794313
896.0,0.004561303649097681
960.0,0.003160133957862854
1024.0,-0.00048404408153146505
1152.0,-0.0006318399682641029
1280.0,-0.0077023813501000404
1408.0,0.0038007732946425676
1536.0,-0.0008397200144827366
1664.0,-0.0013024205109104514
1792.0,-0.0008201661403290927
1920.0,0.000677015574183315
2048.0,0.0019822586327791214
2304.0,-0.0007832106202840805
2560.0,0.0017566126771271229
2816.0,0.002074379939585924
3072.0,0.0011908237356692553
3328.0,-0.002607304137200117
3584.0,5.7169772844645195e-06
3840.0,-0.0030941711738705635
4096.0,-0.0009262543171644211
4608.0,-0.0019949455745518208
5120.0,-0.0021966248750686646
5632.0,-0.0005756265018135309
6144.0,-0.0013078898191452026
6656.0,-0.0010910909622907639
7168.0,-0.0005718899774365127
7680.0,-0.0032937403302639723
8192.0,0.0005598706775344908
9216.0,0.001961627509444952
10240.0,-0.0009073830442503095
11264.0,0.004197204019874334
12288.0,6.316135113593191e-05
13312.0,-0.0011603363091126084
14336.0,-0.0029550278559327126
end
