version,3.0
numOfCh,1
type,point
parent_name,8-cuts
ch_type,1_1
kcount,1
numberNandB,1
brightnessNandB,1
carpet pos,0
pc,0
Time (ms),CH1 Auto-Correlation
1.0,0.027689363807439804
2.0,0.025532478466629982
3.0,0.02362838014960289
4.0,0.02196124568581581
5.0,0.020545102655887604
6.0,0.019308840855956078
7.0,0.018249807879328728
8.0,0.017320813611149788
9.0,0.01650826632976532
10.0,0.01573028787970543
11.0,0.015055536292493343
12.0,0.014444021508097649
13.0,0.013936047442257404
14.0,0.013443974778056145
15.0,0.012914172373712063
16.0,0.0124618886038661
18.0,0.011709962971508503
20.0,0.010741041041910648
22.0,0.009980112314224243
24.0,0.009326521307229996
26.0,0.008739002048969269
28.0,0.008099817670881748
30.0,0.007536148652434349
32.0,0.007118514273315668
36.0,0.00636091036722064
40.0,0.005810900125652552
44.0,0.005110479891300201
48.0,0.004530885722488165
52.0,0.003994327504187822
56.0,0.003448818577453494
60.0,0.003385031595826149
64.0,0.0032069843728095293
72.0,0.002719020238146186
80.0,0.0024364716373384
88.0,0.002444558311253786
96.0,0.002702426165342331
104.0,0.0031562752556055784
112.0,0.0030438436660915613
120.0,0.002362018683925271
128.0,0.0016648726304993033
144.0,0.0013415104476734996
160.0,0.001545364037156105
176.0,0.002757262671366334
192.0,0.0026359688490629196
208.0,0.0017442285316064954
224.0,0.0014994664816185832
240.0,0.0010744334431365132
256.0,0.0008559779962524772
288.0,0.0012462923768907785
320.0,-0.0002318819606443867
352.0,-0.0008632437093183398
384.0,-0.0004749631625600159
416.0,-0.000979257863946259
448.0,-0.0014283973723649979
480.0,-0.0002846779825631529
512.0,-6.359724648064002e-05
576.0,0.00029644547612406313
640.0,0.00020888628205284476
704.0,0.00045531991054303944
768.0,0.0007579380762763321
832.0,-0.0006143400096334517
896.0,0.00040015357080847025
960.0,-0.00019625028653535992
1024.0,-0.00042400340316817164
1152.0,1.3224286703916732e-05
1280.0,-0.0004772001120727509
1408.0,-0.0010851944098249078
1536.0,-0.0026500399690121412
1664.0,-0.0017250190721824765
1792.0,5.229481030255556e-05
1920.0,0.00046683696564286947
2048.0,0.0003890950756613165
2304.0,-0.001003759098239243
2560.0,2.8404661861713976e-05
2816.0,-0.0006808685138821602
3072.0,0.0012732711620628834
3328.0,0.00020960757683496922
3584.0,-0.00012332260666880757
3840.0,0.00030827452428638935
4096.0,-0.0008014157065190375
4608.0,-0.0007492692675441504
5120.0,-0.000656910240650177
5632.0,-5.606216291198507e-05
6144.0,0.0006258660578168929
6656.0,0.00010936173930531368
7168.0,-0.0003319790994282812
7680.0,0.00043394294334575534
8192.0,-0.0005525493761524558
9216.0,0.001069702673703432
10240.0,-0.0013775958213955164
11264.0,0.00038062460953369737
12288.0,0.002574474783614278
13312.0,-0.0028533772565424442
14336.0,-0.001987033523619175
end
