version,3.0
numOfCh,1
type,point
parent_name,8-cuts
ch_type,1_1
kcount,1
numberNandB,1
brightnessNandB,1
carpet pos,0
pc,0
Time (ms),CH1 Auto-Correlation
1.0,0.041970282793045044
2.0,0.038847990334033966
3.0,0.03617814555764198
4.0,0.03381772339344025
5.0,0.03187285736203194
6.0,0.03011181950569153
7.0,0.028583725914359093
8.0,0.02721458673477173
9.0,0.025958707556128502
10.0,0.024902891367673874
11.0,0.02388160489499569
12.0,0.022945422679185867
13.0,0.022061068564653397
14.0,0.021196354180574417
15.0,0.0203729048371315
16.0,0.019588015973567963
18.0,0.018502511084079742
20.0,0.01746024377644062
22.0,0.016493160277605057
24.0,0.015659159049391747
26.0,0.014988172799348831
28.0,0.014210128225386143
30.0,0.013547717593610287
32.0,0.012926306575536728
36.0,0.011782241053879261
40.0,0.010946596972644329
44.0,0.010263063944876194
48.0,0.009640596807003021
52.0,0.009048673324286938
56.0,0.008787033148109913
60.0,0.00846540555357933
64.0,0.00834631733596325
72.0,0.007317401468753815
80.0,0.005918207578361034
88.0,0.004939967300742865
96.0,0.004259360954165459
104.0,0.0040006618946790695
112.0,0.004146968014538288
120.0,0.003958589863032103
128.0,0.003629489103332162
144.0,0.003581076627597213
160.0,0.004133391659706831
176.0,0.003457388374954462
192.0,0.003234771778807044
208.0,0.003994940314441919
224.0,0.002848504576832056
240.0,0.0013899526093155146
256.0,0.001015323679894209
288.0,0.001069657038897276
320.0,0.0011643330799415708
352.0,0.0020550722256302834
384.0,0.0033479430712759495
416.0,0.0030094250105321407
448.0,0.0017575033707544208
480.0,0.0009369663894176483
512.0,0.0006411593640223145
576.0,0.0013177263317629695
640.0,-0.00022297991381492466
704.0,-8.946659363573417e-05
768.0,-0.000913294730708003
832.0,0.0004843803762923926
896.0,-0.000671544810757041
960.0,-0.0007431897684000432
1024.0,-0.000981170916929841
1152.0,0.0006775800720788538
1280.0,-0.0027583211194723845
1408.0,-0.0012095917481929064
1536.0,1.7051179383997805e-05
1664.0,0.0003798026009462774
1792.0,-0.0005827562417834997
1920.0,-0.001265931292437017
2048.0,-0.002595726167783141
2304.0,-0.0037566388491541147
2560.0,-0.001664493465796113
2816.0,-0.0009627208928577602
3072.0,0.001062923576682806
3328.0,-0.0009713959880173206
3584.0,0.0004991532769054174
3840.0,-0.0015490135410800576
4096.0,-5.7029828894883394e-05
4608.0,-2.228718039987143e-05
5120.0,0.0005609998479485512
5632.0,0.0005498426035046577
6144.0,0.0003202719963155687
6656.0,4.041766078444198e-05
7168.0,-0.0002565953182056546
7680.0,-0.0011319078039377928
8192.0,-0.0010039698099717498
9216.0,0.0017669438384473324
10240.0,-0.002144515747204423
11264.0,-0.0020941731054335833
12288.0,0.0017854176694527268
13312.0,0.0014413307653740048
14336.0,-0.00157155969645828
end
