version,3.0
numOfCh,1
type,point
parent_name,fe81d_10dot0-1dot0
ch_type,1_1
kcount,1
numberNandB,1
brightnessNandB,1
carpet pos,0
pc,0
Time (ms),CH1 Auto-Correlation
1.0,0.01299827080219984
2.0,0.008756116963922977
3.0,0.006344162859022617
4.0,0.005021451506763697
5.0,0.004094136878848076
6.0,0.003559417324140668
7.0,0.0030478443950414658
8.0,0.0025455045979470015
9.0,0.0022154077887535095
10.0,0.0019134714966639876
11.0,0.0017311371630057693
12.0,0.0016598413931205869
13.0,0.0015000100247561932
14.0,0.001333582098595798
15.0,0.0013576989294961095
16.0,0.0013279664563015103
18.0,0.0013940894277766347
20.0,0.0014032667968422174
22.0,0.0013353402027860284
24.0,0.0013237849343568087
26.0,0.0012900650035589933
28.0,0.0012507502688094974
30.0,0.0011680724564939737
32.0,0.000910034985281527
36.0,0.0007416994776576757
40.0,0.0006933188997209072
44.0,0.0002817400963976979
48.0,3.632618245319463e-05
52.0,3.5258723073638976e-05
56.0,7.473269215552136e-05
60.0,0.00016252683417405933
64.0,0.00017239207227248698
72.0,0.00014253854169510305
80.0,-0.000399418524466455
88.0,-0.0002051560877589509
96.0,0.00013407677761279047
104.0,0.00013990029401611537
112.0,0.0003916675632353872
120.0,7.34950226615183e-05
128.0,-0.0001372562110191211
144.0,-0.00025956242461688817
160.0,5.907015656703152e-05
176.0,-0.0003719413070939481
192.0,-0.0004295881080906838
208.0,-0.00028046942315995693
224.0,1.2393755241646431e-05
240.0,0.0004051227297168225
256.0,0.00017935923824552447
288.0,0.00016726301691960543
320.0,3.1378934295389627e-07
352.0,4.549595541902818e-05
384.0,0.0003020447038579732
416.0,8.154546230798587e-05
448.0,-8.888686716090888e-05
480.0,-7.998381624929607e-05
512.0,0.00011026308493455872
576.0,-0.00012581676128320396
640.0,7.43530981708318e-05
704.0,-8.504660945618525e-05
768.0,0.0001142793771577999
832.0,-4.221457857056521e-06
896.0,0.00019374486873857677
960.0,-0.0003652539453469217
1024.0,-6.714298069709912e-05
1152.0,-1.0198364179814234e-05
1280.0,-2.4287786800414324e-05
1408.0,-6.87552965246141e-05
1536.0,-1.8673710656003095e-05
1664.0,-8.75278692546999e-06
1792.0,2.708595638978295e-05
1920.0,0.00025258143432438374
2048.0,-0.0001588646264281124
2304.0,-0.00024317626957781613
2560.0,-7.000118057476357e-05
2816.0,6.179333286127076e-05
3072.0,-5.794527896796353e-05
3328.0,5.024490747018717e-05
3584.0,-1.8479837308404967e-05
3840.0,5.9907048125751317e-05
4096.0,-0.0002840562956407666
4608.0,4.416147930896841e-05
5120.0,8.517429523635656e-05
5632.0,9.897824384097476e-06
6144.0,-9.783633868210018e-05
6656.0,-4.4095165208091203e-07
7168.0,-0.00016096109175123274
7680.0,-6.91763634677045e-05
8192.0,0.00010183031554333866
end
