version,3.0
numOfCh,1
type,point
parent_name,714af_0dot2-0dot1
ch_type,1_1
kcount,1
numberNandB,1
brightnessNandB,1
carpet pos,0
pc,0
Time (ms),CH1 Auto-Correlation
1.0,0.10157354176044464
2.0,0.09823419153690338
3.0,0.09526866674423218
4.0,0.0924014002084732
5.0,0.08876954764127731
6.0,0.08564886450767517
7.0,0.08291924744844437
8.0,0.08056904375553131
9.0,0.07830654829740524
10.0,0.07636089622974396
11.0,0.07436375319957733
12.0,0.07189784944057465
13.0,0.06955861300230026
14.0,0.0669039934873581
15.0,0.06398094445466995
16.0,0.060711342841386795
18.0,0.05435797944664955
20.0,0.0510408841073513
22.0,0.049501463770866394
24.0,0.047919273376464844
26.0,0.04630459100008011
28.0,0.04476640373468399
30.0,0.04318045452237129
32.0,0.04166308790445328
36.0,0.03894659876823425
40.0,0.03666813299059868
44.0,0.03473915159702301
48.0,0.03290916606783867
52.0,0.03140593320131302
56.0,0.03010161966085434
60.0,0.028719479218125343
64.0,0.027330826967954636
72.0,0.02491077221930027
80.0,0.023098699748516083
88.0,0.022094348445534706
96.0,0.021666377782821655
104.0,0.021551648154854774
112.0,0.02101276069879532
120.0,0.019709540531039238
128.0,0.01744622178375721
144.0,0.013404867611825466
160.0,0.011619594879448414
176.0,0.010421084240078926
192.0,0.009599682874977589
208.0,0.009774912148714066
224.0,0.009581958875060081
240.0,0.009298048913478851
256.0,0.009653722867369652
288.0,0.009570686146616936
320.0,0.007915773428976536
352.0,0.0067995632998645306
384.0,0.007966809906065464
416.0,0.007225874811410904
448.0,0.004351357463747263
480.0,0.00469439011067152
512.0,0.005246255546808243
576.0,-0.00036079881829209626
640.0,0.001122046960517764
704.0,0.0008485918515361845
768.0,-0.0017786415992304683
832.0,0.0016944383969530463
896.0,0.0023345143999904394
960.0,-0.00036023405846208334
1024.0,-0.0043036965653300285
1152.0,-0.00546147208660841
1280.0,-0.004970594774931669
1408.0,-0.0075314706191420555
1536.0,-0.008090870454907417
1664.0,-0.005898157600313425
1792.0,-0.005208480637520552
1920.0,-0.0014011129969730973
2048.0,0.002080622361972928
2304.0,0.0029622139409184456
2560.0,-0.0023107067681849003
2816.0,-0.002753633540123701
3072.0,-0.0057265195064246655
3328.0,-0.008529148995876312
3584.0,-0.004430601838976145
3840.0,-0.003021174343302846
4096.0,0.0025496219750493765
4608.0,0.006026323419064283
5120.0,0.00421201903373003
5632.0,-0.003006895538419485
6144.0,-0.0062697650864720345
6656.0,0.0011932653142139316
7168.0,-0.0011694396380335093
7680.0,-0.011831628158688545
8192.0,-0.009404529817402363
end
