version,3.0
numOfCh,1
type,point
parent_name,714af_0dot2-0dot1
ch_type,1_1
kcount,1
numberNandB,1
brightnessNandB,1
carpet pos,0
pc,0
Time (ms),CH1 Auto-Correlation
1.0,0.07472404092550278
2.0,0.07345249503850937
3.0,0.0722167044878006
4.0,0.07101422548294067
5.0,0.06983891874551773
6.0,0.0687485784292221
7.0,0.06770738214254379
8.0,0.06675248593091965
9.0,0.0658269003033638
10.0,0.06494275480508804
11.0,0.06405573338270187
12.0,0.06316790729761124
13.0,0.06230427697300911
14.0,0.061453673988580704
15.0,0.06065042316913605
16.0,0.05987140163779259
18.0,0.05830942839384079
20.0,0.05685143545269966
22.0,0.05553111806511879
24.0,0.05424116179347038
26.0,0.053095992654561996
28.0,0.05204220861196518
30.0,0.050980497151613235
32.0,0.0498526357114315
36.0,0.047532472759485245
40.0,0.04527932032942772
44.0,0.043086156249046326
48.0,0.041125088930130005
52.0,0.039525508880615234
56.0,0.038018595427274704
60.0,0.036532558500766754
64.0,0.03500831872224808
72.0,0.032776277512311935
80.0,0.03106156922876835
88.0,0.02988499402999878
96.0,0.029127560555934906
104.0,0.028350885957479477
112.0,0.0275515615940094
120.0,0.0268609207123518
128.0,0.02646494470536709
144.0,0.02558210678398609
160.0,0.0248007383197546
176.0,0.024583645164966583
192.0,0.023393863812088966
208.0,0.022854212671518326
224.0,0.023176943883299828
240.0,0.02269284427165985
256.0,0.022295931354165077
288.0,0.020554112270474434
320.0,0.017143147066235542
352.0,0.01402022410184145
384.0,0.0123358815908432
416.0,0.011297090910375118
448.0,0.008539866656064987
480.0,0.007174775470048189
512.0,0.0061939735896885395
576.0,0.0032105667050927877
640.0,0.0017902235267683864
704.0,0.001076007029041648
768.0,-0.0026494935154914856
832.0,-0.0017198496498167515
896.0,0.00027982695610262454
960.0,0.00041390166734345257
1024.0,-0.0020420406945049763
1152.0,0.0008903435664251447
1280.0,0.0029648940544575453
1408.0,0.003872331464663148
1536.0,0.014085247181355953
1664.0,0.007784339599311352
1792.0,0.007409528363496065
1920.0,0.0034272244665771723
2048.0,0.004614179953932762
2304.0,0.0034404804464429617
2560.0,0.003521071979776025
2816.0,0.003042191034182906
3072.0,0.007403316907584667
3328.0,0.0038078357465565205
3584.0,-0.004240183159708977
3840.0,-0.006430245004594326
4096.0,-0.004429801367223263
4608.0,-0.002907532500103116
5120.0,-0.010774645023047924
5632.0,-0.010235379450023174
6144.0,0.000973072019405663
6656.0,-0.003912764601409435
7168.0,-0.018697001039981842
7680.0,-0.012369615957140923
8192.0,-0.008084055036306381
end
