version,3.0
numOfCh,1
type,point
parent_name,714af_0dot2-0dot1
ch_type,1_1
kcount,1
numberNandB,1
brightnessNandB,1
carpet pos,0
pc,0
Time (ms),CH1 Auto-Correlation
1.0,0.06714726984500885
2.0,0.0657561868429184
3.0,0.06445356458425522
4.0,0.06322634965181351
5.0,0.06206298619508743
6.0,0.06087871640920639
7.0,0.05978909134864807
8.0,0.05875055491924286
9.0,0.057725198566913605
10.0,0.0568014457821846
11.0,0.055896393954753876
12.0,0.05501876026391983
13.0,0.054154105484485626
14.0,0.0532977432012558
15.0,0.052498385310173035
16.0,0.051703520119190216
18.0,0.05024232342839241
20.0,0.048920515924692154
22.0,0.04760218411684036
24.0,0.046338409185409546
26.0,0.045158691704273224
28.0,0.04399436339735985
30.0,0.04279156029224396
32.0,0.04168139025568962
36.0,0.03944370895624161
40.0,0.03725985065102577
44.0,0.03523974493145943
48.0,0.03336947038769722
52.0,0.03177803382277489
56.0,0.030504919588565826
60.0,0.029378622770309448
64.0,0.028357170522212982
72.0,0.026551535353064537
80.0,0.024811871349811554
88.0,0.02341376431286335
96.0,0.021927205845713615
104.0,0.019983679056167603
112.0,0.017401831224560738
120.0,0.01488414779305458
128.0,0.012552373111248016
144.0,0.007980810478329659
160.0,0.005002718418836594
176.0,0.004309981130063534
192.0,0.00369243579916656
208.0,0.003794763470068574
224.0,0.003708876436576247
240.0,0.0025918707251548767
256.0,0.0021187574602663517
288.0,0.0011838700156658888
320.0,0.00034891138784587383
352.0,-0.0007052862783893943
384.0,-0.002103423699736595
416.0,-0.0015783800045028329
448.0,-0.0017053314950317144
480.0,-0.0027131838724017143
512.0,-0.002963791834190488
576.0,-0.004442719276994467
640.0,-0.00324080977588892
704.0,0.001212690956890583
768.0,0.004718140698969364
832.0,0.005284993909299374
896.0,0.0028461578767746687
960.0,0.0023361225612461567
1024.0,-0.001264230697415769
1152.0,-0.0003031785599887371
1280.0,-0.0012050870573148131
1408.0,0.002001602901145816
1536.0,0.005944650620222092
1664.0,0.003397679887712002
1792.0,0.0021484186872839928
1920.0,-0.005705203395336866
2048.0,-0.007878500036895275
2304.0,-0.00670912628993392
2560.0,0.0024493515957146883
2816.0,0.0020102111157029867
3072.0,-3.6021399864694104e-05
3328.0,0.0012469205539673567
3584.0,0.0002625741180963814
3840.0,-0.0012229974381625652
4096.0,-0.003934985958039761
4608.0,-0.006050217896699905
5120.0,-0.002385310363024473
5632.0,-0.0006424354505725205
6144.0,-0.007874761708080769
6656.0,0.0004155795613769442
7168.0,-0.001705608214251697
7680.0,-0.005367943085730076
8192.0,0.0018314667977392673
end
