version,3.0
numOfCh,1
type,point
parent_name,714af_0dot2-0dot1
ch_type,1_1
kcount,1
numberNandB,1
brightnessNandB,1
carpet pos,0
pc,0
Time (ms),CH1 Auto-Correlation
1.0,0.07262656837701797
2.0,0.07122398912906647
3.0,0.06990090757608414
4.0,0.0686734989285469
5.0,0.06747020781040192
6.0,0.06633451581001282
7.0,0.06524001061916351
8.0,0.06420086324214935
9.0,0.06319773942232132
10.0,0.06223757192492485
11.0,0.061364516615867615
12.0,0.060505904257297516
13.0,0.0596204474568367
14.0,0.058719415217638016
15.0,0.057866115123033524
16.0,0.05709169805049896
18.0,0.05554477125406265
20.0,0.05401723459362984
22.0,0.05249742045998573
24.0,0.051003143191337585
26.0,0.049635227769613266
28.0,0.04843183606863022
30.0,0.04721970856189728
32.0,0.046071577817201614
36.0,0.04393921419978142
40.0,0.04180261120200157
44.0,0.03973579779267311
48.0,0.03805095702409744
52.0,0.03662654757499695
56.0,0.035306792706251144
60.0,0.03407799080014229
64.0,0.03284275904297829
72.0,0.02983049862086773
80.0,0.02638440579175949
88.0,0.02377392165362835
96.0,0.022191844880580902
104.0,0.02056754380464554
112.0,0.01891648769378662
120.0,0.017666460946202278
128.0,0.016907118260860443
144.0,0.014934724196791649
160.0,0.01258575078099966
176.0,0.012149224057793617
192.0,0.01238533016294241
208.0,0.012301668524742126
224.0,0.012928147800266743
240.0,0.014335121028125286
256.0,0.015614218078553677
288.0,0.017271853983402252
320.0,0.018042702227830887
352.0,0.01611199602484703
384.0,0.014583801850676537
416.0,0.01316172257065773
448.0,0.013158812187612057
480.0,0.011224212124943733
512.0,0.006568089127540588
576.0,0.008716891519725323
640.0,0.012823217548429966
704.0,0.01326827984303236
768.0,0.009258788079023361
832.0,0.006010475102812052
896.0,0.005770720541477203
960.0,0.0062062060460448265
1024.0,0.007999834604561329
1152.0,0.012589777819812298
1280.0,0.0033842280972748995
1408.0,0.0019492984283715487
1536.0,-0.00011283541971351951
1664.0,-0.0012558323796838522
1792.0,-0.0006057598511688411
1920.0,-0.00400059437379241
2048.0,-0.0027878638356924057
2304.0,0.006726942490786314
2560.0,0.0010309634963050485
2816.0,0.004631604999303818
3072.0,0.0004072622978128493
3328.0,-0.0037332104984670877
3584.0,-0.0012391911586746573
3840.0,-0.012569020502269268
4096.0,-0.008507933467626572
4608.0,-0.010443044826388359
5120.0,-0.0078347222879529
5632.0,-0.005466875620186329
6144.0,-0.00840862188488245
6656.0,-0.011952945962548256
7168.0,-0.015033035539090633
7680.0,-0.003624468110501766
8192.0,-0.007823421619832516
end
