version,3.0
numOfCh,1
type,point
parent_name,714af_0dot2-0dot1
ch_type,1_1
kcount,1
numberNandB,1
brightnessNandB,1
carpet pos,0
pc,0
Time (ms),CH1 Auto-Correlation
1.0,0.060652196407318115
2.0,0.05952118709683418
3.0,0.05846387892961502
4.0,0.05743057280778885
5.0,0.056447166949510574
6.0,0.055496904999017715
7.0,0.05457627773284912
8.0,0.05370021611452103
9.0,0.05286397784948349
10.0,0.05206339433789253
11.0,0.051282595843076706
12.0,0.050500914454460144
13.0,0.04976334422826767
14.0,0.04906892776489258
15.0,0.04841738939285278
16.0,0.047785062342882156
18.0,0.04658188670873642
20.0,0.04545697942376137
22.0,0.0444088913500309
24.0,0.04345298558473587
26.0,0.04251602292060852
28.0,0.04163306578993797
30.0,0.040829118341207504
32.0,0.04007575288414955
36.0,0.03860391303896904
40.0,0.03723590075969696
44.0,0.036008916795253754
48.0,0.03489530831575394
52.0,0.033800847828388214
56.0,0.032744862139225006
60.0,0.03176342695951462
64.0,0.03088832087814808
72.0,0.029239913448691368
80.0,0.0277622751891613
88.0,0.026361480355262756
96.0,0.025073835626244545
104.0,0.023859232664108276
112.0,0.022254211828112602
120.0,0.020652102306485176
128.0,0.019495420157909393
144.0,0.017584146931767464
160.0,0.01637493073940277
176.0,0.0160979013890028
192.0,0.01577051542699337
208.0,0.014155578799545765
224.0,0.012290372513234615
240.0,0.01160248089581728
256.0,0.011900532990694046
288.0,0.011805658228695393
320.0,0.010509966872632504
352.0,0.011089843697845936
384.0,0.011867175810039043
416.0,0.010360443964600563
448.0,0.011145560070872307
480.0,0.011966812424361706
512.0,0.010048403404653072
576.0,0.007633056491613388
640.0,0.008271933533251286
704.0,0.01063870545476675
768.0,0.009992973878979683
832.0,0.008007480762898922
896.0,0.006477518938481808
960.0,0.003928585443645716
1024.0,-0.00019828717631753534
1152.0,-0.0017396415350958705
1280.0,-0.0017808357952162623
1408.0,0.001318946247920394
1536.0,0.0008200677111744881
1664.0,-0.00043440706213004887
1792.0,-0.004023227375000715
1920.0,-0.0038258733693510294
2048.0,-0.0071554845198988914
2304.0,-0.0020120530389249325
2560.0,-0.00261768139898777
2816.0,-0.0009738528751768172
3072.0,-0.0017926708096638322
3328.0,0.000236228879657574
3584.0,-0.006490139756351709
3840.0,-0.0057282219640910625
4096.0,-0.0005829741130582988
4608.0,-0.0039928327314555645
5120.0,-0.0006922955508343875
5632.0,0.0014417857164517045
6144.0,0.008595912717282772
6656.0,0.0075804186053574085
7168.0,0.0037309126928448677
7680.0,-0.005326555576175451
8192.0,-0.00821633916348219
end
