version,3.0
numOfCh,1
type,point
parent_name,714af_0dot2-0dot1
ch_type,1_1
kcount,1
numberNandB,1
brightnessNandB,1
carpet pos,0
pc,0
Time (ms),CH1 Auto-Correlation
1.0,0.07611384242773056
2.0,0.07462761551141739
3.0,0.07326184958219528
4.0,0.07192321866750717
5.0,0.0706281065940857
6.0,0.06941399723291397
7.0,0.06827061623334885
8.0,0.06711313128471375
9.0,0.06608828902244568
10.0,0.06510597467422485
11.0,0.06416674703359604
12.0,0.06328772008419037
13.0,0.06243257597088814
14.0,0.06163986399769783
15.0,0.0608072467148304
16.0,0.060006458312273026
18.0,0.05839107558131218
20.0,0.05678945407271385
22.0,0.05535907298326492
24.0,0.05409564822912216
26.0,0.052838023751974106
28.0,0.05154033750295639
30.0,0.05021679773926735
32.0,0.04885942116379738
36.0,0.04636720195412636
40.0,0.04400822892785072
44.0,0.04164671525359154
48.0,0.039502229541540146
52.0,0.03768201917409897
56.0,0.03614876791834831
60.0,0.03463185206055641
64.0,0.033061765134334564
72.0,0.02990010753273964
80.0,0.027031727135181427
88.0,0.02430311217904091
96.0,0.022013308480381966
104.0,0.020276103168725967
112.0,0.019217275083065033
120.0,0.018419912084937096
128.0,0.01770283468067646
144.0,0.015156838111579418
160.0,0.012967446818947792
176.0,0.011046099476516247
192.0,0.009908617474138737
208.0,0.009703894145786762
224.0,0.008767914958298206
240.0,0.0063801659271121025
256.0,0.004291188437491655
288.0,0.0017849603900685906
320.0,0.0018463844899088144
352.0,0.003243765328079462
384.0,0.0031483883503824472
416.0,0.002247399650514126
448.0,0.001842961530201137
480.0,-0.0002861489192582667
512.0,-0.000792369362898171
576.0,-0.0009980074828490615
640.0,-0.003189156297594309
704.0,-0.0020354397129267454
768.0,-0.0014319979818537831
832.0,0.0002065106964437291
896.0,0.0011546927271410823
960.0,0.003561496501788497
1024.0,0.0035112183541059494
1152.0,0.0017293010605499148
1280.0,0.003712491597980261
1408.0,0.008916622959077358
1536.0,0.006973296403884888
1664.0,0.0006192190339788795
1792.0,-0.0047318171709775925
1920.0,-0.0007272657239809632
2048.0,0.004892563913017511
2304.0,0.008359203115105629
2560.0,0.00018593453569337726
2816.0,-0.005341466050595045
3072.0,-0.0016858993330970407
3328.0,-0.00809136126190424
3584.0,-0.00549901882186532
3840.0,-0.006949079688638449
4096.0,-0.003874777350574732
4608.0,-0.005826923530548811
5120.0,-0.005957716144621372
5632.0,-0.005045470781624317
6144.0,-0.0031010140664875507
6656.0,0.0026723751798272133
7168.0,-0.0014625348849222064
7680.0,-0.006585916504263878
8192.0,0.0036873335484415293
end
