version,3.0
numOfCh,1
type,point
parent_name,714af_0dot2-0dot1
ch_type,1_1
kcount,1
numberNandB,1
brightnessNandB,1
carpet pos,0
pc,0
Time (ms),CH1 Auto-Correlation
1.0,0.07506166398525238
2.0,0.07381176203489304
3.0,0.07265397161245346
4.0,0.07152295112609863
5.0,0.07045140117406845
6.0,0.06950711458921432
7.0,0.06857022643089294
8.0,0.06769663840532303
9.0,0.06680537760257721
10.0,0.06588755548000336
11.0,0.06503261625766754
12.0,0.06422971189022064
13.0,0.06347296386957169
14.0,0.06270650029182434
15.0,0.0619291216135025
16.0,0.06116059049963951
18.0,0.05972082167863846
20.0,0.05831492692232132
22.0,0.0569920688867569
24.0,0.055742789059877396
26.0,0.054649364203214645
28.0,0.053578950464725494
30.0,0.05253554880619049
32.0,0.05156100168824196
36.0,0.04969369247555733
40.0,0.04775494709610939
44.0,0.04579079896211624
48.0,0.04418385773897171
52.0,0.04266262426972389
56.0,0.04128299281001091
60.0,0.04000795632600784
64.0,0.03877119719982147
72.0,0.03662632405757904
80.0,0.034797172993421555
88.0,0.0331353060901165
96.0,0.031495001167058945
104.0,0.029797401279211044
112.0,0.02839590795338154
120.0,0.027577605098485947
128.0,0.02733774669468403
144.0,0.02719421684741974
160.0,0.026986014097929
176.0,0.02557973749935627
192.0,0.023386064916849136
208.0,0.021247094497084618
224.0,0.019427692517638206
240.0,0.017407480627298355
256.0,0.015900764614343643
288.0,0.013015500269830227
320.0,0.010162390768527985
352.0,0.0079081105068326
384.0,0.005182816181331873
416.0,0.00246993126347661
448.0,-0.00078164431033656
480.0,-0.0023273294791579247
512.0,-0.0011767642572522163
576.0,0.00025992566952481866
640.0,0.002382829785346985
704.0,-0.00029195481329225004
768.0,-0.0026690715458244085
832.0,0.0007124964031390846
896.0,0.003187010996043682
960.0,0.001395795843563974
1024.0,-0.0006785705918446183
1152.0,-0.0029009273275732994
1280.0,-0.003471123520284891
1408.0,-0.009205401875078678
1536.0,-0.01401797216385603
1664.0,-0.018331162631511688
1792.0,-0.013288822025060654
1920.0,-0.011192764155566692
2048.0,-0.009611117653548717
2304.0,-0.010389241389930248
2560.0,-0.01393447257578373
2816.0,-0.004488503094762564
3072.0,-0.00010009395919041708
3328.0,0.008575251325964928
3584.0,0.006032527424395084
3840.0,0.009841101244091988
4096.0,0.019198866561055183
4608.0,0.009864765219390392
5120.0,-0.0009734719642437994
5632.0,-0.003981719259172678
6144.0,-0.02491001971065998
6656.0,1.5707535567344166e-05
7168.0,-0.00675393920391798
7680.0,0.0037196779157966375
8192.0,0.012867553159594536
end
