version,3.0
numOfCh,1
type,point
parent_name,714af_0dot2-0dot1
ch_type,1_1
kcount,1
numberNandB,1
brightnessNandB,1
carpet pos,0
pc,0
Time (ms),CH1 Auto-Correlation
1.0,0.0699441060423851
2.0,0.06845275312662125
3.0,0.06705483794212341
4.0,0.06575945019721985
5.0,0.06448688358068466
6.0,0.06320737302303314
7.0,0.06200864166021347
8.0,0.0608406662940979
9.0,0.05971575155854225
10.0,0.058643490076065063
11.0,0.05763731151819229
12.0,0.056642431765794754
13.0,0.05568563938140869
14.0,0.05468242987990379
15.0,0.05370272696018219
16.0,0.0527951642870903
18.0,0.051093690097332
20.0,0.04937444254755974
22.0,0.04766988009214401
24.0,0.0460643395781517
26.0,0.04454745352268219
28.0,0.04319985955953598
30.0,0.04192030802369118
32.0,0.04061441123485565
36.0,0.038075800985097885
40.0,0.03598218783736229
44.0,0.03400760889053345
48.0,0.03178877755999565
52.0,0.029824668541550636
56.0,0.027952425181865692
60.0,0.02608521096408367
64.0,0.024225225672125816
72.0,0.021612411364912987
80.0,0.019798994064331055
88.0,0.018407832831144333
96.0,0.01698794774711132
104.0,0.01558244600892067
112.0,0.014667423442006111
120.0,0.014018083922564983
128.0,0.012960688211023808
144.0,0.011999977752566338
160.0,0.012149708345532417
176.0,0.012617388740181923
192.0,0.012611323967576027
208.0,0.011906111612915993
224.0,0.011913764290511608
240.0,0.011063099838793278
256.0,0.009961537085473537
288.0,0.01125334296375513
320.0,0.010911616496741772
352.0,0.010962632484734058
384.0,0.010393748059868813
416.0,0.003117988584563136
448.0,-0.0035718251019716263
480.0,-0.004531337879598141
512.0,-0.0010476525640115142
576.0,0.002240885281935334
640.0,0.00012184237857582048
704.0,0.002967536449432373
768.0,-0.00040916717262007296
832.0,0.001115988241508603
896.0,0.001882412820123136
960.0,0.0009705545962788165
1024.0,4.892501124231785e-07
1152.0,-0.0024623034987598658
1280.0,-0.0017965345177799463
1408.0,-0.0010368983494117856
1536.0,-0.0010822727344930172
1664.0,0.0004668035835493356
1792.0,0.0015810761833563447
1920.0,0.0015755040803924203
2048.0,0.0004999723169021308
2304.0,-0.006115664262324572
2560.0,-0.004031003452837467
2816.0,0.003511774819344282
3072.0,-0.0016973646124824882
3328.0,-0.00377662293612957
3584.0,-0.005353196524083614
3840.0,-0.0048991963267326355
4096.0,-0.000282888300716877
4608.0,-0.0006424035527743399
5120.0,-0.0029436745680868626
5632.0,0.0061338855884969234
6144.0,-0.0018500910373404622
6656.0,-0.008297109045088291
7168.0,-0.0064043160527944565
7680.0,-0.010054236277937889
8192.0,-0.004592380486428738
end
