version,3.0
numOfCh,1
type,point
parent_name,714af_0dot2-0dot1
ch_type,1_1
kcount,1
numberNandB,1
brightnessNandB,1
carpet pos,0
pc,0
Time (ms),CH1 Auto-Correlation
1.0,0.07009381055831909
2.0,0.06878636032342911
3.0,0.06754207611083984
4.0,0.06630169600248337
5.0,0.06512107700109482
6.0,0.06397518515586853
7.0,0.0628708153963089
8.0,0.0617976151406765
9.0,0.060774464160203934
10.0,0.059788964688777924
11.0,0.05884724110364914
12.0,0.05789848789572716
13.0,0.056968994438648224
14.0,0.05608120560646057
15.0,0.05522746220231056
16.0,0.05439719185233116
18.0,0.05281530320644379
20.0,0.05132158100605011
22.0,0.04990280419588089
24.0,0.04850517958402634
26.0,0.047216277569532394
28.0,0.04602721333503723
30.0,0.04485449194908142
32.0,0.04366326704621315
36.0,0.04153141379356384
40.0,0.03963117673993111
44.0,0.03793730586767197
48.0,0.03668570518493652
52.0,0.035587895661592484
56.0,0.03475603461265564
60.0,0.03400197997689247
64.0,0.033415935933589935
72.0,0.032220032066106796
80.0,0.030464135110378265
88.0,0.02829844504594803
96.0,0.02626119926571846
104.0,0.024453839287161827
112.0,0.022644981741905212
120.0,0.021384144201874733
128.0,0.020612189546227455
144.0,0.019419562071561813
160.0,0.018800459802150726
176.0,0.01866583339869976
192.0,0.018057931214571
208.0,0.01694536581635475
224.0,0.01624915935099125
240.0,0.01602797769010067
256.0,0.016202501952648163
288.0,0.014747263863682747
320.0,0.01629401370882988
352.0,0.01722889393568039
384.0,0.017033644020557404
416.0,0.01858607307076454
448.0,0.01641523465514183
480.0,0.012910068035125732
512.0,0.0110592907294631
576.0,0.0068306997418403625
640.0,0.003949612379074097
704.0,0.002648137742653489
768.0,0.005877313669770956
832.0,0.00885753333568573
896.0,0.004806936252862215
960.0,0.0017385488608852029
1024.0,-0.0008618317078799009
1152.0,0.00188617710955441
1280.0,0.002738689538091421
1408.0,-0.004625482950359583
1536.0,-0.005063781980425119
1664.0,-0.006490541156381369
1792.0,-0.008256086148321629
1920.0,-0.007366837002336979
2048.0,-0.006399835459887981
2304.0,-0.006418658886104822
2560.0,-0.006920485757291317
2816.0,-0.000772251165471971
3072.0,-0.003567606210708618
3328.0,-0.003392263315618038
3584.0,0.00028403327451087534
3840.0,-0.0018483345629647374
4096.0,0.002896723337471485
4608.0,-0.0050772870890796185
5120.0,-0.005251143127679825
5632.0,-0.0052717020735144615
6144.0,0.0011908385204151273
6656.0,-7.83547293394804e-05
7168.0,0.004634531680494547
7680.0,-0.0002467770827934146
8192.0,0.012709378264844418
end
