version,3.0
numOfCh,1
type,point
parent_name,714af_0dot2-0dot1
ch_type,1_1
kcount,1
numberNandB,1
brightnessNandB,1
carpet pos,0
pc,0
Time (ms),CH1 Auto-Correlation
1.0,0.05947566404938698
2.0,0.05826249346137047
3.0,0.05710349231958389
4.0,0.055976707488298416
5.0,0.05490393191576004
6.0,0.05386645719408989
7.0,0.052844177931547165
8.0,0.051798898726701736
9.0,0.050805192440748215
10.0,0.04985089600086212
11.0,0.04897363856434822
12.0,0.04811370372772217
13.0,0.04733169451355934
14.0,0.04661644622683525
15.0,0.045898329466581345
16.0,0.04521246999502182
18.0,0.04395654797554016
20.0,0.042713712900877
22.0,0.04152717813849449
24.0,0.04038151726126671
26.0,0.039153050631284714
28.0,0.03799346461892128
30.0,0.036853428930044174
32.0,0.03575722873210907
36.0,0.033778946846723557
40.0,0.032134175300598145
44.0,0.030572716146707535
48.0,0.029166139662265778
52.0,0.027954790741205215
56.0,0.02663419395685196
60.0,0.02530658431351185
64.0,0.02424006536602974
72.0,0.021657807752490044
80.0,0.01945933699607849
88.0,0.017418306320905685
96.0,0.01578870229423046
104.0,0.014724789187312126
112.0,0.013624190352857113
120.0,0.012897606939077377
128.0,0.012329640798270702
144.0,0.011272748932242393
160.0,0.01002966333180666
176.0,0.008250241167843342
192.0,0.007003621198236942
208.0,0.005740061402320862
224.0,0.004365487024188042
240.0,0.0033166680950671434
256.0,0.00259112985804677
288.0,0.0008917274535633624
320.0,-0.0008783667581155896
352.0,-0.00010760849545476958
384.0,0.0014855872141197324
416.0,0.0016526695108041167
448.0,0.002515749540179968
480.0,0.004098248202353716
512.0,0.004333791323006153
576.0,0.005129878409206867
640.0,0.006447385530918837
704.0,0.006531694438308477
768.0,0.005625629797577858
832.0,0.00568999582901597
896.0,0.004039295017719269
960.0,0.0034886400680989027
1024.0,0.007364332675933838
1152.0,0.0062028393149375916
1280.0,0.00439826026558876
1408.0,0.001179634826257825
1536.0,7.490981079172343e-05
1664.0,-0.0018059785943478346
1792.0,0.0017264951020479202
1920.0,0.006177892908453941
2048.0,0.0023984843865036964
2304.0,0.0003522180486470461
2560.0,-0.0008180569275282323
2816.0,0.0012643277877941728
3072.0,-0.0033789107110351324
3328.0,-0.0019615369383245707
3584.0,-0.00436735711991787
3840.0,-0.002860269509255886
4096.0,-0.005561465863138437
4608.0,-0.005645012948662043
5120.0,-0.006939110346138477
5632.0,-0.00530144153162837
6144.0,-0.0031382429879158735
6656.0,0.0010652922792360187
7168.0,-0.0011414350010454655
7680.0,0.0023180809803307056
8192.0,-0.003501206636428833
end
