version,3.0
numOfCh,1
type,point
parent_name,714af_0dot2-0dot1
ch_type,1_1
kcount,1
numberNandB,1
brightnessNandB,1
carpet pos,0
pc,0
Time (ms),CH1 Auto-Correlation
1.0,0.06319783627986908
2.0,0.0618228055536747
3.0,0.06055302917957306
4.0,0.05931134521961212
5.0,0.058117106556892395
6.0,0.056962043046951294
7.0,0.055876947939395905
8.0,0.054793987423181534
9.0,0.0537932813167572
10.0,0.05282152444124222
11.0,0.05188101530075073
12.0,0.051000937819480896
13.0,0.05012945830821991
14.0,0.04929094761610031
15.0,0.048467375338077545
16.0,0.047670554369688034
18.0,0.04623875394463539
20.0,0.044978249818086624
22.0,0.04382723942399025
24.0,0.04267748072743416
26.0,0.041583891957998276
28.0,0.04052061215043068
30.0,0.039355624467134476
32.0,0.038199231028556824
36.0,0.03615842014551163
40.0,0.034194767475128174
44.0,0.0322086475789547
48.0,0.0305803045630455
52.0,0.029308903962373734
56.0,0.028127294033765793
60.0,0.026765549555420876
64.0,0.025411471724510193
72.0,0.022719888016581535
80.0,0.020357972010970116
88.0,0.017947636544704437
96.0,0.015395551919937134
104.0,0.013453484512865543
112.0,0.011717233806848526
120.0,0.010477935895323753
128.0,0.009346475824713707
144.0,0.0072402446530759335
160.0,0.006505695637315512
176.0,0.006567320786416531
192.0,0.0064441063441336155
208.0,0.004983866587281227
224.0,0.0034228023141622543
240.0,0.002867087023332715
256.0,0.003051578067243099
288.0,0.0024129445664584637
320.0,0.0020909179002046585
352.0,0.0029437767807394266
384.0,0.0050485823303461075
416.0,0.007011729758232832
448.0,0.004942021798342466
480.0,0.002090386813506484
512.0,0.0006376778474077582
576.0,-0.0023190847132354975
640.0,-0.0002498905814718455
704.0,0.0014089989708736539
768.0,-0.0008718096069060266
832.0,0.0035451785661280155
896.0,0.006587429437786341
960.0,0.0033082973677664995
1024.0,-0.000842533481772989
1152.0,-0.004723487887531519
1280.0,-0.00553404213860631
1408.0,-0.011315071024000645
1536.0,-0.007958431728184223
1664.0,-0.006974140182137489
1792.0,-0.009530781768262386
1920.0,-0.006246556062251329
2048.0,-0.0015911925584077835
2304.0,-0.0017294000135734677
2560.0,0.00423150509595871
2816.0,0.00722361309453845
3072.0,0.0051728226244449615
3328.0,0.002623526845127344
3584.0,0.0014488170854747295
3840.0,-0.000823973270598799
4096.0,-0.0070592793636024
4608.0,-0.008783540688455105
5120.0,-0.002840393455699086
5632.0,0.0011353126028552651
6144.0,0.007725748233497143
6656.0,0.00342118414118886
7168.0,-0.0014780882047489285
7680.0,-0.003678036853671074
8192.0,-0.0027664504013955593
end
