version,3.0
numOfCh,1
type,point
parent_name,714af_0dot2-0dot1
ch_type,1_1
kcount,1
numberNandB,1
brightnessNandB,1
carpet pos,0
pc,0
Time (ms),CH1 Auto-Correlation
1.0,0.05960790440440178
2.0,0.05817336216568947
3.0,0.05681481584906578
4.0,0.05551593378186226
5.0,0.05423567444086075
6.0,0.053039778023958206
7.0,0.051878128200769424
8.0,0.05078183114528656
9.0,0.049725763499736786
10.0,0.04873848333954811
11.0,0.0477711446583271
12.0,0.04681834578514099
13.0,0.04592593014240265
14.0,0.04507787898182869
15.0,0.04422135278582573
16.0,0.043377865105867386
18.0,0.041716914623975754
20.0,0.040141526609659195
22.0,0.03860427811741829
24.0,0.037114210426807404
26.0,0.03574780002236366
28.0,0.034487418830394745
30.0,0.03329243138432503
32.0,0.032181981950998306
36.0,0.030236147344112396
40.0,0.028500497341156006
44.0,0.02709026448428631
48.0,0.026024479418992996
52.0,0.02514771558344364
56.0,0.024121858179569244
60.0,0.02297583408653736
64.0,0.02206260897219181
72.0,0.020648518577218056
80.0,0.019371848553419113
88.0,0.01809544861316681
96.0,0.01676766574382782
104.0,0.015527868643403053
112.0,0.014729436486959457
120.0,0.014269836246967316
128.0,0.013686496764421463
144.0,0.010964823886752129
160.0,0.008158018812537193
176.0,0.007497239392250776
192.0,0.007415201980620623
208.0,0.006144835613667965
224.0,0.006138972006738186
240.0,0.006442775018513203
256.0,0.006334739271551371
288.0,0.005505788139998913
320.0,0.004599625710397959
352.0,0.0012657791376113892
384.0,-0.0009926531929522753
416.0,-0.0036151790991425514
448.0,-0.006105363368988037
480.0,-0.006498095579445362
512.0,-0.00801785010844469
576.0,-0.009101761505007744
640.0,-0.004893247038125992
704.0,0.0002007052826229483
768.0,0.002596954582259059
832.0,0.0008350446587428451
896.0,-0.0008258799789473414
960.0,0.0001500793150626123
1024.0,0.0031408544164150953
1152.0,0.0031935886945575476
1280.0,0.0009090379462577403
1408.0,0.0028210978489369154
1536.0,0.002119149314239621
1664.0,-0.0006902308668941259
1792.0,0.0019786576740443707
1920.0,0.0027299837674945593
2048.0,0.004612680524587631
2304.0,-0.003968279343098402
2560.0,-0.003946180921047926
2816.0,0.0027875357773154974
3072.0,0.000684241415001452
3328.0,-0.008127488195896149
3584.0,-0.006063042674213648
3840.0,0.0010275051463395357
4096.0,0.004493824206292629
4608.0,-0.004330690484493971
5120.0,-0.0032825199887156487
5632.0,0.00068092584842816
6144.0,-0.002279467647895217
6656.0,-0.003449835116043687
7168.0,0.004918880760669708
7680.0,-0.00443465169519186
8192.0,0.0015878251288086176
end
