version,3.0
numOfCh,1
type,point
parent_name,714af_0dot2-0dot1
ch_type,1_1
kcount,1
numberNandB,1
brightnessNandB,1
carpet pos,0
pc,0
Time (ms),CH1 Auto-Correlation
1.0,0.06395169347524643
2.0,0.06270753592252731
3.0,0.061507124453783035
4.0,0.06036858633160591
5.0,0.05932324752211571
6.0,0.058332886546850204
7.0,0.057375356554985046
8.0,0.05640754476189613
9.0,0.05548674240708351
10.0,0.05464000999927521
11.0,0.05386297404766083
12.0,0.05314900726079941
13.0,0.052415184676647186
14.0,0.051678288727998734
15.0,0.050942663103342056
16.0,0.05018249899148941
18.0,0.04881787672638893
20.0,0.047503747045993805
22.0,0.046210359781980515
24.0,0.04502307251095772
26.0,0.04385366663336754
28.0,0.04271772876381874
30.0,0.041675738990306854
32.0,0.04068721458315849
36.0,0.038966234773397446
40.0,0.03724759444594383
44.0,0.03568652272224426
48.0,0.034409813582897186
52.0,0.03320558741688728
56.0,0.03183029592037201
60.0,0.030428055673837662
64.0,0.029091062024235725
72.0,0.0268082432448864
80.0,0.024886274710297585
88.0,0.0236103106290102
96.0,0.02300654724240303
104.0,0.02265126258134842
112.0,0.022136561572551727
120.0,0.021468540653586388
128.0,0.020864099264144897
144.0,0.019600950181484222
160.0,0.017347464337944984
176.0,0.014787417836487293
192.0,0.012969953007996082
208.0,0.011670025065541267
224.0,0.010404180735349655
240.0,0.009550758637487888
256.0,0.009402654133737087
288.0,0.008363445289433002
320.0,0.004851501435041428
352.0,0.004010835662484169
384.0,0.00465439073741436
416.0,0.003544802078977227
448.0,-0.00013723698793910444
480.0,-0.0011069185566157103
512.0,-0.002834650222212076
576.0,-0.005122825503349304
640.0,-0.003948714584112167
704.0,-0.005025553982704878
768.0,-0.0035750370007008314
832.0,-0.0012945772614330053
896.0,0.0004464616358745843
960.0,0.0015448564663529396
1024.0,-0.00048561906442046165
1152.0,-0.0002437132061459124
1280.0,-0.0003420850553084165
1408.0,0.0017556198872625828
1536.0,-0.0007844278588891029
1664.0,-0.003706548362970352
1792.0,-0.0019638005178421736
1920.0,-0.0024829136673361063
2048.0,-0.0031669088639318943
2304.0,0.002144024707376957
2560.0,0.008876997977495193
2816.0,0.0015798186650499701
3072.0,-0.008264749310910702
3328.0,-0.0020553716458380222
3584.0,0.004744372330605984
3840.0,0.003594492096453905
4096.0,0.00219929707236588
4608.0,-0.006210566498339176
5120.0,-0.009355006739497185
5632.0,-0.007147091906517744
6144.0,-0.0015459785936400294
6656.0,0.0018083665054291487
7168.0,-0.0015406985767185688
7680.0,-0.00635388633236289
8192.0,-0.0008843751274980605
end
