version,3.0
numOfCh,1
type,point
parent_name,714af_0dot2-0dot1
ch_type,1_1
kcount,1
numberNandB,1
brightnessNandB,1
carpet pos,0
pc,0
Time (ms),CH1 Auto-Correlation
1.0,0.05952417477965355
2.0,0.0581735298037529
3.0,0.05687809735536575
4.0,0.05563034489750862
5.0,0.05444762110710144
6.0,0.05336471647024155
7.0,0.052324917167425156
8.0,0.051356349140405655
9.0,0.05037378892302513
10.0,0.04944164678454399
11.0,0.04857005551457405
12.0,0.04770559445023537
13.0,0.04687910154461861
14.0,0.046088505536317825
15.0,0.04532940685749054
16.0,0.04463304206728935
18.0,0.04327740892767906
20.0,0.041985079646110535
22.0,0.04079190641641617
24.0,0.03959059715270996
26.0,0.038444843143224716
28.0,0.03737081587314606
30.0,0.03635411709547043
32.0,0.03527374938130379
36.0,0.03316484019160271
40.0,0.03139130398631096
44.0,0.030088206753134727
48.0,0.028887057676911354
52.0,0.027687285095453262
56.0,0.026498254388570786
60.0,0.025343647226691246
64.0,0.024432186037302017
72.0,0.022752340883016586
80.0,0.021090369671583176
88.0,0.019590061157941818
96.0,0.01832450181245804
104.0,0.017179153859615326
112.0,0.015614422038197517
120.0,0.014157738536596298
128.0,0.013130880892276764
144.0,0.011651038192212582
160.0,0.009745442308485508
176.0,0.008531040512025356
192.0,0.006905649788677692
208.0,0.006130027584731579
224.0,0.006184256635606289
240.0,0.00704718055203557
256.0,0.008227280341088772
288.0,0.009800495579838753
320.0,0.00939988810569048
352.0,0.008187421597540379
384.0,0.007912504486739635
416.0,0.008305694907903671
448.0,0.00875480193644762
480.0,0.008136210963129997
512.0,0.0061163147911429405
576.0,0.005616121459752321
640.0,0.0050710816867649555
704.0,0.010046218521893024
768.0,0.013194783590734005
832.0,0.010211565531790257
896.0,0.005608086008578539
960.0,-0.0030268507543951273
1024.0,-0.003355597145855427
1152.0,0.002056496450677514
1280.0,-0.0016787057975307107
1408.0,-0.0007080841460265219
1536.0,-0.0004456765891518444
1664.0,0.0001522811799077317
1792.0,-0.004473332781344652
1920.0,0.002115631941705942
2048.0,7.421421469189227e-05
2304.0,0.0007145002600736916
2560.0,0.0023213867098093033
2816.0,-0.0011863019317388535
3072.0,-0.0026558053214102983
3328.0,-0.001476187608204782
3584.0,-0.0026907611172646284
3840.0,-0.002945174463093281
4096.0,-0.006669650785624981
4608.0,-0.006616779137402773
5120.0,-0.006365923210978508
5632.0,-0.006765469443053007
6144.0,0.0006632631411775947
6656.0,0.0009147196542471647
7168.0,-0.004402975086122751
7680.0,0.0013334949035197496
8192.0,0.0028551719151437283
end
