version,3.0
numOfCh,1
type,point
parent_name,714af_0dot2-0dot1
ch_type,1_1
kcount,1
numberNandB,1
brightnessNandB,1
carpet pos,0
pc,0
Time (ms),CH1 Auto-Correlation
1.0,0.06767432391643524
2.0,0.06651900708675385
3.0,0.06540686637163162
4.0,0.06431785225868225
5.0,0.06330519914627075
6.0,0.06232776865363121
7.0,0.06137188524007797
8.0,0.060451775789260864
9.0,0.059529103338718414
10.0,0.05862261354923248
11.0,0.057747937738895416
12.0,0.05688421055674553
13.0,0.056056346744298935
14.0,0.05524836480617523
15.0,0.05444148927927017
16.0,0.0536910779774189
18.0,0.05225307121872902
20.0,0.050848204642534256
22.0,0.04947955161333084
24.0,0.04817139357328415
26.0,0.046802811324596405
28.0,0.045477475970983505
30.0,0.04419245943427086
32.0,0.04294232279062271
36.0,0.04077945649623871
40.0,0.03883853182196617
44.0,0.036984942853450775
48.0,0.035362083464860916
52.0,0.033946968615055084
56.0,0.03267965465784073
60.0,0.03153339773416519
64.0,0.030407579615712166
72.0,0.028202444314956665
80.0,0.02633954957127571
88.0,0.024411354213953018
96.0,0.021938759833574295
104.0,0.01965387351810932
112.0,0.018192186951637268
120.0,0.01698901131749153
128.0,0.015505415387451649
144.0,0.01312912069261074
160.0,0.011139468289911747
176.0,0.009572531096637249
192.0,0.008590483106672764
208.0,0.007480044849216938
224.0,0.007385832257568836
240.0,0.007968306541442871
256.0,0.00881863385438919
288.0,0.010700182057917118
320.0,0.013368502259254456
352.0,0.013834061101078987
384.0,0.013128274120390415
416.0,0.011204865761101246
448.0,0.006816992070525885
480.0,0.0035306760109961033
512.0,0.0009658994385972619
576.0,-0.0037576237227767706
640.0,-0.004262428730726242
704.0,-0.0035258482675999403
768.0,-0.0013867563102394342
832.0,0.0017270735697820783
896.0,-0.0002697232412174344
960.0,-0.003105376148596406
1024.0,-0.004692459013313055
1152.0,-0.004366546869277954
1280.0,-0.003222227096557617
1408.0,-0.007894379086792469
1536.0,-0.007476514205336571
1664.0,-0.004478311166167259
1792.0,0.000526788120623678
1920.0,-0.0005226270295679569
2048.0,-0.004302653484046459
2304.0,-0.002092966577038169
2560.0,0.00029497346258722246
2816.0,-0.0040845139883458614
3072.0,0.00238559627905488
3328.0,-0.005312550812959671
3584.0,-0.00022068714315537363
3840.0,0.002414353657513857
4096.0,-0.0007323389872908592
4608.0,0.00778204295784235
5120.0,0.003086406271904707
5632.0,0.0005690784309990704
6144.0,-0.0014116654638200998
6656.0,-0.0073727755807340145
7168.0,-0.004399614874273539
7680.0,-0.007222848478704691
8192.0,-0.0015079035656526685
end
