version,3.0
numOfCh,1
type,point
parent_name,714af_0dot2-0dot1
ch_type,1_1
kcount,1
numberNandB,1
brightnessNandB,1
carpet pos,0
pc,0
Time (ms),CH1 Auto-Correlation
1.0,0.05602444335818291
2.0,0.05486229434609413
3.0,0.05375988408923149
4.0,0.052721209824085236
5.0,0.05171805992722511
6.0,0.05075830593705177
7.0,0.04986999183893204
8.0,0.04903759807348251
9.0,0.04825074225664139
10.0,0.04749823734164238
11.0,0.046755000948905945
12.0,0.04600421339273453
13.0,0.045277778059244156
14.0,0.04459844529628754
15.0,0.04399018734693527
16.0,0.04339668154716492
18.0,0.04227866232395172
20.0,0.04118611663579941
22.0,0.04017157852649689
24.0,0.039181482046842575
26.0,0.038268160074949265
28.0,0.03733857348561287
30.0,0.03643734008073807
32.0,0.035572249442338943
36.0,0.033987030386924744
40.0,0.03266312554478645
44.0,0.03148617222905159
48.0,0.030463149771094322
52.0,0.029492828994989395
56.0,0.02850200980901718
60.0,0.02734248898923397
64.0,0.026262687519192696
72.0,0.024317992851138115
80.0,0.022526035085320473
88.0,0.021076375618577003
96.0,0.02005579322576523
104.0,0.019539279863238335
112.0,0.019729604944586754
120.0,0.02022736333310604
128.0,0.020338881760835648
144.0,0.019711241126060486
160.0,0.018912237137556076
176.0,0.017813604325056076
192.0,0.01699809916317463
208.0,0.015992585569620132
224.0,0.013816213235259056
240.0,0.012298607267439365
256.0,0.011274444870650768
288.0,0.009853002615272999
320.0,0.009516606107354164
352.0,0.010791022330522537
384.0,0.011216729879379272
416.0,0.010118809528648853
448.0,0.007271100301295519
480.0,0.004777064081281424
512.0,0.0036022174172103405
576.0,0.0028270077891647816
640.0,0.00020089605823159218
704.0,0.0017298049060627818
768.0,0.002255402971059084
832.0,0.0010343026369810104
896.0,0.0007003769860602915
960.0,0.002365424996241927
1024.0,0.0034909043461084366
1152.0,0.0033440841361880302
1280.0,0.0014472735347226262
1408.0,0.0042206416837871075
1536.0,0.0014156806282699108
1664.0,0.0008261061157099903
1792.0,0.0034261527471244335
1920.0,0.0011476398212835193
2048.0,9.581905032973737e-05
2304.0,-0.002991732209920883
2560.0,-0.010970829986035824
2816.0,-0.0037238651420921087
3072.0,-0.0012288311263546348
3328.0,-0.0016968025593087077
3584.0,0.0002598579158075154
3840.0,-0.006123645696789026
4096.0,-0.004882679786533117
4608.0,-0.004971139132976532
5120.0,-0.0069524082355201244
5632.0,-0.006992722861468792
6144.0,-0.0017806560499593616
6656.0,-0.0033842141274362803
7168.0,-0.0003530136600602418
7680.0,0.010803385637700558
8192.0,0.005895975977182388
end
