version,3.0
numOfCh,1
type,point
parent_name,714af_0dot2-0dot1
ch_type,1_1
kcount,1
numberNandB,1
brightnessNandB,1
carpet pos,0
pc,0
Time (ms),CH1 Auto-Correlation
1.0,0.07619670033454895
2.0,0.07496930658817291
3.0,0.07378342747688293
4.0,0.07263047993183136
5.0,0.0715613067150116
6.0,0.07050012052059174
7.0,0.06951785832643509
8.0,0.06858959794044495
9.0,0.06769510358572006
10.0,0.06683778762817383
11.0,0.06598982214927673
12.0,0.06517890840768814
13.0,0.06439787894487381
14.0,0.06364504247903824
15.0,0.06293047964572906
16.0,0.06221727654337883
18.0,0.06091485172510147
20.0,0.05965287238359451
22.0,0.05847720429301262
24.0,0.05740635097026825
26.0,0.056315552443265915
28.0,0.055260200053453445
30.0,0.054238349199295044
32.0,0.05324312672019005
36.0,0.051246631890535355
40.0,0.04943095147609711
44.0,0.047932371497154236
48.0,0.04669570550322533
52.0,0.045586131513118744
56.0,0.04454575851559639
60.0,0.04364295303821564
64.0,0.042874205857515335
72.0,0.040999140590429306
80.0,0.03925023600459099
88.0,0.03717072680592537
96.0,0.035753339529037476
104.0,0.03486093133687973
112.0,0.034160345792770386
120.0,0.03329171985387802
128.0,0.03234650567173958
144.0,0.0303421039134264
160.0,0.028418755158782005
176.0,0.02699899487197399
192.0,0.025412453338503838
208.0,0.023829756304621696
224.0,0.0217201579362154
240.0,0.019131360575556755
256.0,0.01737331598997116
288.0,0.016392212361097336
320.0,0.015048599801957607
352.0,0.01657024584710598
384.0,0.016580024734139442
416.0,0.017549199983477592
448.0,0.01724429614841938
480.0,0.01720130443572998
512.0,0.017880842089653015
576.0,0.0205696988850832
640.0,0.017305048182606697
704.0,0.015247439965605736
768.0,0.015917330980300903
832.0,0.01728137768805027
896.0,0.015674615278840065
960.0,0.017551330849528313
1024.0,0.018872899934649467
1152.0,0.012689001858234406
1280.0,0.012674469500780106
1408.0,0.013129189610481262
1536.0,0.011438166722655296
1664.0,0.00862425658851862
1792.0,0.013593519106507301
1920.0,0.022741399705410004
2048.0,0.021621083840727806
2304.0,0.007718783337622881
2560.0,0.008710651658475399
2816.0,0.008372669108211994
3072.0,0.001014607260003686
3328.0,-0.0069762528873980045
3584.0,-0.009556878358125687
3840.0,-0.00514984130859375
4096.0,-0.0012156026205047965
4608.0,-0.010896451771259308
5120.0,-0.006524872966110706
5632.0,-0.012729882262647152
6144.0,-0.017748123034834862
6656.0,-0.015557288192212582
7168.0,-0.012913423590362072
7680.0,-0.013224084861576557
8192.0,-0.019604189321398735
end
