version,3.0
numOfCh,1
type,point
parent_name,714af_0dot2-0dot1
ch_type,1_1
kcount,1
numberNandB,1
brightnessNandB,1
carpet pos,0
pc,0
Time (ms),CH1 Auto-Correlation
1.0,0.050937194377183914
2.0,0.049769967794418335
3.0,0.048657193779945374
4.0,0.0475778803229332
5.0,0.046503946185112
6.0,0.045510631054639816
7.0,0.04458275064826012
8.0,0.04365479201078415
9.0,0.04279775172472
10.0,0.041987307369709015
11.0,0.04118483513593674
12.0,0.04038890078663826
13.0,0.03959465026855469
14.0,0.03883800655603409
15.0,0.038097232580184937
16.0,0.03737978637218475
18.0,0.03604622557759285
20.0,0.034733157604932785
22.0,0.03350767120718956
24.0,0.03236839175224304
26.0,0.03134188801050186
28.0,0.030420174822211266
30.0,0.029506757855415344
32.0,0.0285729318857193
36.0,0.026876671239733696
40.0,0.025486212223768234
44.0,0.02422504499554634
48.0,0.022945502772927284
52.0,0.02172783575952053
56.0,0.020579004660248756
60.0,0.019484015181660652
64.0,0.018459780141711235
72.0,0.016732966527342796
80.0,0.015278050675988197
88.0,0.013640047051012516
96.0,0.012270529754459858
104.0,0.011105744168162346
112.0,0.010016381740570068
120.0,0.008830905891954899
128.0,0.007663197349756956
144.0,0.0053271460346877575
160.0,0.0032134372740983963
176.0,0.0007563373073935509
192.0,-0.001100141671486199
208.0,-0.0028368874918669462
224.0,-0.004080086015164852
240.0,-0.0045687672682106495
256.0,-0.005168241448700428
288.0,-0.004565912764519453
320.0,-0.004977529868483543
352.0,-0.003821620484814048
384.0,-0.0006906241760589182
416.0,0.0008995734388008714
448.0,0.0014487295411527157
480.0,0.001729026436805725
512.0,0.0015794018981978297
576.0,-0.00037301203701645136
640.0,0.0008667533984407783
704.0,-0.0004850768600590527
768.0,0.0002478297974448651
832.0,0.001830343040637672
896.0,0.002643363317474723
960.0,0.0012499723816290498
1024.0,-0.0009879388380795717
1152.0,-0.006402736529707909
1280.0,-0.005121362395584583
1408.0,0.0015607146779075265
1536.0,0.0005919394898228347
1664.0,-0.007116310764104128
1792.0,-0.0029384158551692963
1920.0,0.001672581653110683
2048.0,0.0034705286379903555
2304.0,0.00037422269815579057
2560.0,-0.003093423554673791
2816.0,0.0027544572949409485
3072.0,-0.0035071885213255882
3328.0,0.0023868971038609743
3584.0,-0.0019071331480517983
3840.0,-0.0001327796489931643
4096.0,0.001347232609987259
4608.0,-0.002034261589869857
5120.0,-0.0015074253315106034
5632.0,-0.0036379822995513678
6144.0,0.0038465477991849184
6656.0,0.0020829099230468273
7168.0,0.00328479940071702
7680.0,-0.0017675230046734214
8192.0,0.001034512184560299
end
