version,3.0
numOfCh,1
type,point
parent_name,714af_0dot2-0dot1
ch_type,1_1
kcount,1
numberNandB,1
brightnessNandB,1
carpet pos,0
pc,0
Time (ms),CH1 Auto-Correlation
1.0,0.0713052749633789
2.0,0.06960846483707428
3.0,0.0680481567978859
4.0,0.06663589179515839
5.0,0.06529293954372406
6.0,0.06390944123268127
7.0,0.06262923777103424
8.0,0.06135692819952965
9.0,0.060153719037771225
10.0,0.0589505210518837
11.0,0.05778864026069641
12.0,0.05674121528863907
13.0,0.05577818676829338
14.0,0.05472485348582268
15.0,0.05374903604388237
16.0,0.05284392461180687
18.0,0.05122365429997444
20.0,0.0496191568672657
22.0,0.04814029112458229
24.0,0.04675111174583435
26.0,0.045418284833431244
28.0,0.04407942295074463
30.0,0.042838457971811295
32.0,0.041682325303554535
36.0,0.03942621126770973
40.0,0.03751825541257858
44.0,0.0357150137424469
48.0,0.03393767029047012
52.0,0.0321296863257885
56.0,0.030171571299433708
60.0,0.02829556353390217
64.0,0.026585396379232407
72.0,0.02332073263823986
80.0,0.020026464015245438
88.0,0.016984816640615463
96.0,0.014400788582861423
104.0,0.012430046685039997
112.0,0.011648451909422874
120.0,0.010582974180579185
128.0,0.00905851274728775
144.0,0.005280199460685253
160.0,0.0024703473318368196
176.0,0.001401059445925057
192.0,0.0015941208694130182
208.0,0.0020764153450727463
224.0,0.0027488258201628923
240.0,0.003970354795455933
256.0,0.004915887955576181
288.0,0.004631001967936754
320.0,0.0030069027561694384
352.0,0.0034923539496958256
384.0,0.002439881907775998
416.0,0.0045564486645162106
448.0,0.005294566974043846
480.0,0.008157988078892231
512.0,0.008051333017647266
576.0,0.008390216156840324
640.0,0.00672179413959384
704.0,7.784895569784567e-05
768.0,-0.007404076401144266
832.0,-0.008145173080265522
896.0,-0.0032809923868626356
960.0,-0.0020072346087545156
1024.0,-0.005385709460824728
1152.0,-0.003561020130291581
1280.0,-0.003671030979603529
1408.0,-0.008030596189200878
1536.0,-0.005603603087365627
1664.0,-0.007874968461692333
1792.0,-0.010757754556834698
1920.0,-0.010078788734972477
2048.0,-0.01113166008144617
2304.0,-0.00250000087544322
2560.0,-0.0064805480651557446
2816.0,0.009120317175984383
3072.0,0.0022717483807355165
3328.0,0.00799491722136736
3584.0,0.0018158103339374065
3840.0,0.000735998444724828
4096.0,-0.0003858922573272139
4608.0,-0.002172589534893632
5120.0,-0.004844951443374157
5632.0,0.0010743270395323634
6144.0,0.003896558890119195
6656.0,-0.00044003184302709997
7168.0,0.0019741689320653677
7680.0,-0.001599385985173285
8192.0,-0.001813640701584518
end
