version,3.0
numOfCh,1
type,point
parent_name,714af_0dot2-0dot1
ch_type,1_1
kcount,1
numberNandB,1
brightnessNandB,1
carpet pos,0
pc,0
Time (ms),CH1 Auto-Correlation
1.0,0.07326926290988922
2.0,0.07202260196208954
3.0,0.07085970044136047
4.0,0.06969116628170013
5.0,0.06857608258724213
6.0,0.0674811378121376
7.0,0.06640377640724182
8.0,0.06538476049900055
9.0,0.06438112258911133
10.0,0.06337423622608185
11.0,0.06241581216454506
12.0,0.061446256935596466
13.0,0.060512952506542206
14.0,0.05959739908576012
15.0,0.05867037922143936
16.0,0.057782117277383804
18.0,0.05613533779978752
20.0,0.0545692965388298
22.0,0.05309918150305748
24.0,0.051702968776226044
26.0,0.05041065067052841
28.0,0.04919976741075516
30.0,0.04808858782052994
32.0,0.04701469838619232
36.0,0.04513261839747429
40.0,0.04347287490963936
44.0,0.04199028015136719
48.0,0.040548160672187805
52.0,0.038970913738012314
56.0,0.037639107555150986
60.0,0.036601897329092026
64.0,0.03582773357629776
72.0,0.03450670465826988
80.0,0.03306351229548454
88.0,0.031285423785448074
96.0,0.029442694038152695
104.0,0.02817816287279129
112.0,0.026916855946183205
120.0,0.02565472573041916
128.0,0.02441396191716194
144.0,0.021494805812835693
160.0,0.018638143315911293
176.0,0.01653982140123844
192.0,0.01492447778582573
208.0,0.01318048033863306
224.0,0.011199258267879486
240.0,0.009875471703708172
256.0,0.009422711096704006
288.0,0.008156470023095608
320.0,0.007275858428329229
352.0,0.005958691705018282
384.0,0.005593010224401951
416.0,0.005368009675294161
448.0,0.0047777267172932625
480.0,0.004819975234568119
512.0,0.00551315862685442
576.0,0.008151700720191002
640.0,0.0052271643653512
704.0,0.003158987732604146
768.0,-0.0013802481116726995
832.0,-0.004452337510883808
896.0,-0.0036751350853592157
960.0,0.000577688158955425
1024.0,-0.0006511833635158837
1152.0,-0.007197890896350145
1280.0,-0.0055446927435696125
1408.0,-0.004427398554980755
1536.0,-0.00577691663056612
1664.0,-0.008365379646420479
1792.0,-0.007600661367177963
1920.0,-0.0070783416740596294
2048.0,-0.010806326754391193
2304.0,-0.0101769445464015
2560.0,-0.007006270345300436
2816.0,-0.0013995706103742123
3072.0,0.005526544060558081
3328.0,0.011164771392941475
3584.0,0.009135008789598942
3840.0,0.007709512021392584
4096.0,0.006703861523419619
4608.0,-0.0028853644616901875
5120.0,-0.011339623481035233
5632.0,-0.00821737665683031
6144.0,-0.00351798627525568
6656.0,0.004144736099988222
7168.0,0.009585279040038586
7680.0,0.003898766590282321
8192.0,-0.011154275387525558
end
