version,3.0
numOfCh,1
type,point
parent_name,714af_0dot2-0dot1
ch_type,1_1
kcount,1
numberNandB,1
brightnessNandB,1
carpet pos,0
pc,0
Time (ms),CH1 Auto-Correlation
1.0,0.07799188792705536
2.0,0.07604636996984482
3.0,0.07408065348863602
4.0,0.07217616587877274
5.0,0.07003076374530792
6.0,0.0679287388920784
7.0,0.06577496230602264
8.0,0.06378133594989777
9.0,0.06169239804148674
10.0,0.05986914411187172
11.0,0.058231234550476074
12.0,0.05621837452054024
13.0,0.05428915470838547
14.0,0.05224354937672615
15.0,0.05044906586408615
16.0,0.04875802621245384
18.0,0.046022213995456696
20.0,0.04369678348302841
22.0,0.04246586933732033
24.0,0.04128386452794075
26.0,0.04020340368151665
28.0,0.03924441337585449
30.0,0.038387481123209
32.0,0.03754282742738724
36.0,0.03574100881814957
40.0,0.03388114646077156
44.0,0.032138578593730927
48.0,0.03057578206062317
52.0,0.02935534529387951
56.0,0.028350286185741425
60.0,0.02714785374701023
64.0,0.02618604339659214
72.0,0.024462571367621422
80.0,0.022961333394050598
88.0,0.021502524614334106
96.0,0.020038379356265068
104.0,0.019171470776200294
112.0,0.018138501793146133
120.0,0.01651686616241932
128.0,0.01467635203152895
144.0,0.013042248785495758
160.0,0.010832507163286209
176.0,0.008128694258630276
192.0,0.005253787152469158
208.0,0.004804657772183418
224.0,0.003485910128802061
240.0,0.002034332137554884
256.0,0.0028206282295286655
288.0,0.0036873193457722664
320.0,0.0032712596002966166
352.0,0.004278102423995733
384.0,0.00810875091701746
416.0,0.009905915707349777
448.0,0.008382494561374187
480.0,0.00952425692230463
512.0,0.009417579509317875
576.0,0.007932345382869244
640.0,0.004351745825260878
704.0,-0.0007125585107132792
768.0,-0.002360463375225663
832.0,0.0021046996116638184
896.0,0.0021996640134602785
960.0,0.0008252318948507309
1024.0,0.0018308627186343074
1152.0,0.00027456958196125925
1280.0,0.002579085761681199
1408.0,0.004393175709992647
1536.0,-0.0005246731452643871
1664.0,-6.079978629713878e-05
1792.0,-0.0016923471121117473
1920.0,-0.003061666153371334
2048.0,-0.005059646908193827
2304.0,-0.003235174808651209
2560.0,-0.00198753853328526
2816.0,0.003211202332749963
3072.0,-0.003078116336837411
3328.0,0.0002623586624395102
3584.0,-0.00404226453974843
3840.0,-0.002850281074643135
4096.0,-0.0008973306394182146
4608.0,0.004805239383131266
5120.0,0.0066966768354177475
5632.0,0.00695747509598732
6144.0,0.0017549534095451236
6656.0,-0.002359194913879037
7168.0,-0.00892583653330803
7680.0,-0.00663282023742795
8192.0,-0.0036634549032896757
end
