version,3.0
numOfCh,1
type,point
parent_name,714af_0dot2-0dot1
ch_type,1_1
kcount,1
numberNandB,1
brightnessNandB,1
carpet pos,0
pc,0
Time (ms),CH1 Auto-Correlation
1.0,0.07029741257429123
2.0,0.06916459649801254
3.0,0.068079873919487
4.0,0.06702126562595367
5.0,0.0659998208284378
6.0,0.06499332189559937
7.0,0.06404982507228851
8.0,0.06315983831882477
9.0,0.062314875423908234
10.0,0.061465468257665634
11.0,0.06064464896917343
12.0,0.059815775603055954
13.0,0.059009917080402374
14.0,0.05825969576835632
15.0,0.057528018951416016
16.0,0.05681919306516647
18.0,0.05544232204556465
20.0,0.05413663014769554
22.0,0.05295305326581001
24.0,0.05187959596514702
26.0,0.05083691328763962
28.0,0.04981781542301178
30.0,0.048852697014808655
32.0,0.047915227711200714
36.0,0.046292152255773544
40.0,0.044951293617486954
44.0,0.04382643848657608
48.0,0.04266314208507538
52.0,0.0414254367351532
56.0,0.040223464369773865
60.0,0.03907335549592972
64.0,0.0379614531993866
72.0,0.03575177118182182
80.0,0.03358539938926697
88.0,0.03174377605319023
96.0,0.030347976833581924
104.0,0.02883164770901203
112.0,0.027637064456939697
120.0,0.026649009436368942
128.0,0.025913476943969727
144.0,0.023843582719564438
160.0,0.021954724565148354
176.0,0.020683804526925087
192.0,0.01935913972556591
208.0,0.018009211868047714
224.0,0.01565450057387352
240.0,0.014161546714603901
256.0,0.013116846792399883
288.0,0.011707405559718609
320.0,0.011804859153926373
352.0,0.012248513288795948
384.0,0.012278623878955841
416.0,0.012202278710901737
448.0,0.012859432026743889
480.0,0.01182363461703062
512.0,0.00924348272383213
576.0,0.006582584232091904
640.0,0.007062103133648634
704.0,0.007667750120162964
768.0,0.006184896919876337
832.0,0.0024994234554469585
896.0,-0.001669506193138659
960.0,-0.0007377126021310687
1024.0,-0.0010915555758401752
1152.0,-0.0002104272716678679
1280.0,-0.004413975402712822
1408.0,-0.003951394464820623
1536.0,-0.0017204451141878963
1664.0,-0.004229467362165451
1792.0,-0.00818290188908577
1920.0,-0.007204377092421055
2048.0,-0.010038396343588829
2304.0,-0.010824779979884624
2560.0,-0.009956774301826954
2816.0,-0.006938660517334938
3072.0,0.005141386762261391
3328.0,-0.000891729723662138
3584.0,-0.0011280017206445336
3840.0,-0.007433441933244467
4096.0,-0.00557402428239584
4608.0,-0.009655958041548729
5120.0,-0.003145319176837802
5632.0,0.00465388922020793
6144.0,0.018225105479359627
6656.0,0.01681629754602909
7168.0,0.008397124707698822
7680.0,-0.003611356718465686
8192.0,-0.006142962723970413
end
