version,3.0
numOfCh,1
type,point
parent_name,34a6d_1dot0-1dot0
ch_type,1_1
kcount,1
numberNandB,1
brightnessNandB,1
carpet pos,0
pc,0
Time (ms),CH1 Auto-Correlation
1.0,0.025661133229732513
2.0,0.023462850600481033
3.0,0.02158302813768387
4.0,0.0199265219271183
5.0,0.018462395295500755
6.0,0.017172090709209442
7.0,0.016056062653660774
8.0,0.015106013044714928
9.0,0.014207622967660427
10.0,0.013436132110655308
11.0,0.012731160037219524
12.0,0.012155127711594105
13.0,0.011651363223791122
14.0,0.011163203977048397
15.0,0.010726136155426502
16.0,0.010269693098962307
18.0,0.009520853869616985
20.0,0.008885785937309265
22.0,0.00822444073855877
24.0,0.0076040904968976974
26.0,0.007027428597211838
28.0,0.006656779907643795
30.0,0.00627200398594141
32.0,0.0058786338195204735
36.0,0.0053409687243402
40.0,0.004906094167381525
44.0,0.004444241989403963
48.0,0.003986505791544914
52.0,0.003489659633487463
56.0,0.003372883889824152
60.0,0.0033018540125340223
64.0,0.003083148505538702
72.0,0.0024432223290205
80.0,0.0022254048381000757
88.0,0.0024040048010647297
96.0,0.0022037290036678314
104.0,0.002268929500132799
112.0,0.0023994743824005127
120.0,0.0022510665003210306
128.0,0.0020625563338398933
144.0,0.0014530322514474392
160.0,0.0012073558755218983
176.0,0.000907872396055609
192.0,0.001070587895810604
208.0,0.0012007635086774826
224.0,0.0010405596112832427
240.0,0.0009661884978413582
256.0,0.000652050890494138
288.0,0.0018833050271496177
320.0,0.0026519952807575464
352.0,0.0014644194161519408
384.0,0.0012941897148266435
416.0,0.0013956347247585654
448.0,0.00015640861238352954
480.0,-0.0001431009586667642
512.0,0.000297875318210572
576.0,-0.00038385915104299784
640.0,-0.0006573644350282848
704.0,-0.00029766722582280636
768.0,-0.0002831032034009695
832.0,-0.00035947540891356766
896.0,-0.001002400298602879
960.0,-0.00132388633210212
1024.0,-0.0005436768406070769
1152.0,-4.7040510253282264e-05
1280.0,-0.0008953544311225414
1408.0,0.00029368544346652925
1536.0,-0.00043485083733685315
1664.0,5.3944965827668057e-08
1792.0,0.001365766511298716
1920.0,0.00012115401477785781
2048.0,-0.000774890766479075
2304.0,-0.0007944079698063433
2560.0,-0.0004799425951205194
2816.0,0.0004536763299256563
3072.0,-7.774042751407251e-05
3328.0,0.00034758346737362444
3584.0,-0.00013183002010919154
3840.0,0.00017302691412623972
4096.0,-0.0006223285454325378
4608.0,-0.00044740119483321905
5120.0,-0.0008131079375743866
5632.0,-0.0006781781557947397
6144.0,0.0003073819389101118
6656.0,0.0004872974241152406
7168.0,-0.0001765318011166528
7680.0,-0.0007669220212846994
8192.0,0.0005162828019820154
end
