version,3.0
numOfCh,1
type,point
parent_name,34a6d_1dot0-1dot0
ch_type,1_1
kcount,1
numberNandB,1
brightnessNandB,1
carpet pos,0
pc,0
Time (ms),CH1 Auto-Correlation
1.0,0.028332943096756935
2.0,0.02617676928639412
3.0,0.02429860085248947
4.0,0.022657716646790504
5.0,0.021145999431610107
6.0,0.01982649601995945
7.0,0.01865192875266075
8.0,0.017573783174157143
9.0,0.016593066975474358
10.0,0.015666810795664787
11.0,0.014842831529676914
12.0,0.014017703011631966
13.0,0.01331312581896782
14.0,0.012660585343837738
15.0,0.012029835022985935
16.0,0.011425349861383438
18.0,0.010399594902992249
20.0,0.00952335074543953
22.0,0.008689791895449162
24.0,0.007972382009029388
26.0,0.00730521883815527
28.0,0.006851227022707462
30.0,0.00661575049161911
32.0,0.00645963242277503
36.0,0.0060472446493804455
40.0,0.005369350779801607
44.0,0.004891631193459034
48.0,0.004586735274642706
52.0,0.0043339054100215435
56.0,0.0041002570651471615
60.0,0.0037279194220900536
64.0,0.0035660425201058388
72.0,0.00356175540946424
80.0,0.0032176750246435404
88.0,0.0031184612307697535
96.0,0.0027194011490792036
104.0,0.00259608356282115
112.0,0.0022749851923435926
120.0,0.0017559112748131156
128.0,0.001520741730928421
144.0,0.001009527943097055
160.0,0.0016269541811197996
176.0,0.000995362177491188
192.0,-3.066720819333568e-05
208.0,-0.00016408484952989966
224.0,-3.591749191400595e-06
240.0,-0.00021694185852538794
256.0,0.0003425370086915791
288.0,8.401927516388241e-06
320.0,0.0008304832736030221
352.0,0.00108558579813689
384.0,0.00029024851392023265
416.0,0.0006537374574691057
448.0,-8.118625373754185e-06
480.0,0.0008785146637819707
512.0,0.0006292034522630274
576.0,-0.001556015107780695
640.0,-0.0019408013904467225
704.0,-0.0021744833793491125
768.0,-0.0026011294685304165
832.0,-0.0024022317957133055
896.0,-0.0010844897478818893
960.0,-0.0004897125763818622
1024.0,-0.0011592860100790858
1152.0,-0.0009131271508522332
1280.0,-0.0001428896066499874
1408.0,0.000993243302218616
1536.0,0.00017055201169569045
1664.0,0.0013516641920432448
1792.0,0.0005843133549205959
1920.0,-0.0002924077271018177
2048.0,-0.0008905393187887967
2304.0,-0.0005308091640472412
2560.0,6.138930621091276e-05
2816.0,-0.0002802077797241509
3072.0,-2.4632792701595463e-05
3328.0,-0.0013462613569572568
3584.0,1.609938044566661e-05
3840.0,-0.0008702831692062318
4096.0,0.0008606900810264051
4608.0,0.00038521180977113545
5120.0,0.00026014502509497106
5632.0,0.00012905152107123286
6144.0,-0.00013526261318475008
6656.0,-7.669738261029124e-05
7168.0,-0.00011254422133788466
7680.0,0.0001854451693361625
8192.0,-0.00013495763414539397
end
