version,3.0
numOfCh,1
type,point
parent_name,34a6d_1dot0-1dot0
ch_type,1_1
kcount,1
numberNandB,1
brightnessNandB,1
carpet pos,0
pc,0
Time (ms),CH1 Auto-Correlation
1.0,0.029694069176912308
2.0,0.027448978275060654
3.0,0.0255744606256485
4.0,0.0239340141415596
5.0,0.02243736945092678
6.0,0.02115180343389511
7.0,0.020004654303193092
8.0,0.018990453332662582
9.0,0.018064219504594803
10.0,0.017270714044570923
11.0,0.016554316505789757
12.0,0.016007620841264725
13.0,0.015504667535424232
14.0,0.01507422886788845
15.0,0.0145724443718791
16.0,0.01406384538859129
18.0,0.013253404758870602
20.0,0.01250053197145462
22.0,0.01179412379860878
24.0,0.011004221625626087
26.0,0.01035610307008028
28.0,0.009795911610126495
30.0,0.009526902809739113
32.0,0.00929862167686224
36.0,0.008577252738177776
40.0,0.008011769503355026
44.0,0.007572824601083994
48.0,0.007293418515473604
52.0,0.007122637238353491
56.0,0.006841146387159824
60.0,0.006611967924982309
64.0,0.006578627973794937
72.0,0.006350468844175339
80.0,0.005876042880117893
88.0,0.005335147492587566
96.0,0.004695097450166941
104.0,0.004514541942626238
112.0,0.004143475089222193
120.0,0.00422170665115118
128.0,0.0042056008242070675
144.0,0.00406556436792016
160.0,0.0038631490897387266
176.0,0.0031080562621355057
192.0,0.002523133996874094
208.0,0.0023611546494066715
224.0,0.0023942962288856506
240.0,0.0030164301861077547
256.0,0.002402903977781534
288.0,0.0014218889409676194
320.0,0.0010255590314045548
352.0,0.00013229408068582416
384.0,-0.0010323302121832967
416.0,-0.000962129095569253
448.0,-0.002123646903783083
480.0,-0.0031597104389220476
512.0,-0.003940151073038578
576.0,-0.002188930055126548
640.0,-0.0006933886907063425
704.0,-0.0002999842108692974
768.0,-0.0008260934264399111
832.0,0.00039683247450739145
896.0,0.00029801123309880495
960.0,0.0008361793006770313
1024.0,0.0011426766868680716
1152.0,-0.00011997919500572607
1280.0,-0.00016977156337816268
1408.0,-0.000453029089840129
1536.0,-0.00044010908459313214
1664.0,0.0003482842294033617
1792.0,0.001627995166927576
1920.0,0.002051425166428089
2048.0,0.0016153554897755384
2304.0,-0.0007450508419424295
2560.0,-0.0005314272129908204
2816.0,0.001901791081763804
3072.0,0.0013666173908859491
3328.0,-0.00047342944890260696
3584.0,3.798879333771765e-05
3840.0,0.0004033230943605304
4096.0,-0.0003710694727487862
4608.0,-0.0003644214302767068
5120.0,-0.0012278299545869231
5632.0,0.0010182850528508425
6144.0,-0.0007278634584508836
6656.0,-0.001109675271436572
7168.0,-0.0011012426111847162
7680.0,0.000321675295708701
8192.0,-0.003675238462164998
end
