version,3.0
numOfCh,1
type,point
parent_name,34a6d_1dot0-1dot0
ch_type,1_1
kcount,1
numberNandB,1
brightnessNandB,1
carpet pos,0
pc,0
Time (ms),CH1 Auto-Correlation
1.0,0.02823604643344879
2.0,0.02612381987273693
3.0,0.024342473596334457
4.0,0.022879701107740402
5.0,0.021518105641007423
6.0,0.02034541592001915
7.0,0.01928115449845791
8.0,0.01831556111574173
9.0,0.017413685098290443
10.0,0.016570091247558594
11.0,0.015854880213737488
12.0,0.015126953832805157
13.0,0.014426573179662228
14.0,0.013806269504129887
15.0,0.013170583173632622
16.0,0.012586407363414764
18.0,0.011470172554254532
20.0,0.01046386081725359
22.0,0.00958011019974947
24.0,0.00876602716743946
26.0,0.008059459738433361
28.0,0.007408991456031799
30.0,0.0069383359514176846
32.0,0.006569435819983482
36.0,0.005980206187814474
40.0,0.005381521303206682
44.0,0.004864589311182499
48.0,0.004366635344922543
52.0,0.0038174751680344343
56.0,0.003367500612512231
60.0,0.0030580712482333183
64.0,0.002626825589686632
72.0,0.0019140265649184585
80.0,0.0014198889257386327
88.0,0.0012925817864015698
96.0,0.001151562319137156
104.0,0.0014356811298057437
112.0,0.0016635177889838815
120.0,0.0015405891463160515
128.0,0.0017466240096837282
144.0,0.0016014575958251953
160.0,0.0008784046513028443
176.0,0.0009556615259498358
192.0,0.00031053696875460446
208.0,-0.00041316033457405865
224.0,-0.0008512377389706671
240.0,-0.0006565276416949928
256.0,-0.00014078716048970819
288.0,-0.00021166856458876282
320.0,-0.0010372099932283163
352.0,-0.0014218285214155912
384.0,-0.0017863002140074968
416.0,-0.0011400950606912374
448.0,-0.0005036699003539979
480.0,-0.0012624016962945461
512.0,0.00039908141479827464
576.0,0.0010054388549178839
640.0,0.0004392412374727428
704.0,7.134689803933725e-05
768.0,0.0004628639726433903
832.0,-0.001026563229970634
896.0,-0.0005359795177355409
960.0,7.459173502866179e-06
1024.0,-0.0011156888213008642
1152.0,-0.000837826868519187
1280.0,-9.658109775045887e-05
1408.0,0.0007586898864246905
1536.0,0.0014160516439005733
1664.0,-0.00012202139623695984
1792.0,-0.0011738863540813327
1920.0,-0.0013253206852823496
2048.0,0.0002698632306419313
2304.0,-0.0003511282557155937
2560.0,-0.0002775299653876573
2816.0,0.00028510403353720903
3072.0,0.00043709282181225717
3328.0,-0.0004918918712064624
3584.0,0.00031068522366695106
3840.0,-0.0009725178824737668
4096.0,-0.0007212763885036111
4608.0,-0.00024202800705097616
5120.0,-0.0003201838699169457
5632.0,0.0002533522783778608
6144.0,-0.0007728684577159584
6656.0,0.0009007969056256115
7168.0,-0.00032158277463167906
7680.0,0.0012000852730125189
8192.0,0.0005264250212348998
end
