version,3.0
numOfCh,1
type,point
parent_name,34a6d_1dot0-1dot0
ch_type,1_1
kcount,1
numberNandB,1
brightnessNandB,1
carpet pos,0
pc,0
Time (ms),CH1 Auto-Correlation
1.0,0.025682250037789345
2.0,0.023566560819745064
3.0,0.021791480481624603
4.0,0.020276769995689392
5.0,0.018863320350646973
6.0,0.017637258395552635
7.0,0.016600456088781357
8.0,0.01570206694304943
9.0,0.014881854876875877
10.0,0.014104193076491356
11.0,0.013392509892582893
12.0,0.012768072076141834
13.0,0.01220084261149168
14.0,0.011613424867391586
15.0,0.011119474656879902
16.0,0.010677499696612358
18.0,0.009858337230980396
20.0,0.009122542105615139
22.0,0.00837626215070486
24.0,0.007767464965581894
26.0,0.007298747543245554
28.0,0.006845574826002121
30.0,0.0063638389110565186
32.0,0.005961572285741568
36.0,0.005270787514746189
40.0,0.0046316576190292835
44.0,0.004001679364591837
48.0,0.003189451526850462
52.0,0.0027792092878371477
56.0,0.0025220680981874466
60.0,0.0023865418042987585
64.0,0.0021337964572012424
72.0,0.0011926223523914814
80.0,0.0012158920289948583
88.0,0.0010393242118880153
96.0,0.0013149386504665017
104.0,0.0014760157791897655
112.0,0.001163001055829227
120.0,0.0010302331065759063
128.0,0.0007940746145322919
144.0,0.00014383310917764902
160.0,1.8695682229008526e-05
176.0,-0.00012134748249081895
192.0,-0.0001925756223499775
208.0,-0.0003425166360102594
224.0,-0.0001291962107643485
240.0,-2.6893560516327852e-06
256.0,-0.0002617849677335471
288.0,-0.0005234955460764468
320.0,-0.0004378253943286836
352.0,-0.0008549864287488163
384.0,-0.0007388176745735109
416.0,0.0002576506230980158
448.0,0.0005698922905139625
480.0,-0.0011652268003672361
512.0,-0.0010435737203806639
576.0,0.00027439821860753
640.0,0.0006067780195735395
704.0,0.0012605020310729742
768.0,0.0006613463046960533
832.0,0.0018631268758326769
896.0,0.001351311570033431
960.0,0.0014705556677654386
1024.0,0.0007028066902421415
1152.0,-0.00048174901166930795
1280.0,-0.00043132196879014373
1408.0,-0.0004212887433823198
1536.0,0.0010613810736685991
1664.0,0.0004647471068892628
1792.0,-0.00044373422861099243
1920.0,0.0008162792073562741
2048.0,-7.260334677994251e-05
2304.0,-0.0003996884624939412
2560.0,0.000651918351650238
2816.0,0.0005593893583863974
3072.0,3.277360156062059e-05
3328.0,-0.0009343571146018803
3584.0,0.0005095998058095574
3840.0,-0.0006204016972333193
4096.0,-1.1154877029184718e-05
4608.0,-0.00014923368871677667
5120.0,0.0003995915758423507
5632.0,0.0006019701831974089
6144.0,1.4520321201416664e-05
6656.0,0.0004698882985394448
7168.0,-0.0006715329946018755
7680.0,3.634140739450231e-05
8192.0,6.852128717582673e-05
end
