version,3.0
numOfCh,1
type,point
parent_name,34a6d_1dot0-1dot0
ch_type,1_1
kcount,1
numberNandB,1
brightnessNandB,1
carpet pos,0
pc,0
Time (ms),CH1 Auto-Correlation
1.0,0.02421363815665245
2.0,0.021955324336886406
3.0,0.020049840211868286
4.0,0.018389618024230003
5.0,0.01680936850607395
6.0,0.015502238646149635
7.0,0.014324496500194073
8.0,0.013300145976245403
9.0,0.01241636648774147
10.0,0.011548384092748165
11.0,0.010763532482087612
12.0,0.009991280734539032
13.0,0.009301274083554745
14.0,0.008720199577510357
15.0,0.008187047205865383
16.0,0.0077775390818715096
18.0,0.007050079293549061
20.0,0.006481498945504427
22.0,0.005931123625487089
24.0,0.005501921288669109
26.0,0.005175987724214792
28.0,0.004897587932646275
30.0,0.004687025677412748
32.0,0.004446054808795452
36.0,0.004157355520874262
40.0,0.003583017736673355
44.0,0.0029611936770379543
48.0,0.002633707830682397
52.0,0.002166922204196453
56.0,0.0017490501049906015
60.0,0.0013266491005197167
64.0,0.001251291367225349
72.0,0.0015611244598403573
80.0,0.0018468779744580388
88.0,0.0016114189056679606
96.0,0.001087559969164431
104.0,0.00048145261825993657
112.0,0.00013432432024274021
120.0,-0.00027851469349116087
128.0,-0.0002476400986779481
144.0,-0.0002884433197323233
160.0,-0.00011704152711899951
176.0,-0.0003842092410195619
192.0,-0.0005384303512983024
208.0,-0.0003949844394810498
224.0,-0.0012552601983770728
240.0,-0.0007455243612639606
256.0,-0.0012686433037742972
288.0,-0.000876641075592488
320.0,-0.00021135951101314276
352.0,0.0006306790164671838
384.0,-0.00032586275483481586
416.0,-0.0007805511122569442
448.0,-0.0005292796995490789
480.0,0.0003318983654025942
512.0,0.00037208167486824095
576.0,-0.0002778406778816134
640.0,-0.0010476072784513235
704.0,-0.0008310586563311517
768.0,7.475657184841111e-05
832.0,0.0005589480861090124
896.0,0.0007122939568944275
960.0,0.000992214772850275
1024.0,0.00017732512787915766
1152.0,0.00021588560775853693
1280.0,0.0008747407700866461
1408.0,-0.0008193011162802577
1536.0,-0.0013844964560121298
1664.0,7.658699178136885e-05
1792.0,-0.0004386230430100113
1920.0,-0.0003597272443585098
2048.0,0.0005070884362794459
2304.0,-0.000390091649023816
2560.0,-0.00014091409684624523
2816.0,0.0001822592894313857
3072.0,0.000277845625532791
3328.0,0.00046036578714847565
3584.0,-0.00021856706007383764
3840.0,0.00021615072910208255
4096.0,0.00016862624033819884
4608.0,-4.313814497436397e-05
5120.0,-3.99536220356822e-05
5632.0,-0.0006536165601573884
6144.0,0.0001831537956604734
6656.0,0.00032628385815769434
7168.0,0.0004642322310246527
7680.0,-0.0005157138803042471
8192.0,0.0003250103909522295
end
