version,3.0
numOfCh,1
type,point
parent_name,34a6d_1dot0-1dot0
ch_type,1_1
kcount,1
numberNandB,1
brightnessNandB,1
carpet pos,0
pc,0
Time (ms),CH1 Auto-Correlation
1.0,0.02780628390610218
2.0,0.02558310143649578
3.0,0.023726318031549454
4.0,0.02206357568502426
5.0,0.020595306530594826
6.0,0.019344961270689964
7.0,0.01818668283522129
8.0,0.017192378640174866
9.0,0.01624765805900097
10.0,0.015402053482830524
11.0,0.014640595763921738
12.0,0.013952028006315231
13.0,0.013256801292300224
14.0,0.012659735977649689
15.0,0.01208586897701025
16.0,0.011659960262477398
18.0,0.010873476974666119
20.0,0.010052590630948544
22.0,0.009167343378067017
24.0,0.008442873135209084
26.0,0.007917948998510838
28.0,0.007512406446039677
30.0,0.0071534509770572186
32.0,0.006770228501409292
36.0,0.005856368690729141
40.0,0.004982140846550465
44.0,0.004247928038239479
48.0,0.003560575656592846
52.0,0.0028503562789410353
56.0,0.0021952770184725523
60.0,0.0016575183253735304
64.0,0.0013514263555407524
72.0,0.0010284140007570386
80.0,0.001165779191069305
88.0,0.0005431363242678344
96.0,-0.000508764002006501
104.0,-0.001335827517323196
112.0,-0.0011192390229552984
120.0,-0.0006299481610767543
128.0,-0.00015210585843306035
144.0,9.779955871636048e-05
160.0,0.00042547404882498085
176.0,0.0005039498792029917
192.0,0.0008968819165602326
208.0,0.0011220660526305437
224.0,0.0014725634828209877
240.0,0.0018273600144311786
256.0,0.0011456093052402139
288.0,0.00045196208520792425
320.0,-0.0006983393104746938
352.0,-0.00019718139083124697
384.0,0.0007055372116155922
416.0,0.0005491503980010748
448.0,-0.00030068575870245695
480.0,-0.0016768196364864707
512.0,-0.0017913751071318984
576.0,-0.00041350245010107756
640.0,-0.000690564454998821
704.0,-0.0010109221329912543
768.0,-0.0008691623224876821
832.0,-0.00014910988102201372
896.0,-0.0018493165262043476
960.0,-0.0016840370371937752
1024.0,-0.001061321934685111
1152.0,-0.0005160701111890376
1280.0,-0.000531640078406781
1408.0,0.0002389822038821876
1536.0,0.0008025072165764868
1664.0,0.00018839986296370625
1792.0,-0.0005242676706984639
1920.0,-0.00021025011665187776
2048.0,0.000718540744856
2304.0,0.0006982741761021316
2560.0,7.667295722058043e-05
2816.0,2.7362418677512323e-06
3072.0,-7.682813156861812e-05
3328.0,-0.0008173157111741602
3584.0,-0.0004533634055405855
3840.0,0.0009220644715242088
4096.0,0.00018995207210537046
4608.0,4.723385791294277e-05
5120.0,-0.00012197894102428108
5632.0,-0.00014658192230854183
6144.0,-0.0003403703449293971
6656.0,0.00029434135649353266
7168.0,0.0005373992025852203
7680.0,-0.00015524360060226172
8192.0,0.00044576197979040444
end
