version,3.0
numOfCh,1
type,point
parent_name,34a6d_1dot0-1dot0
ch_type,1_1
kcount,1
numberNandB,1
brightnessNandB,1
carpet pos,0
pc,0
Time (ms),CH1 Auto-Correlation
1.0,0.02736896090209484
2.0,0.025174396112561226
3.0,0.023253997787833214
4.0,0.02159804292023182
5.0,0.02016780711710453
6.0,0.018957016989588737
7.0,0.01779981330037117
8.0,0.016759956255555153
9.0,0.015862222760915756
10.0,0.015026052482426167
11.0,0.014355887658894062
12.0,0.013764480128884315
13.0,0.013183246366679668
14.0,0.012642989866435528
15.0,0.012116830796003342
16.0,0.01161622442305088
18.0,0.010867148637771606
20.0,0.010202864184975624
22.0,0.00968562625348568
24.0,0.009287041611969471
26.0,0.008794146589934826
28.0,0.008250567130744457
30.0,0.007843954488635063
32.0,0.007535652723163366
36.0,0.006739864591509104
40.0,0.006081572733819485
44.0,0.005494806915521622
48.0,0.004907641094177961
52.0,0.004515407606959343
56.0,0.004205364268273115
60.0,0.00399506650865078
64.0,0.0037210057489573956
72.0,0.0028773315716534853
80.0,0.002168666571378708
88.0,0.0019295236561447382
96.0,0.0019614414777606726
104.0,0.001991731347516179
112.0,0.0018998009618371725
120.0,0.0018092363607138395
128.0,0.001851166132837534
144.0,0.002072404371574521
160.0,0.0012073192046955228
176.0,0.00030362990219146013
192.0,0.0003316862275823951
208.0,6.893726094858721e-05
224.0,0.0005093488725833595
240.0,0.0013751026708632708
256.0,0.0009466357296332717
288.0,0.0007577628712169826
320.0,0.0009150069090537727
352.0,0.001968993339687586
384.0,0.002993596950545907
416.0,0.0016739750280976295
448.0,0.001545211998745799
480.0,0.0019036333542317152
512.0,0.0012575947912409902
576.0,2.2962409275351092e-05
640.0,0.0008231720421463251
704.0,0.0012278358917683363
768.0,0.0005338942282833159
832.0,0.0018443017033860087
896.0,0.0018161017214879394
960.0,0.001978470478206873
1024.0,0.0012259157374501228
1152.0,-0.00018651889695320278
1280.0,0.0005480613908730447
1408.0,6.319412204902619e-05
1536.0,4.049820563523099e-05
1664.0,-0.00041428394615650177
1792.0,-0.0010044039227068424
1920.0,-0.0006627736147493124
2048.0,-0.0015956677962094545
2304.0,-0.0006175750168040395
2560.0,-0.0002050623734248802
2816.0,-0.0008663233602419496
3072.0,-0.0011411416344344616
3328.0,0.00015526055358350277
3584.0,0.0001861252821981907
3840.0,0.00048088488983921707
4096.0,0.0006534592248499393
4608.0,0.0010650879703462124
5120.0,0.0005703713977709413
5632.0,-0.0002630974631756544
6144.0,-0.0007992907776497304
6656.0,-0.0016537256306037307
7168.0,-0.0018163429340347648
7680.0,-0.001826759660616517
8192.0,-0.00140875403303653
end
