version,3.0
numOfCh,1
type,point
parent_name,34a6d_1dot0-1dot0
ch_type,1_1
kcount,1
numberNandB,1
brightnessNandB,1
carpet pos,0
pc,0
Time (ms),CH1 Auto-Correlation
1.0,0.029572295024991035
2.0,0.027431495487689972
3.0,0.025647448375821114
4.0,0.024086516350507736
5.0,0.02267971821129322
6.0,0.02141922526061535
7.0,0.02026774361729622
8.0,0.0191959198564291
9.0,0.018231293186545372
10.0,0.017373396083712578
11.0,0.0166091937571764
12.0,0.015948468819260597
13.0,0.015373984351754189
14.0,0.014841229654848576
15.0,0.014394599944353104
16.0,0.013974224217236042
18.0,0.013089699670672417
20.0,0.012243341654539108
22.0,0.01160660944879055
24.0,0.011039240285754204
26.0,0.01048691850155592
28.0,0.009940856136381626
30.0,0.00939122587442398
32.0,0.008954145945608616
36.0,0.008482897654175758
40.0,0.007812649942934513
44.0,0.007239760830998421
48.0,0.006608191411942244
52.0,0.006086576264351606
56.0,0.00558630982413888
60.0,0.005294485948979855
64.0,0.005038842558860779
72.0,0.004537549801170826
80.0,0.0037705502472817898
88.0,0.0035445960238575935
96.0,0.0033876835368573666
104.0,0.0033595776185393333
112.0,0.002943389117717743
120.0,0.0025190168526023626
128.0,0.002002634108066559
144.0,0.0020836624316871166
160.0,0.0019537354819476604
176.0,0.001170711126178503
192.0,0.0006485807243734598
208.0,0.00035600856062956154
224.0,9.8404023447074e-05
240.0,0.00017678590666037053
256.0,0.0001752783136907965
288.0,0.0002846689894795418
320.0,0.0007886928506195545
352.0,0.0005899854586459696
384.0,-0.00023237569257616997
416.0,-0.00033342468668706715
448.0,-0.0003602697397582233
480.0,0.0003910616796929389
512.0,-0.00039050859049893916
576.0,-0.0009477221174165606
640.0,0.00013215726357884705
704.0,-0.00032205917523242533
768.0,-0.0004943977110087872
832.0,-0.00015935921692289412
896.0,-0.0004719100543297827
960.0,0.0009664453100413084
1024.0,0.0014285424258559942
1152.0,0.0012011070502921939
1280.0,0.0007059011841192842
1408.0,-0.0007568063447251916
1536.0,-0.0020522058475762606
1664.0,-0.0021534522529691458
1792.0,-0.0003796126111410558
1920.0,0.00036806397838518023
2048.0,-0.00033156436984427273
2304.0,0.0005596161936409771
2560.0,-0.0006198122864589095
2816.0,-0.0010386778740212321
3072.0,-0.0004624084394890815
3328.0,-0.0004574001650325954
3584.0,-0.00041302648605778813
3840.0,-0.00013374547415878624
4096.0,-0.0003681464586406946
4608.0,-1.6137937564053573e-05
5120.0,-0.001101506408303976
5632.0,0.0005901844124309719
6144.0,-1.1471419384179171e-05
6656.0,0.000424322352046147
7168.0,0.0005433066980913281
7680.0,-0.001096511259675026
8192.0,-0.0010553052416071296
end
