version,3.0
numOfCh,1
type,point
parent_name,34a6d_1dot0-1dot0
ch_type,1_1
kcount,1
numberNandB,1
brightnessNandB,1
carpet pos,0
pc,0
Time (ms),CH1 Auto-Correlation
1.0,0.02615245059132576
2.0,0.023848017677664757
3.0,0.02198050357401371
4.0,0.020399251952767372
5.0,0.018994765356183052
6.0,0.017786560580134392
7.0,0.016747161746025085
8.0,0.01578895002603531
9.0,0.014885105192661285
10.0,0.014069851487874985
11.0,0.013300307095050812
12.0,0.012632939964532852
13.0,0.012012829072773457
14.0,0.011425724253058434
15.0,0.010973443277180195
16.0,0.010598103515803814
18.0,0.009919163770973682
20.0,0.009210883639752865
22.0,0.008613284677267075
24.0,0.008026763796806335
26.0,0.007466444745659828
28.0,0.006980764213949442
30.0,0.006454663351178169
32.0,0.005994768347591162
36.0,0.005244048312306404
40.0,0.004275527782738209
44.0,0.003348624100908637
48.0,0.0026092780753970146
52.0,0.0019333817763254046
56.0,0.0013954004971310496
60.0,0.0009940365562215447
64.0,0.0006544352509081364
72.0,-8.52971279527992e-05
80.0,-0.0006504427292384207
88.0,-0.0009839183185249567
96.0,-0.0009669914143159986
104.0,-0.0005155979888513684
112.0,-2.120065619237721e-05
120.0,0.0005336159956641495
128.0,0.0005689989193342626
144.0,0.0002572905214037746
160.0,0.00011062951671192423
176.0,0.0008226736099459231
192.0,0.0011894556228071451
208.0,0.0009724152623675764
224.0,0.0010363347828388214
240.0,0.0017044994747266173
256.0,0.0015168803511187434
288.0,0.0010035375598818064
320.0,0.0001693163503659889
352.0,0.00037353942752815783
384.0,0.00016294431407004595
416.0,-0.00024001447309274226
448.0,0.00027682314976118505
480.0,0.001927493023686111
512.0,0.0015322986291721463
576.0,0.0002846477145794779
640.0,7.455240847775713e-05
704.0,0.00041729595977813005
768.0,0.0007030946435406804
832.0,0.0007501211948692799
896.0,-1.911706021928694e-05
960.0,-0.0002915307995863259
1024.0,-0.0005751983844675124
1152.0,0.00014085599104873836
1280.0,0.0005194459808990359
1408.0,-0.00019484374206513166
1536.0,-7.817435835022479e-05
1664.0,-0.0004154049092903733
1792.0,-0.0003729313029907644
1920.0,0.00018913863459601998
2048.0,0.0006861618021503091
2304.0,-0.00045430383761413395
2560.0,-0.0010900577763095498
2816.0,-0.000943709455896169
3072.0,-0.0004446282400749624
3328.0,-0.0002717709867283702
3584.0,-2.153815330530051e-06
3840.0,2.422363468213007e-05
4096.0,-0.00030857499223202467
4608.0,-0.0005011340253986418
5120.0,-9.16218850761652e-05
5632.0,0.0003551875415723771
6144.0,-0.00023626249458175153
6656.0,-0.00010583183029666543
7168.0,0.0003379034751560539
7680.0,0.00047390584950335324
8192.0,0.00036490714410319924
end
