version,3.0
numOfCh,1
type,point
parent_name,34a6d_1dot0-1dot0
ch_type,1_1
kcount,1
numberNandB,1
brightnessNandB,1
carpet pos,0
pc,0
Time (ms),CH1 Auto-Correlation
1.0,0.02898765727877617
2.0,0.026788506656885147
3.0,0.024933429434895515
4.0,0.023368854075670242
5.0,0.02201291173696518
6.0,0.02080393210053444
7.0,0.01969350501894951
8.0,0.018773460760712624
9.0,0.017871025949716568
10.0,0.01701943948864937
11.0,0.01628979668021202
12.0,0.015642905607819557
13.0,0.01509936898946762
14.0,0.014559007249772549
15.0,0.01406229566782713
16.0,0.013719972223043442
18.0,0.013088356703519821
20.0,0.012661566026508808
22.0,0.012239237315952778
24.0,0.011710244230926037
26.0,0.011151998303830624
28.0,0.010545778088271618
30.0,0.009917955845594406
32.0,0.009379910305142403
36.0,0.008111407049000263
40.0,0.007073060609400272
44.0,0.006305950693786144
48.0,0.0059815761633217335
52.0,0.005469527095556259
56.0,0.004831228405237198
60.0,0.004518745932728052
64.0,0.004311736207455397
72.0,0.003775415476411581
80.0,0.0032322541810572147
88.0,0.00266760285012424
96.0,0.0027124511543661356
104.0,0.003277313895523548
112.0,0.002954056253656745
120.0,0.002888574032112956
128.0,0.002888708608224988
144.0,0.00198418484069407
160.0,0.0011706894729286432
176.0,0.00022191718744579703
192.0,0.0003478001744952053
208.0,0.001382750808261335
224.0,0.0022934437729418278
240.0,0.0029147781897336245
256.0,0.0030754718463867903
288.0,0.0018572452245280147
320.0,0.0008574991952627897
352.0,0.0007948455750010908
384.0,0.0005851633031852543
416.0,0.0005837750504724681
448.0,0.00027171982219442725
480.0,-0.0004699144046753645
512.0,0.0003624982200562954
576.0,-0.00037758550024591386
640.0,-0.00015453655214514583
704.0,-0.0005641741445288062
768.0,0.00041146643343381584
832.0,0.0010980959050357342
896.0,0.0009813765063881874
960.0,-0.0003728030133061111
1024.0,-0.0009476516861468554
1152.0,-0.0011990027269348502
1280.0,-0.0004193413187749684
1408.0,8.588081982452422e-05
1536.0,-5.4523661674465984e-05
1664.0,0.0006052277749404311
1792.0,0.0007246315362863243
1920.0,0.0005838590441271663
2048.0,2.730192500166595e-05
2304.0,9.407381730852649e-05
2560.0,-0.0003926465578842908
2816.0,-0.0013890095287933946
3072.0,-0.0015520128654316068
3328.0,9.274313197238371e-05
3584.0,0.0016065898817032576
3840.0,-0.0008069471223279834
4096.0,0.000296203390462324
4608.0,-2.249765930173453e-05
5120.0,-0.0005753161967732012
5632.0,-0.0002529360936023295
6144.0,-0.0002423658879706636
6656.0,0.00044509570579975843
7168.0,0.0009660992654971778
7680.0,0.001141123240813613
8192.0,0.0002834650513250381
end
