version,3.0
numOfCh,1
type,point
parent_name,34a6d_1dot0-1dot0
ch_type,1_1
kcount,1
numberNandB,1
brightnessNandB,1
carpet pos,0
pc,0
Time (ms),CH1 Auto-Correlation
1.0,0.030202729627490044
2.0,0.027981821447610855
3.0,0.026100188493728638
4.0,0.024463102221488953
5.0,0.02305544912815094
6.0,0.021786855533719063
7.0,0.020643116906285286
8.0,0.019680118188261986
9.0,0.01879996620118618
10.0,0.017972901463508606
11.0,0.017145365476608276
12.0,0.016367342323064804
13.0,0.015695931389927864
14.0,0.015041125006973743
15.0,0.014433217234909534
16.0,0.013888441026210785
18.0,0.012997356243431568
20.0,0.012216818518936634
22.0,0.011440266855061054
24.0,0.010792354121804237
26.0,0.01020315382629633
28.0,0.009661697782576084
30.0,0.00925056915730238
32.0,0.008788558654487133
36.0,0.008039146661758423
40.0,0.007399266120046377
44.0,0.00683154072612524
48.0,0.00681569566950202
52.0,0.006718129850924015
56.0,0.00646137585863471
60.0,0.006476667709648609
64.0,0.006006583571434021
72.0,0.005194205325096846
80.0,0.004847151692956686
88.0,0.004317312967032194
96.0,0.003200587583705783
104.0,0.002628576010465622
112.0,0.0024760812520980835
120.0,0.002323947846889496
128.0,0.0020901954267174006
144.0,0.001999586820602417
160.0,0.0015145557699725032
176.0,0.0015509772347286344
192.0,0.0015891033690422773
208.0,0.0014257822185754776
224.0,0.0006360688712447882
240.0,0.0001966535928659141
256.0,-0.0004193620115984231
288.0,-0.0006068373331800103
320.0,-0.00011069158790633082
352.0,0.0009379360126331449
384.0,0.0004481631622184068
416.0,0.0008733875001780689
448.0,-0.00037307944148778915
480.0,-0.0006259290967136621
512.0,-0.0007492139702662826
576.0,-0.0014775515301153064
640.0,-0.0010379488812759519
704.0,-0.0015732041792944074
768.0,-0.00108795624691993
832.0,-0.0013072219444438815
896.0,-0.0017673441907390952
960.0,-0.0013393651461228728
1024.0,-0.0007625514990650117
1152.0,0.0008842786191962659
1280.0,0.0015169529942795634
1408.0,0.00043951047700829804
1536.0,0.0004506970872171223
1664.0,0.00019889409304596484
1792.0,-0.0008115791715681553
1920.0,-0.0012616218300536275
2048.0,-0.001892101252451539
2304.0,0.0005200453451834619
2560.0,0.00033581085153855383
2816.0,0.0002248594246339053
3072.0,-3.920445669791661e-05
3328.0,-0.0003522088227327913
3584.0,0.0006132828420959413
3840.0,0.002143076853826642
4096.0,-0.0001424342190148309
4608.0,0.00047361638280563056
5120.0,-0.0004366962530184537
5632.0,0.0006486792699433863
6144.0,-0.0009249250870198011
6656.0,-0.0005646806675940752
7168.0,-0.0006079936283640563
7680.0,0.0001284017344005406
8192.0,-0.0013997011119499803
end
