version,3.0
numOfCh,1
type,point
parent_name,34a6d_1dot0-1dot0
ch_type,1_1
kcount,1
numberNandB,1
brightnessNandB,1
carpet pos,0
pc,0
Time (ms),CH1 Auto-Correlation
1.0,0.02662418596446514
2.0,0.024382228031754494
3.0,0.0225400160998106
4.0,0.02099936455488205
5.0,0.01962636597454548
6.0,0.018421709537506104
7.0,0.017452364787459373
8.0,0.01658322662115097
9.0,0.015753617510199547
10.0,0.014962266199290752
11.0,0.014281569048762321
12.0,0.01360748428851366
13.0,0.01297611091285944
14.0,0.012330316938459873
15.0,0.01169036328792572
16.0,0.011114193126559258
18.0,0.010019375011324883
20.0,0.00906760897487402
22.0,0.008302579633891582
24.0,0.007712965831160545
26.0,0.007284920196980238
28.0,0.006938651669770479
30.0,0.006496910471469164
32.0,0.0062226722948253155
36.0,0.005712039768695831
40.0,0.005255384836345911
44.0,0.004691842943429947
48.0,0.0039448789320886135
52.0,0.0033130107913166285
56.0,0.002942927647382021
60.0,0.002819288754835725
64.0,0.002723412588238716
72.0,0.002395166317000985
80.0,0.001881082309409976
88.0,0.0013979107607156038
96.0,0.0009038696298375726
104.0,0.0005266476655378938
112.0,0.0002909372851718217
120.0,0.00020828098058700562
128.0,0.00019273471843916923
144.0,6.288244549068622e-06
160.0,-0.000536205479875207
176.0,-0.0008973391959443688
192.0,-0.0007088560378178954
208.0,-0.0006271782331168652
224.0,-0.000647468026727438
240.0,0.00024215674784500152
256.0,0.0005887006409466267
288.0,-0.00018458660633768886
320.0,-0.0007076998008415103
352.0,0.00026769840042106807
384.0,0.00026210371288470924
416.0,0.0003476305864751339
448.0,-0.0007607858860865235
480.0,-0.0009604209917597473
512.0,-0.0007310584187507629
576.0,-0.000610482064075768
640.0,0.00011960694973822683
704.0,-0.0003655474865809083
768.0,-0.0002195596316596493
832.0,-9.779098763829097e-05
896.0,-0.0004414517024997622
960.0,-0.0004951923619955778
1024.0,4.3514868593774736e-05
1152.0,-0.0004081137594766915
1280.0,-0.000923865765798837
1408.0,0.0005297180614434183
1536.0,0.0017281996551901102
1664.0,0.00014464622654486448
1792.0,0.0001272439258173108
1920.0,0.000705414277035743
2048.0,-0.0006267616408877075
2304.0,-0.00045713322469964623
2560.0,-0.0010230535408481956
2816.0,-0.0009277393110096455
3072.0,0.0003449083596933633
3328.0,0.0008209198131226003
3584.0,-0.0005931656341999769
3840.0,-0.0005617262795567513
4096.0,-0.0005314264562912285
4608.0,0.0001552343019284308
5120.0,-0.00022844721388537437
5632.0,-1.0035594641522039e-05
6144.0,0.00031658716034144163
6656.0,-1.5245498161675641e-06
7168.0,-0.00021579321764875203
7680.0,0.0006202289368957281
8192.0,0.00018527994689065963
end
