version,3.0
numOfCh,1
type,point
parent_name,34a6d_1dot0-1dot0
ch_type,1_1
kcount,1
numberNandB,1
brightnessNandB,1
carpet pos,0
pc,0
Time (ms),CH1 Auto-Correlation
1.0,0.02681531198322773
2.0,0.02459593303501606
3.0,0.02270914427936077
4.0,0.021094392985105515
5.0,0.019645338878035545
6.0,0.01833314262330532
7.0,0.017194839194417
8.0,0.016164308413863182
9.0,0.0152790118008852
10.0,0.01448104064911604
11.0,0.013703850097954273
12.0,0.013090705499053001
13.0,0.012510168366134167
14.0,0.011904249899089336
15.0,0.011297987774014473
16.0,0.010824243538081646
18.0,0.009858905337750912
20.0,0.009030180983245373
22.0,0.008166181854903698
24.0,0.00747727183625102
26.0,0.006944903638213873
28.0,0.006369351875036955
30.0,0.005885220132768154
32.0,0.005533495452255011
36.0,0.004742807243019342
40.0,0.003987670410424471
44.0,0.0033583699259907007
48.0,0.002765471115708351
52.0,0.0023115414660423994
56.0,0.002213473664596677
60.0,0.0023038999643176794
64.0,0.0025019326712936163
72.0,0.0026184425223618746
80.0,0.0024978495202958584
88.0,0.0019376386189833283
96.0,0.0014874154003337026
104.0,0.0014356530737131834
112.0,0.001246197847649455
120.0,0.0010102958185598254
128.0,0.0006709886365570128
144.0,0.0003659551148302853
160.0,0.0006050230003893375
176.0,0.001177421072497964
192.0,0.0006492870161309838
208.0,0.00026090984465554357
224.0,0.000356701435521245
240.0,0.0003042733296751976
256.0,0.0007907798863016069
288.0,0.0010649755131453276
320.0,0.0008457038784399629
352.0,0.00028488581301644444
384.0,-0.00024356618814636022
416.0,0.0006962590850889683
448.0,0.0003264188126195222
480.0,0.0006895181722939014
512.0,-0.0004664307343773544
576.0,-0.0008465453865937889
640.0,0.0006197100155986845
704.0,0.00011099414405180141
768.0,0.000667838379740715
832.0,0.0011807270348072052
896.0,0.00034849531948566437
960.0,0.0003753248311113566
1024.0,0.0008708162349648774
1152.0,-0.0008476362563669682
1280.0,-0.0008851221646182239
1408.0,0.0006573472637683153
1536.0,0.0007031814893707633
1664.0,0.000936803116928786
1792.0,-0.0002779483038466424
1920.0,0.00046971201663836837
2048.0,-0.00019138546485919505
2304.0,-0.0009250169969163835
2560.0,-0.0010232948698103428
2816.0,-0.000837976869661361
3072.0,0.0005121616995893419
3328.0,-0.00021003079018555582
3584.0,-0.0002621633466333151
3840.0,-0.00027688569389283657
4096.0,-0.000763469492085278
4608.0,-0.00020184466848149896
5120.0,-0.00012484131730161607
5632.0,0.00014680885942652822
6144.0,-8.059758692979813e-05
6656.0,-0.00013733173545915633
7168.0,-0.00020573986694216728
7680.0,-0.0002496412198524922
8192.0,-0.0008909514872357249
end
