version,3.0
numOfCh,1
type,point
parent_name,34a6d_1dot0-1dot0
ch_type,1_1
kcount,1
numberNandB,1
brightnessNandB,1
carpet pos,0
pc,0
Time (ms),CH1 Auto-Correlation
1.0,0.02653130330145359
2.0,0.024311823770403862
3.0,0.022361816838383675
4.0,0.020641164854168892
5.0,0.019127968698740005
6.0,0.017833096906542778
7.0,0.01669422909617424
8.0,0.015634767711162567
9.0,0.014702496118843555
10.0,0.013882854022085667
11.0,0.013091887347400188
12.0,0.01236254908144474
13.0,0.011682288721203804
14.0,0.01106939371675253
15.0,0.01048611756414175
16.0,0.01000661589205265
18.0,0.00917114783078432
20.0,0.008443777449429035
22.0,0.007749135140329599
24.0,0.007155558094382286
26.0,0.006618335377424955
28.0,0.006297813728451729
30.0,0.006031492259353399
32.0,0.005654941778630018
36.0,0.005051411688327789
40.0,0.004722361918538809
44.0,0.004268311895430088
48.0,0.003927940968424082
52.0,0.0036562818568199873
56.0,0.0034857727587223053
60.0,0.0032451290171593428
64.0,0.0031821755692362785
72.0,0.002967455191537738
80.0,0.002113879891112447
88.0,0.001831119996495545
96.0,0.0014570187777280807
104.0,0.0012474835384637117
112.0,0.0013566642301157117
120.0,0.001528158551082015
128.0,0.0013490204000845551
144.0,0.0017043235711753368
160.0,0.001239955541677773
176.0,0.0011962673161178827
192.0,0.0017468195874243975
208.0,0.002266319002956152
224.0,0.0025797439739108086
240.0,0.0019803540781140327
256.0,0.0013891208218410611
288.0,0.001357108703814447
320.0,-0.00024924930767156184
352.0,-2.7869109544553794e-05
384.0,-5.419491571956314e-05
416.0,0.00030767524731345475
448.0,9.970580867957324e-05
480.0,-1.3386382306634914e-05
512.0,-0.0006861678557470441
576.0,-0.0009353026398457587
640.0,-0.00036553994868882
704.0,8.307211101055145e-05
768.0,0.0007482764776796103
832.0,-0.00020244081679265946
896.0,2.455149297020398e-05
960.0,0.00022508208348881453
1024.0,0.000583687680773437
1152.0,-0.00047052724403329194
1280.0,-5.33397906110622e-05
1408.0,5.593442256213166e-05
1536.0,0.0004336636629886925
1664.0,-8.192184031940997e-05
1792.0,0.0001809633249649778
1920.0,-0.0004830563848372549
2048.0,-0.00030187665834091604
2304.0,0.0008369475835934281
2560.0,0.0014122426509857178
2816.0,0.0014287434751167893
3072.0,0.0012706216657534242
3328.0,-0.00026127329329028726
3584.0,-0.0007445320370607078
3840.0,-0.001682818285189569
4096.0,-0.0007897918112576008
4608.0,-0.00021818529057782143
5120.0,0.00048072391655296087
5632.0,0.00042274026782251894
6144.0,-0.000348615285474807
6656.0,-0.0010062088258564472
7168.0,-0.0007227116147987545
7680.0,-8.976294338935986e-05
8192.0,-0.0001660798880038783
end
