version,3.0
numOfCh,1
type,point
parent_name,34a6d_1dot0-1dot0
ch_type,1_1
kcount,1
numberNandB,1
brightnessNandB,1
carpet pos,0
pc,0
Time (ms),CH1 Auto-Correlation
1.0,0.027680687606334686
2.0,0.02539091370999813
3.0,0.023461148142814636
4.0,0.021762993186712265
5.0,0.020255861803889275
6.0,0.018900785595178604
7.0,0.017786871641874313
8.0,0.016772422939538956
9.0,0.01576239801943302
10.0,0.014782045036554337
11.0,0.01388740073889494
12.0,0.013080472126603127
13.0,0.01243068277835846
14.0,0.011816620826721191
15.0,0.011318911798298359
16.0,0.01083820965141058
18.0,0.010202670469880104
20.0,0.009548146277666092
22.0,0.008989528752863407
24.0,0.008340083062648773
26.0,0.007751280441880226
28.0,0.007313328329473734
30.0,0.006871338933706284
32.0,0.00636909157037735
36.0,0.005301445722579956
40.0,0.004571588709950447
44.0,0.003875151975080371
48.0,0.0032419220078736544
52.0,0.0028745720628648996
56.0,0.0024729634169489145
60.0,0.002059669466689229
64.0,0.001667799660935998
72.0,0.0010607815347611904
80.0,0.0009427028708159924
88.0,0.0006900990847498178
96.0,0.001230459427461028
104.0,0.0014293498825281858
112.0,0.0014135370729491115
120.0,0.0011596408439800143
128.0,0.0010120590450242162
144.0,0.0017151637002825737
160.0,0.0018874556990340352
176.0,0.0015779249370098114
192.0,0.0009870880749076605
208.0,6.0356185713317245e-05
224.0,0.0002563678426668048
240.0,0.0005232407711446285
256.0,0.0013839536113664508
288.0,0.00032055264455266297
320.0,0.00015340032405219972
352.0,0.0002470428589731455
384.0,-0.00012080749002052471
416.0,0.0002562485751695931
448.0,-0.0002585160837043077
480.0,-0.00017263034533243626
512.0,0.0004484998935367912
576.0,0.0003339004178997129
640.0,0.0013764420291408896
704.0,-0.00043497077422216535
768.0,0.000546133378520608
832.0,0.0001622649433556944
896.0,-0.000492221093736589
960.0,-0.0009479231666773558
1024.0,-0.001056373817846179
1152.0,-0.000573880213778466
1280.0,0.00016652078193146735
1408.0,0.001393376151099801
1536.0,0.0004579852393362671
1664.0,0.0014060159446671605
1792.0,0.0006748578161932528
1920.0,-0.00024376064538955688
2048.0,4.83922594867181e-05
2304.0,-0.000316133868182078
2560.0,-0.000703797151800245
2816.0,-0.00036048557376489043
3072.0,0.0006897194543853402
3328.0,0.0005777809419669211
3584.0,-0.0005696195876225829
3840.0,-0.0014609677018597722
4096.0,-0.0008188722422346473
4608.0,0.00023630702344235033
5120.0,0.0005842042155563831
5632.0,-1.7196492990478873e-05
6144.0,0.00024729970027692616
6656.0,-7.139830267988145e-05
7168.0,-0.00044649947085417807
7680.0,0.00039362406823784113
8192.0,-0.00036675986484624445
end
