version,3.0
numOfCh,1
type,point
parent_name,34a6d_1dot0-1dot0
ch_type,1_1
kcount,1
numberNandB,1
brightnessNandB,1
carpet pos,0
pc,0
Time (ms),CH1 Auto-Correlation
1.0,0.026417959481477737
2.0,0.02425258420407772
3.0,0.022365383803844452
4.0,0.020727263763546944
5.0,0.019283566623926163
6.0,0.018002565950155258
7.0,0.016877932474017143
8.0,0.015873853117227554
9.0,0.014965414069592953
10.0,0.014201631769537926
11.0,0.013487123884260654
12.0,0.012767414562404156
13.0,0.012186557985842228
14.0,0.011628910899162292
15.0,0.011076872237026691
16.0,0.010538754053413868
18.0,0.009491032920777798
20.0,0.008554867468774319
22.0,0.007789074908941984
24.0,0.007103432435542345
26.0,0.006455180235207081
28.0,0.005887922365218401
30.0,0.005350761115550995
32.0,0.004956657998263836
36.0,0.0044213091023266315
40.0,0.003954614978283644
44.0,0.003448446746915579
48.0,0.003200038569048047
52.0,0.0028515206649899483
56.0,0.00262585561722517
60.0,0.002460232935845852
64.0,0.002235886873677373
72.0,0.0023356745950877666
80.0,0.002112580696120858
88.0,0.0015393678331747651
96.0,0.00115300714969635
104.0,0.0012789351167157292
112.0,0.0013621679972857237
120.0,0.001672531827352941
128.0,0.0012278530048206449
144.0,0.0005864498671144247
160.0,0.0001894526940304786
176.0,0.000109935223008506
192.0,0.0004534801410045475
208.0,0.00011120776616735384
224.0,-0.00023946180590428412
240.0,0.0003059843147639185
256.0,0.0004804479540325701
288.0,0.0002544781018514186
320.0,0.0008784022065810859
352.0,0.0007883288199082017
384.0,0.0008293955470435321
416.0,0.0009612977737560868
448.0,0.0019082416547462344
480.0,0.0013766669435426593
512.0,0.0006579916225746274
576.0,0.0006719157099723816
640.0,-0.0006205577519722283
704.0,0.0004626912996172905
768.0,0.0023078168742358685
832.0,0.0011717567685991526
896.0,0.0018354856874793768
960.0,-1.3427677913568914e-05
1024.0,-0.00010520778596401215
1152.0,-0.001122745918110013
1280.0,0.0003195006283931434
1408.0,-0.001005341880954802
1536.0,-0.00207658763974905
1664.0,-0.0006906733033247292
1792.0,-0.0012495983392000198
1920.0,-0.0016649767057970166
2048.0,-0.0011612102389335632
2304.0,-0.0007799644372425973
2560.0,-0.00016658117237966508
2816.0,-0.0009027220075950027
3072.0,-0.00028652072069235146
3328.0,0.0008033853373490274
3584.0,-0.0003413051017560065
3840.0,2.136937837349251e-05
4096.0,0.00027650847914628685
4608.0,0.0008958383114077151
5120.0,0.001021664123982191
5632.0,0.0003039625007659197
6144.0,-0.00032684547477401793
6656.0,-0.0010339516447857022
7168.0,-0.00084371940465644
7680.0,0.0005569578497670591
8192.0,0.00013370768283493817
end
