version,3.0
numOfCh,1
type,point
parent_name,34a6d_1dot0-1dot0
ch_type,1_1
kcount,1
numberNandB,1
brightnessNandB,1
carpet pos,0
pc,0
Time (ms),CH1 Auto-Correlation
1.0,0.029657406732439995
2.0,0.027328208088874817
3.0,0.025326184928417206
4.0,0.0236529354006052
5.0,0.022231463342905045
6.0,0.02100745588541031
7.0,0.019845925271511078
8.0,0.018744034692645073
9.0,0.017726540565490723
10.0,0.016828546300530434
11.0,0.01600920595228672
12.0,0.015208175405859947
13.0,0.014519203454256058
14.0,0.013887989334762096
15.0,0.013317476958036423
16.0,0.012771226465702057
18.0,0.011905664578080177
20.0,0.011123700998723507
22.0,0.010516634210944176
24.0,0.010026765987277031
26.0,0.009566948749125004
28.0,0.009148749522864819
30.0,0.008641491644084454
32.0,0.008281693793833256
36.0,0.007930601947009563
40.0,0.00761233177036047
44.0,0.00718719931319356
48.0,0.006485431455075741
52.0,0.0058144982904195786
56.0,0.00529148243367672
60.0,0.004843245260417461
64.0,0.004438483621925116
72.0,0.0034788448829203844
80.0,0.002585672540590167
88.0,0.0019950889982283115
96.0,0.001990237273275852
104.0,0.0019651397597044706
112.0,0.0018040926661342382
120.0,0.002032773569226265
128.0,0.0021277968771755695
144.0,0.0018942335154861212
160.0,0.0020346741657704115
176.0,0.0016264967853203416
192.0,0.002565590664744377
208.0,0.0024170023389160633
224.0,0.0013861756306141615
240.0,0.0009810914052650332
256.0,0.0009645200916565955
288.0,0.0010656059021130204
320.0,0.0007564980769529939
352.0,-0.0002473134081810713
384.0,-0.0006891093798913062
416.0,-0.0012600310146808624
448.0,-0.001720427069813013
480.0,-0.0010366732021793723
512.0,0.00015605638327542692
576.0,0.00021963127073831856
640.0,0.0007395347347483039
704.0,-0.001147218863479793
768.0,-0.0012892682570964098
832.0,-0.00028135368484072387
896.0,0.00010897765605477616
960.0,0.00014725179062224925
1024.0,-0.0001265877508558333
1152.0,-0.0010095650795847178
1280.0,0.0002819183864630759
1408.0,-0.0006372913485392928
1536.0,0.00019702613644767553
1664.0,-0.0015219916822388768
1792.0,-0.0012596060987561941
1920.0,-0.0008939944673329592
2048.0,0.0008396107004955411
2304.0,0.0017026980640366673
2560.0,-0.0006793932989239693
2816.0,-0.0016550990985706449
3072.0,-0.0019879157189279795
3328.0,-0.0005167332128621638
3584.0,0.0002762340009212494
3840.0,-0.0015821111155673862
4096.0,-5.683468407369219e-05
4608.0,0.0014675327111035585
5120.0,-0.00014382204972207546
5632.0,0.00038439780473709106
6144.0,9.29836733121192e-06
6656.0,-4.385975989862345e-05
7168.0,-0.0010800259187817574
7680.0,-0.00042837063665501773
8192.0,-0.00039407412987202406
end
