version,3.0
numOfCh,1
type,point
parent_name,34a6d_1dot0-1dot0
ch_type,1_1
kcount,1
numberNandB,1
brightnessNandB,1
carpet pos,0
pc,0
Time (ms),CH1 Auto-Correlation
1.0,0.027349064126610756
2.0,0.02512916550040245
3.0,0.023232243955135345
4.0,0.02160673961043358
5.0,0.020187832415103912
6.0,0.01894223690032959
7.0,0.0178943183273077
8.0,0.016932036727666855
9.0,0.016037529334425926
10.0,0.015128017403185368
11.0,0.014311450533568859
12.0,0.01351231336593628
13.0,0.01280219852924347
14.0,0.01216717716306448
15.0,0.011594436131417751
16.0,0.011055112816393375
18.0,0.009994160383939743
20.0,0.009152269922196865
22.0,0.008549483492970467
24.0,0.007934167981147766
26.0,0.007485254667699337
28.0,0.00713752256706357
30.0,0.006698907818645239
32.0,0.006421107333153486
36.0,0.005881806835532188
40.0,0.005334591958671808
44.0,0.00487923389300704
48.0,0.004561065696179867
52.0,0.0043473392724990845
56.0,0.004080585204064846
60.0,0.0036675732117146254
64.0,0.0034422778990119696
72.0,0.003319757292047143
80.0,0.003130614757537842
88.0,0.00260002538561821
96.0,0.0022055937442928553
104.0,0.0015300812665373087
112.0,0.0012913268292322755
120.0,0.0011616480769589543
128.0,0.001099343760870397
144.0,0.0007869509281590581
160.0,5.741835138906026e-06
176.0,4.5434189814841375e-05
192.0,-0.0001836535520851612
208.0,-0.00021182477939873934
224.0,-0.000639108126051724
240.0,0.00014471837494056672
256.0,0.00010362204193370417
288.0,-0.0006672885501757264
320.0,-0.0005366679979488254
352.0,6.627644324908033e-05
384.0,0.0002822384412866086
416.0,0.0005806590779684484
448.0,-0.00016372503887396306
480.0,-0.0005869267624802887
512.0,0.00044418603647500277
576.0,2.2042853743187152e-05
640.0,-0.000506856944411993
704.0,0.00011946291488129646
768.0,0.0008295699371956289
832.0,0.0003887504281010479
896.0,-0.0001607648009667173
960.0,0.0008279982721433043
1024.0,0.0009659623610787094
1152.0,0.0007182846311479807
1280.0,0.0003944490454159677
1408.0,-0.0013872371055185795
1536.0,0.00013274488446768373
1664.0,1.9183509721187875e-05
1792.0,-0.0004547863209154457
1920.0,-0.00044101173989474773
2048.0,-0.001285758102312684
2304.0,-0.0008871217723935843
2560.0,-0.0002544076705817133
2816.0,-0.0005849257577210665
3072.0,0.00018363352864980698
3328.0,3.8596353988396004e-05
3584.0,-0.0001276017283089459
3840.0,0.0006291839526966214
4096.0,0.0002543219889048487
4608.0,-0.0002591526135802269
5120.0,-3.2733103580540046e-05
5632.0,-0.0004262721922714263
6144.0,7.98008477431722e-05
6656.0,0.0004722158482763916
7168.0,0.00043287730659358203
7680.0,-0.0003363676369190216
8192.0,1.999193955271039e-05
end
