version,3.0
numOfCh,1
type,point
parent_name,34a6d_1dot0-1dot0
ch_type,1_1
kcount,1
numberNandB,1
brightnessNandB,1
carpet pos,0
pc,0
Time (ms),CH1 Auto-Correlation
1.0,0.02588227018713951
2.0,0.023586256429553032
3.0,0.0216230321675539
4.0,0.019942738115787506
5.0,0.018521398305892944
6.0,0.017273174598813057
7.0,0.016178511083126068
8.0,0.01516721025109291
9.0,0.014238704927265644
10.0,0.013414406217634678
11.0,0.012665418907999992
12.0,0.011996492743492126
13.0,0.011340307071805
14.0,0.010749690234661102
15.0,0.0103179095312953
16.0,0.009924042038619518
18.0,0.009184347465634346
20.0,0.008588146418333054
22.0,0.0081434715539217
24.0,0.007712095510214567
26.0,0.007352927699685097
28.0,0.006974414922297001
30.0,0.006681608036160469
32.0,0.006278933957219124
36.0,0.005727417767047882
40.0,0.005374562460929155
44.0,0.004971976857632399
48.0,0.004837739747017622
52.0,0.004680043086409569
56.0,0.00466660363599658
60.0,0.0046066055074334145
64.0,0.0045083556324243546
72.0,0.004164192825555801
80.0,0.0032839933410286903
88.0,0.00219130702316761
96.0,0.0018477706471458077
104.0,0.001915738801471889
112.0,0.0019094180315732956
120.0,0.0018264384707435966
128.0,0.001513441908173263
144.0,0.0021744195837527514
160.0,0.0026303401682525873
176.0,0.0027331714518368244
192.0,0.002275867620483041
208.0,0.001875179703347385
224.0,0.001992609351873398
240.0,0.0012035270920023322
256.0,0.000673404021654278
288.0,0.0018307608552277088
320.0,0.0017472485778853297
352.0,0.0014414868783205748
384.0,0.0009147234377451241
416.0,0.00032843754161149263
448.0,0.00015743740368634462
480.0,0.0008418172947131097
512.0,0.0019481953931972384
576.0,0.0006143552018329501
640.0,-0.0005655498243868351
704.0,0.00012007891200482845
768.0,-0.0004100129590369761
832.0,-0.0002304360386915505
896.0,-0.0002304130612174049
960.0,0.00021020762505941093
1024.0,0.00018397177336737514
1152.0,-0.000724881305359304
1280.0,0.000447928614448756
1408.0,0.0010288978228345513
1536.0,0.0011831506853923202
1664.0,0.0019261258421465755
1792.0,0.0019684205763041973
1920.0,0.0015446420293301344
2048.0,0.00032969043240882456
2304.0,0.0013114699395373464
2560.0,-0.0001218412653543055
2816.0,0.0006732966867275536
3072.0,-0.00013635102368425578
3328.0,0.0008674315758980811
3584.0,-0.0002655329299159348
3840.0,-0.0006399943376891315
4096.0,-0.0009008408524096012
4608.0,0.0008110313792712986
5120.0,-0.00019747839542105794
5632.0,-0.0011964311124756932
6144.0,-0.0003121796471532434
6656.0,0.00039601456956006587
7168.0,-0.00014212272071745247
7680.0,-0.0010973181342706084
8192.0,-0.001125922193750739
end
