version,3.0
numOfCh,1
type,point
parent_name,34a6d_1dot0-1dot0
ch_type,1_1
kcount,1
numberNandB,1
brightnessNandB,1
carpet pos,0
pc,0
Time (ms),CH1 Auto-Correlation
1.0,0.027059217914938927
2.0,0.024846436455845833
3.0,0.022979775443673134
4.0,0.02132512256503105
5.0,0.019955916330218315
6.0,0.018710998818278313
7.0,0.017563842236995697
8.0,0.01647045649588108
9.0,0.015551729127764702
10.0,0.014739377424120903
11.0,0.014038573019206524
12.0,0.013348834589123726
13.0,0.012699531391263008
14.0,0.01206556148827076
15.0,0.011539513245224953
16.0,0.011015062220394611
18.0,0.010007714852690697
20.0,0.009163128212094307
22.0,0.008643155917525291
24.0,0.008210686966776848
26.0,0.00781828910112381
28.0,0.007474972866475582
30.0,0.006962128449231386
32.0,0.006615045014768839
36.0,0.005769944284111261
40.0,0.005256979260593653
44.0,0.004627074580639601
48.0,0.004091610666364431
52.0,0.003500568913295865
56.0,0.0031088916584849358
60.0,0.002844642149284482
64.0,0.00274632778018713
72.0,0.002176793059334159
80.0,0.0015038311248645186
88.0,0.0012746270513162017
96.0,0.0009036268456839025
104.0,0.000903683016076684
112.0,0.0011685973731800914
120.0,0.00046988570829853415
128.0,-0.00015970668755471706
144.0,-0.0003184284141752869
160.0,0.0005121291032992303
176.0,0.0007523394306190312
192.0,0.000622225517872721
208.0,0.00024603799101896584
224.0,8.987898763734847e-05
240.0,-0.0003244561958126724
256.0,-0.0003858707204926759
288.0,0.00038825039518997073
320.0,0.0005516934324987233
352.0,0.0015140463365241885
384.0,0.000309924827888608
416.0,-0.001288880011998117
448.0,-0.0009718601941131055
480.0,0.0002086775202769786
512.0,0.0009008320630528033
576.0,1.1142514267703518e-05
640.0,2.65106627921341e-05
704.0,0.00034006478381343186
768.0,0.0009716167114675045
832.0,0.0003246480773668736
896.0,0.00014712163829244673
960.0,-0.0004444464575499296
1024.0,-0.0011015844065696
1152.0,-0.00042052328353747725
1280.0,1.3047120773990173e-05
1408.0,-0.0011584061430767179
1536.0,-0.001070330268703401
1664.0,-0.0012487608473747969
1792.0,0.00028254397329874337
1920.0,0.00028482178458943963
2048.0,-0.0005257053417153656
2304.0,0.000257647450780496
2560.0,0.00013361367746256292
2816.0,-0.0006884676986373961
3072.0,-0.00029448966961354017
3328.0,8.968958718469366e-05
3584.0,-0.0001676689280429855
3840.0,-0.00021563614427577704
4096.0,-0.0010756592964753509
4608.0,-0.00036377512151375413
5120.0,0.0001207429013447836
5632.0,0.00040813355008140206
6144.0,0.0008368484559468925
6656.0,0.0005230688839219511
7168.0,0.0001071873412001878
7680.0,0.0007301422883756459
8192.0,-0.0006801541312597692
end
