version,3.0
numOfCh,1
type,point
parent_name,34a6d_1dot0-1dot0
ch_type,1_1
kcount,1
numberNandB,1
brightnessNandB,1
carpet pos,0
pc,0
Time (ms),CH1 Auto-Correlation
1.0,0.02985079400241375
2.0,0.027645660564303398
3.0,0.025773335248231888
4.0,0.024174131453037262
5.0,0.02272643893957138
6.0,0.021372105926275253
7.0,0.02014874666929245
8.0,0.019096380099654198
9.0,0.018093984574079514
10.0,0.017173832282423973
11.0,0.016314256936311722
12.0,0.015577155165374279
13.0,0.014927465468645096
14.0,0.01443285122513771
15.0,0.013911169953644276
16.0,0.013343933038413525
18.0,0.012474245391786098
20.0,0.011763487011194229
22.0,0.011099089868366718
24.0,0.0105075528845191
26.0,0.009960048831999302
28.0,0.009457777254283428
30.0,0.008950997143983841
32.0,0.008574073202908039
36.0,0.008064549416303635
40.0,0.007476311642676592
44.0,0.006832456216216087
48.0,0.006464055273681879
52.0,0.006030152551829815
56.0,0.005632332526147366
60.0,0.005082270130515099
64.0,0.004532362334430218
72.0,0.0035616036038845778
80.0,0.002301988657563925
88.0,0.0015495811821892858
96.0,0.0015750299207866192
104.0,0.002127809915691614
112.0,0.002537163905799389
120.0,0.0028067238163203
128.0,0.0028990902937948704
144.0,0.002823998685926199
160.0,0.003166728187352419
176.0,0.0031140511855483055
192.0,0.0022179444786161184
208.0,0.001265402534045279
224.0,-7.250523049151525e-05
240.0,-0.0013748683268204331
256.0,-0.001518735778518021
288.0,0.00028015923453494906
320.0,0.0001969492295756936
352.0,-0.0010064597008749843
384.0,-0.0015859907725825906
416.0,-0.0018543482292443514
448.0,-0.00201947009190917
480.0,-0.0016266709426417947
512.0,-0.002033629221841693
576.0,-0.0019140173681080341
640.0,-0.0010375130223110318
704.0,0.0005629573715850711
768.0,0.0017399163916707039
832.0,0.0014936595689505339
896.0,0.002048170194029808
960.0,0.000607274123467505
1024.0,-0.0005933154607191682
1152.0,-0.0015742570394650102
1280.0,-0.0011792300501838326
1408.0,-0.0007067317492328584
1536.0,0.000797727785538882
1664.0,0.0011662301840260625
1792.0,0.0013224409194663167
1920.0,-0.0003681592352222651
2048.0,-0.0015383518766611814
2304.0,0.0003802680585067719
2560.0,0.0009753559716045856
2816.0,-0.0014258661540225148
3072.0,-0.0006411894573830068
3328.0,0.000898122088983655
3584.0,-0.0001186153749586083
3840.0,0.0005123810260556638
4096.0,0.00016054598381742835
4608.0,-0.0017010198207572103
5120.0,0.00034384705941192806
5632.0,-0.0006441730656661093
6144.0,0.00044387709931470454
6656.0,-0.0006913609104231
7168.0,-0.00023966770095285028
7680.0,0.0005712758284062147
8192.0,-0.0011839275248348713
end
