version,3.0
numOfCh,1
type,point
parent_name,34a6d_1dot0-1dot0
ch_type,1_1
kcount,1
numberNandB,1
brightnessNandB,1
carpet pos,0
pc,0
Time (ms),CH1 Auto-Correlation
1.0,0.0271625816822052
2.0,0.025005584582686424
3.0,0.02321799099445343
4.0,0.02170032449066639
5.0,0.020377319306135178
6.0,0.01912575773894787
7.0,0.01793602854013443
8.0,0.016901850700378418
9.0,0.015961257740855217
10.0,0.01511297095566988
11.0,0.014369957149028778
12.0,0.013610352762043476
13.0,0.01291516050696373
14.0,0.012239199131727219
15.0,0.011654219590127468
16.0,0.011166626587510109
18.0,0.01020865235477686
20.0,0.009328478947281837
22.0,0.008523217402398586
24.0,0.007863922975957394
26.0,0.007277798838913441
28.0,0.006703814957290888
30.0,0.006153038237243891
32.0,0.0056650396436452866
36.0,0.004850441589951515
40.0,0.0042017120867967606
44.0,0.0036239498294889927
48.0,0.0031059577595442533
52.0,0.0024966062046587467
56.0,0.002056175610050559
60.0,0.0016193778719753027
64.0,0.0012442542938515544
72.0,0.0009483533794991672
80.0,0.0008492731722071767
88.0,0.0008002083632163703
96.0,0.0008448268054053187
104.0,0.0007756870472803712
112.0,0.0002570232900325209
120.0,8.735938172321767e-05
128.0,1.6135480109369382e-05
144.0,-0.0004989277804270387
160.0,-0.0006428112392313778
176.0,-0.00025942703359760344
192.0,-0.00028555633616633713
208.0,-0.000931973394472152
224.0,6.633056182181463e-05
240.0,0.00031502993078902364
256.0,0.0005713414866477251
288.0,0.0005281516932882369
320.0,-0.00026278934092260897
352.0,-0.00018298375653102994
384.0,-0.0012736715143546462
416.0,-0.0011413656175136566
448.0,-0.000989776337519288
480.0,-0.0005943046417087317
512.0,-0.0007402424234896898
576.0,-0.0003014130925294012
640.0,0.00021857557294424623
704.0,0.0006914163241162896
768.0,-0.00027859039255417883
832.0,-0.0005813027382828295
896.0,-0.0005478166858665645
960.0,0.00021365653083194047
1024.0,0.0007858675671741366
1152.0,0.00011012223694706336
1280.0,0.0008818158530630171
1408.0,4.172539047431201e-05
1536.0,0.00026885431725531816
1664.0,-0.0009852107614278793
1792.0,-0.0008697986486367881
1920.0,-0.00029593351064249873
2048.0,-0.000982684432528913
2304.0,-1.3953915185993537e-05
2560.0,0.00015243949019350111
2816.0,-0.0007451531128026545
3072.0,-0.0007140761008486152
3328.0,0.00039712191210128367
3584.0,0.00010312283120583743
3840.0,-0.000396695570088923
4096.0,-0.00045257946476340294
4608.0,0.00012898107524961233
5120.0,0.0008505107252858579
5632.0,0.0005374250467866659
6144.0,-0.0007480187341570854
6656.0,-0.0002981114957947284
7168.0,-0.0011526528978720307
7680.0,6.228902202565223e-05
8192.0,0.0005491438205353916
end
