version,3.0
numOfCh,1
type,point
parent_name,34a6d_1dot0-1dot0
ch_type,1_1
kcount,1
numberNandB,1
brightnessNandB,1
carpet pos,0
pc,0
Time (ms),CH1 Auto-Correlation
1.0,0.028538063168525696
2.0,0.026370732113718987
3.0,0.02450830675661564
4.0,0.02289111539721489
5.0,0.0214771069586277
6.0,0.020136810839176178
7.0,0.018958456814289093
8.0,0.017887160181999207
9.0,0.016931068152189255
10.0,0.015979433432221413
11.0,0.015145663172006607
12.0,0.014396424405276775
13.0,0.013703218661248684
14.0,0.013055011630058289
15.0,0.012413141317665577
16.0,0.011852635070681572
18.0,0.010899120941758156
20.0,0.010089934803545475
22.0,0.009422579780220985
24.0,0.008945310488343239
26.0,0.008524714037775993
28.0,0.008104043081402779
30.0,0.007718337699770927
32.0,0.007346931379288435
36.0,0.00679056579247117
40.0,0.0065545872785151005
44.0,0.006134083494544029
48.0,0.005647243931889534
52.0,0.005163001362234354
56.0,0.004557765554636717
60.0,0.0038144064601510763
64.0,0.0031370562501251698
72.0,0.0029020002111792564
80.0,0.0027438784018158913
88.0,0.0024402218405157328
96.0,0.002408962696790695
104.0,0.0025205370038747787
112.0,0.002274941187351942
120.0,0.0020073852501809597
128.0,0.0020751317497342825
144.0,0.0021585903596132994
160.0,0.0023991349153220654
176.0,0.0019414901034906507
192.0,0.001860993797890842
208.0,0.0010896503226831555
224.0,0.0009324135608039796
240.0,0.0011731629492715001
256.0,0.0003442649613134563
288.0,-0.000598099606577307
320.0,0.0006668283022008836
352.0,0.0016056406311690807
384.0,0.0009296373464167118
416.0,-0.0008266010554507375
448.0,-0.00034776495886035264
480.0,0.00024396787921432406
512.0,0.0007567950524389744
576.0,0.0009140574838966131
640.0,-0.00018147828814107925
704.0,0.0009176226449199021
768.0,0.0005207022186368704
832.0,0.0006844546878710389
896.0,0.0008568982011638582
960.0,0.0006486970232799649
1024.0,0.0006160667398944497
1152.0,-0.0003690035955514759
1280.0,-0.0003465647459961474
1408.0,6.1622224166058e-05
1536.0,0.0010042587528005242
1664.0,0.0010878386674448848
1792.0,-0.00022828151122666895
1920.0,-0.0008631459204480052
2048.0,-0.0012509087100625038
2304.0,-0.0008795587345957756
2560.0,-0.0003719372907653451
2816.0,-0.000527381373103708
3072.0,-0.00047499514766968787
3328.0,0.00029981223633512855
3584.0,-0.0008608691277913749
3840.0,-0.0004982644459232688
4096.0,-0.0009037621202878654
4608.0,0.00030453281942754984
5120.0,-0.0009464804315939546
5632.0,-0.001204346539452672
6144.0,0.00025578957865945995
6656.0,-7.730076322332025e-05
7168.0,-0.0001298177958233282
7680.0,0.0006875775870867074
8192.0,-0.0003337781527079642
end
