version,3.0
numOfCh,1
type,point
parent_name,1000-cuts
ch_type,1_1
kcount,1
numberNandB,1
brightnessNandB,1
carpet pos,0
pc,0
Time (ms),CH1 Auto-Correlation
1.0,0.014236589893698692
2.0,0.010660942643880844
3.0,0.008172409608960152
4.0,0.00664115883409977
5.0,0.005371757782995701
6.0,0.00439742486923933
7.0,0.0037175940815359354
8.0,0.003165733302012086
9.0,0.0026113607455044985
10.0,0.0022177454084157944
11.0,0.0018153536366298795
12.0,0.001599560840986669
13.0,0.0014196066185832024
14.0,0.0012725242413580418
15.0,0.0010816209251061082
16.0,0.0009370140614919364
18.0,0.0005783563246950507
20.0,0.0004968217108398676
22.0,0.00027284803218208253
24.0,8.370928298973013e-06
26.0,-0.0002185055345762521
28.0,-0.00028064745129086077
30.0,-0.00011731406266335398
32.0,-0.00026497189537622035
36.0,-0.00010716693213908002
40.0,4.14433452533558e-05
44.0,-6.710896559525281e-05
48.0,-8.0964269955075e-08
52.0,0.000139534953632392
56.0,1.1584508683881722e-05
60.0,-0.0001873387082014233
64.0,-0.00033865953446365893
72.0,9.622005745768547e-05
80.0,0.0002590816293377429
88.0,0.00048093387158587575
96.0,0.00024097334244288504
104.0,0.00020765936642419547
112.0,0.0005487118614837527
120.0,0.00026991908089257777
128.0,-3.561699850251898e-05
144.0,-0.00011052523768739775
160.0,-0.0001763388718245551
176.0,-1.8950639741888153e-06
192.0,-0.00026924049598164856
208.0,-0.0001726090704323724
224.0,0.00019593015895225108
240.0,-4.596874703111098e-07
256.0,-0.00027964223409071565
288.0,-0.0003077709407079965
320.0,0.00021920907602179796
352.0,6.052323442418128e-05
384.0,-8.226760837715119e-05
416.0,0.00021935970289632678
448.0,0.00013331176887732
480.0,-2.531155405449681e-05
512.0,-3.864361860905774e-05
576.0,0.00022765234461985528
640.0,0.0001607987651368603
704.0,-1.4622008166043088e-05
768.0,-8.188326319213957e-05
832.0,-8.77499405760318e-05
896.0,-7.928741251816973e-05
960.0,-1.4904997442499734e-05
1024.0,-0.00022359668218996376
1152.0,0.00014952027413528413
1280.0,-2.1926945919403806e-05
1408.0,-0.00014784255472477525
1536.0,-0.00018755112250801176
1664.0,6.703436520183459e-05
1792.0,-8.237979636760429e-05
1920.0,-0.00010896729509113356
2048.0,1.017689828586299e-05
2304.0,1.2790166010745452e-06
2560.0,-8.232334948843345e-05
2816.0,-3.289390588179231e-05
3072.0,-1.2875073480245192e-05
3328.0,-7.698230911046267e-05
3584.0,3.274694245192222e-05
3840.0,-0.00015051296213641763
4096.0,-0.0001285843172809109
4608.0,5.6172033509938046e-05
5120.0,2.475815017533023e-05
5632.0,8.793258894002065e-05
6144.0,2.9527740480261855e-05
6656.0,-4.70141603727825e-05
7168.0,-4.686420288635418e-05
7680.0,-0.00011115094093838707
8192.0,-2.1488820493686944e-05
9216.0,1.931527367560193e-05
10240.0,0.00017136914539150894
11264.0,5.45412658539135e-05
12288.0,-7.404264761134982e-05
13312.0,-0.00023077028163243085
14336.0,-0.00013763690367341042
end
