version,3.0
numOfCh,1
type,point
parent_name,1000-cuts
ch_type,1_1
kcount,1
numberNandB,1
brightnessNandB,1
carpet pos,0
pc,0
Time (ms),CH1 Auto-Correlation
1.0,0.01443715300410986
2.0,0.01103783305734396
3.0,0.00873043667525053
4.0,0.007095889188349247
5.0,0.00583932688459754
6.0,0.005014654714614153
7.0,0.004356682766228914
8.0,0.0037388168275356293
9.0,0.0031651402823626995
10.0,0.0027635302394628525
11.0,0.0023735137656331062
12.0,0.0019955276511609554
13.0,0.001677797525189817
14.0,0.0014547083992511034
15.0,0.0012162826023995876
16.0,0.0010277127148583531
18.0,0.0007779416046105325
20.0,0.00041596146184019744
22.0,0.0002472808409947902
24.0,0.00028154655592516065
26.0,0.0002953829534817487
28.0,0.00025578856002539396
30.0,0.00028780451975762844
32.0,0.000401497061830014
36.0,0.0005408294964581728
40.0,0.0006527305813506246
44.0,0.000573508208617568
48.0,0.0005075270310044289
52.0,0.00036568177165463567
56.0,0.000324162479955703
60.0,0.00045878696255385876
64.0,0.00040244869887828827
72.0,0.00035683257738128304
80.0,0.0005447787116281688
88.0,0.0003678735811263323
96.0,1.9320284991408698e-05
104.0,-0.0002587838680483401
112.0,0.0001566279388498515
120.0,0.00024019874399527907
128.0,0.00021562972688116133
144.0,0.00014581104915123433
160.0,6.451984972954961e-07
176.0,-7.789762457832694e-05
192.0,-0.0004084495594725013
208.0,-0.00017321929044555873
224.0,-4.949839785695076e-05
240.0,8.887301373761147e-05
256.0,7.85394586273469e-05
288.0,9.608228720026091e-05
320.0,-0.0002155504480469972
352.0,0.0001678256958257407
384.0,0.00024372046755161136
416.0,0.00024012831272557378
448.0,-6.187058897921816e-05
480.0,-7.221373380161822e-05
512.0,-0.000331299816025421
576.0,-5.797897983939038e-07
640.0,-0.00011071078188251704
704.0,0.00010090755677083507
768.0,0.0003194628225173801
832.0,0.00037111961864866316
896.0,-4.207734309602529e-05
960.0,6.234624743228778e-05
1024.0,-0.00022327584156300873
1152.0,0.0001858704345067963
1280.0,3.544565333868377e-05
1408.0,-0.00023826913093216717
1536.0,-2.6057186914840713e-06
1664.0,-0.0001578300289111212
1792.0,-3.53678478859365e-05
1920.0,2.6442347007105127e-05
2048.0,-2.5557499611750245e-05
2304.0,0.0002140946453437209
2560.0,4.297096893424168e-06
2816.0,-0.00014020632079336792
3072.0,8.174377580871806e-05
3328.0,0.0002126972540281713
3584.0,0.000166958081535995
3840.0,-0.00013069948181509972
4096.0,0.0001828548702178523
4608.0,-5.282883648760617e-05
5120.0,-0.00014109296898823231
5632.0,1.7031119568855502e-05
6144.0,-0.00011509952310007066
6656.0,2.3471297026844695e-05
7168.0,-0.00010958241182379425
7680.0,-0.0002025975554715842
8192.0,-0.00013016656157560647
9216.0,-7.088628626661375e-05
10240.0,-6.541379116242751e-05
11264.0,7.883912621764466e-05
12288.0,-9.748774755280465e-05
13312.0,-1.9276478269603103e-05
14336.0,0.00018966029165312648
end
