version,3.0
numOfCh,1
type,point
parent_name,1000-cuts
ch_type,1_1
kcount,1
numberNandB,1
brightnessNandB,1
carpet pos,0
pc,0
Time (ms),CH1 Auto-Correlation
1.0,0.014971889555454254
2.0,0.01146398764103651
3.0,0.009038659743964672
4.0,0.007183676119893789
5.0,0.005892080254852772
6.0,0.004925621673464775
7.0,0.004102060105651617
8.0,0.0033744529355317354
9.0,0.002849142998456955
10.0,0.0023760541807860136
11.0,0.001973724225535989
12.0,0.001681830734014511
13.0,0.001464117900468409
14.0,0.0013440074399113655
15.0,0.0012574313441291451
16.0,0.0011613845126703382
18.0,0.0007228567847050726
20.0,0.0004933345480822027
22.0,0.0003366410091985017
24.0,0.00022625652491115034
26.0,0.00022542133228853345
28.0,0.00034365360625088215
30.0,0.0003564814105629921
32.0,0.00027539842994883657
36.0,8.752790745347738e-05
40.0,1.7129446860053577e-05
44.0,-0.00023806423996575177
48.0,-0.00011846782581415027
52.0,-1.1481130968604703e-05
56.0,0.00033390699536539614
60.0,0.0004383267369121313
64.0,0.00026198860723525286
72.0,-0.00010687216854421422
80.0,-0.0002516864624340087
88.0,6.792258500354365e-05
96.0,3.445099719101563e-05
104.0,4.7482164518442005e-05
112.0,-6.684884738206165e-06
120.0,-0.00022195676865521818
128.0,-0.0005922316340729594
144.0,-0.00025979691417887807
160.0,-3.298750743851997e-05
176.0,6.784112338209525e-05
192.0,0.00018059604917652905
208.0,0.000500317313708365
224.0,0.0003932135587092489
240.0,6.341893458738923e-05
256.0,-8.80689694895409e-05
288.0,-0.00010029775876319036
320.0,0.0001826753723435104
352.0,0.00013490898709278554
384.0,-0.0001422271889168769
416.0,0.00012160750338807702
448.0,0.00012806682207155973
480.0,-6.906953785801306e-05
512.0,9.200486238114536e-05
576.0,4.1595798393245786e-05
640.0,-3.558860407792963e-05
704.0,-0.00016473684809170663
768.0,-0.00011374656605767086
832.0,-8.917326340451837e-05
896.0,-0.0001264050806639716
960.0,-5.3268970077624545e-05
1024.0,-9.412860526936129e-05
1152.0,-3.592092252802104e-05
1280.0,-4.6569708501920104e-05
1408.0,-3.375934102223255e-05
1536.0,0.00015886758046690375
1664.0,-0.00015883335436228663
1792.0,-0.00015940939192660153
1920.0,-0.0001425405644113198
2048.0,-8.666628855280578e-05
2304.0,-6.046962516847998e-05
2560.0,-1.1731309314200189e-05
2816.0,-2.1155001377337612e-05
3072.0,-1.182099094876321e-05
3328.0,4.202181662549265e-05
3584.0,9.830613635131158e-06
3840.0,-9.448727359995246e-05
4096.0,-9.839255653787404e-05
4608.0,0.00016530121502000839
5120.0,-4.2714906157925725e-05
5632.0,-6.594174919882789e-05
6144.0,0.00010079165804199874
6656.0,-4.228624311508611e-05
7168.0,-7.887497486080974e-05
7680.0,0.00011062300472985953
8192.0,0.00014225326594896615
9216.0,-5.013298141420819e-05
10240.0,-8.10225319582969e-05
11264.0,-5.258930832496844e-05
12288.0,0.0001119360385928303
13312.0,4.61004237877205e-05
14336.0,-4.2167823266936466e-05
end
