version,3.0
numOfCh,1
type,point
parent_name,1000-cuts
ch_type,1_1
kcount,1
numberNandB,1
brightnessNandB,1
carpet pos,0
pc,0
Time (ms),CH1 Auto-Correlation
1.0,0.02524898201227188
2.0,0.019515223801136017
3.0,0.015583805739879608
4.0,0.012841214425861835
5.0,0.010849988088011742
6.0,0.009157889522612095
7.0,0.0076486486941576
8.0,0.006709427107125521
9.0,0.005824236664921045
10.0,0.005097347777336836
11.0,0.004404372535645962
12.0,0.0036162470933049917
13.0,0.0029194012749940157
14.0,0.0028769627679139376
15.0,0.002527229953557253
16.0,0.002304814523085952
18.0,0.001591476146131754
20.0,0.0010576358763501048
22.0,0.0009025941253639758
24.0,0.0009274547919631004
26.0,0.0012576866429299116
28.0,0.0012890181969851255
30.0,0.001222554943524301
32.0,0.000854268844705075
36.0,0.0004530885489657521
40.0,0.0006794965593144298
44.0,0.0007041599601507187
48.0,0.0006043179309926927
52.0,0.0003184356610290706
56.0,0.0005851442692801356
60.0,0.000756101100705564
64.0,0.0009869388304650784
72.0,0.0008426569402217865
80.0,0.0006027072668075562
88.0,0.000576092628762126
96.0,0.00014393249875865877
104.0,0.0006369060138240457
112.0,0.0005470110918395221
120.0,0.00024385013966821134
128.0,-0.0004980460507795215
144.0,0.0003876366245094687
160.0,-0.0002968662010971457
176.0,-0.0007381569012068212
192.0,0.00035864338860847056
208.0,0.0005015846691094339
224.0,-0.00042548877536319196
240.0,4.642325802706182e-05
256.0,0.00031246294383890927
288.0,0.00010231671330984682
320.0,-3.7235120544210076e-05
352.0,-0.0001550459273857996
384.0,0.00013471201236825436
416.0,-0.00018255987379234284
448.0,-0.00017357766046188772
480.0,5.345942918211222e-05
512.0,-0.0005459515377879143
576.0,-0.0003563252103049308
640.0,0.0002555366954766214
704.0,0.0003309136372990906
768.0,-4.3013533286284655e-06
832.0,0.0003303374978713691
896.0,0.000130384141812101
960.0,0.0003537129668984562
1024.0,0.00013249274343252182
1152.0,0.0003994119761046022
1280.0,0.0005323947407305241
1408.0,-0.00039502469007857144
1536.0,0.00014408589049708098
1664.0,0.0002029903553193435
1792.0,-0.0002534424711484462
1920.0,-0.00028705730801448226
2048.0,-0.00014029994781594723
2304.0,-9.243453678209335e-05
2560.0,-0.0004537393688224256
2816.0,4.806566721526906e-05
3072.0,-9.481782763032243e-05
3328.0,-0.0003686430281959474
3584.0,-0.0004335361300036311
3840.0,0.00021414220100268722
4096.0,-6.898972060298547e-05
4608.0,7.134548013709718e-06
5120.0,-4.580980748869479e-05
5632.0,0.0002939165278803557
6144.0,-0.000297524849884212
6656.0,0.0002252975245937705
7168.0,0.0001245285093318671
7680.0,-6.0671351093333215e-05
8192.0,0.0003912326064892113
9216.0,-8.243444608524442e-05
10240.0,-0.00031045349896885455
11264.0,-0.00018565673963166773
12288.0,-2.8315602321526967e-05
13312.0,0.00012896695989184082
14336.0,-0.00012652525037992746
end
