version,3.0
numOfCh,1
type,point
parent_name,1000-cuts
ch_type,1_1
kcount,1
numberNandB,1
brightnessNandB,1
carpet pos,0
pc,0
Time (ms),CH1 Auto-Correlation
1.0,0.014499668963253498
2.0,0.011113212443888187
3.0,0.00881662406027317
4.0,0.007122471928596497
5.0,0.005842895247042179
6.0,0.004885843489319086
7.0,0.004286607261747122
8.0,0.003818502649664879
9.0,0.0034394708927720785
10.0,0.003161654807627201
11.0,0.0027686709072440863
12.0,0.0023809887934476137
13.0,0.0020418327767401934
14.0,0.0017594990786165
15.0,0.001539707533083856
16.0,0.001370575511828065
18.0,0.0010497883195057511
20.0,0.000998964416794479
22.0,0.0008462982950732112
24.0,0.00046629749704152346
26.0,0.0001633432402741164
28.0,1.0905597264354583e-05
30.0,3.764985012821853e-05
32.0,2.525566378608346e-05
36.0,-0.00037615917972289026
40.0,-0.0001756628043949604
44.0,-0.0001839093310991302
48.0,-2.8786696475435747e-06
52.0,-0.00013858798774890602
56.0,-0.00017094993381761014
60.0,0.00024518530699424446
64.0,0.00019937450997531414
72.0,0.0001763875043252483
80.0,-8.611803059466183e-05
88.0,-0.0006208342383615673
96.0,-0.0005416954518295825
104.0,-0.0006203123484738171
112.0,-0.0004618050588760525
120.0,-0.0004281224391888827
128.0,-0.0004400470061227679
144.0,-4.8994177632266656e-05
160.0,0.00023973325733095407
176.0,2.4058304916252382e-05
192.0,0.0006005545146763325
208.0,0.0005661255563609302
224.0,0.00017709098756313324
240.0,0.00021540731540881097
256.0,0.00020035869965795428
288.0,-1.6695210433681495e-05
320.0,8.99934457265772e-06
352.0,0.0002257025771541521
384.0,9.500869055045769e-05
416.0,0.0002147127379430458
448.0,-0.0002792739251162857
480.0,0.00035890311119146645
512.0,-2.353874151594937e-05
576.0,3.802735955105163e-05
640.0,-4.979751611244865e-05
704.0,-0.00012067551142536104
768.0,-5.714720828109421e-05
832.0,-2.1257979824440554e-05
896.0,2.24677369260462e-05
960.0,0.000139370808028616
1024.0,3.812328941421583e-05
1152.0,0.0002739338669925928
1280.0,-9.237735503120348e-05
1408.0,0.00013407702499534935
1536.0,0.00010557596397120506
1664.0,-0.00011341643403284252
1792.0,-0.00022778678976465017
1920.0,-0.00015997103764675558
2048.0,-4.8588211939204484e-05
2304.0,0.0001725933252600953
2560.0,0.0001688748598098755
2816.0,2.0572988432832062e-05
3072.0,-0.00011454195191618055
3328.0,4.635769437300041e-05
3584.0,2.4796068828436546e-05
3840.0,0.0001559626980451867
4096.0,-0.00015405727026518434
4608.0,2.5616107450332493e-05
5120.0,4.363313564681448e-05
5632.0,-0.0001657535758567974
6144.0,-6.190878775669262e-05
6656.0,-0.00020168021728750318
7168.0,2.8650967578869313e-05
7680.0,5.5279542721109465e-05
8192.0,-7.568200817331672e-05
9216.0,-6.916337588336319e-05
10240.0,2.284081347170286e-05
11264.0,-4.383935083751567e-05
12288.0,1.4830680811428465e-05
13312.0,-2.0538445824058726e-05
14336.0,-6.754980131518096e-05
end
