version,3.0
numOfCh,1
type,point
parent_name,1000-cuts
ch_type,1_1
kcount,1
numberNandB,1
brightnessNandB,1
carpet pos,0
pc,0
Time (ms),CH1 Auto-Correlation
1.0,0.023704590275883675
2.0,0.018018178641796112
3.0,0.014088441617786884
4.0,0.01137160137295723
5.0,0.00941359344869852
6.0,0.007854504510760307
7.0,0.0064300838857889175
8.0,0.005532708950340748
9.0,0.004694289527833462
10.0,0.004145483486354351
11.0,0.0037184911780059338
12.0,0.0033606106881052256
13.0,0.002905984176322818
14.0,0.0025300036650151014
15.0,0.002378876321017742
16.0,0.0021733727771788836
18.0,0.0018371513579040766
20.0,0.0013327815104275942
22.0,0.0007194195641204715
24.0,0.00017520597612019628
26.0,0.00016770245565567166
28.0,0.00027309052529744804
30.0,-0.0001974339538719505
32.0,-0.00015849513874854892
36.0,6.302708061411977e-05
40.0,0.00010189088789047673
44.0,0.0004634291399270296
48.0,0.00033899128902703524
52.0,0.0002824254333972931
56.0,1.4273028682509903e-05
60.0,0.0003771400370169431
64.0,0.0006439475691877306
72.0,2.8219861633260734e-05
80.0,-0.0003209452552255243
88.0,-0.00043038054718635976
96.0,-0.0003989844990428537
104.0,-5.2825100283371285e-05
112.0,3.162685607094318e-05
120.0,0.0002068406029138714
128.0,0.0005895171780139208
144.0,0.0003626602119766176
160.0,-9.100192983169109e-05
176.0,0.000243057802435942
192.0,0.000626560824457556
208.0,0.0006212173029780388
224.0,0.0005108341574668884
240.0,-0.0004951985320076346
256.0,-0.0007307294872589409
288.0,-0.0005312935682013631
320.0,-0.0001285736943827942
352.0,-8.11876670923084e-05
384.0,0.0002885105786845088
416.0,0.0001540394441690296
448.0,-0.00011141645518364385
480.0,-0.0003703779657371342
512.0,0.0002280708431499079
576.0,0.00019255651568528265
640.0,-0.0004366074863355607
704.0,2.124284401361365e-05
768.0,0.0001946211268659681
832.0,0.00010212577763013542
896.0,0.0003377879911568016
960.0,0.00017240266606677324
1024.0,9.464885079069063e-05
1152.0,0.00023613506346009672
1280.0,-0.00024971511447802186
1408.0,-0.0005194861441850662
1536.0,-3.966002259403467e-05
1664.0,9.769350435817614e-05
1792.0,-1.2257959497219417e-05
1920.0,0.00035732865217141807
2048.0,5.058922397438437e-05
2304.0,-0.00015584504581056535
2560.0,0.00010587124415906146
2816.0,0.000119858916150406
3072.0,6.527268851641566e-05
3328.0,-9.738731750985608e-05
3584.0,0.00022798684949520975
3840.0,-4.57593887404073e-05
4096.0,-7.619954703841358e-05
4608.0,-1.1001712664437946e-05
5120.0,-8.564994641346857e-05
5632.0,-0.000281613232800737
6144.0,-5.713593782274984e-05
6656.0,-2.880266765714623e-05
7168.0,-1.2378840438032057e-05
7680.0,-0.00011608943896135315
8192.0,-3.546089646988548e-05
9216.0,-0.00018718412320595235
10240.0,-8.882425754563883e-05
11264.0,0.0002990130742546171
12288.0,-0.00031919105094857514
13312.0,-1.6007874364731833e-05
14336.0,0.0005368132260628045
end
