version,3.0
numOfCh,1
type,point
parent_name,1000-cuts
ch_type,1_1
kcount,1
numberNandB,1
brightnessNandB,1
carpet pos,0
pc,0
Time (ms),CH1 Auto-Correlation
1.0,0.014894459396600723
2.0,0.011486852541565895
3.0,0.009114732034504414
4.0,0.007350889965891838
5.0,0.006091834045946598
6.0,0.005284867715090513
7.0,0.0044184960424900055
8.0,0.00373787060379982
9.0,0.0030779282096773386
10.0,0.002629287773743272
11.0,0.0023161782883107662
12.0,0.0018440004205331206
13.0,0.00148069451097399
14.0,0.0011248489608988166
15.0,0.0009311824687756598
16.0,0.0006355040241032839
18.0,0.0003207774425391108
20.0,1.701209112070501e-05
22.0,-4.357248326414265e-05
24.0,-0.00015254016034305096
26.0,-0.0003242942621000111
28.0,-0.0003270549641456455
30.0,-0.00031287866295315325
32.0,-0.000277048529824242
36.0,-0.00021913365344516933
40.0,-0.00026541086845099926
44.0,-0.00030482554575428367
48.0,-0.0002680936304386705
52.0,-0.00027793418848887086
56.0,-0.00014491761976387352
60.0,0.0001796777214622125
64.0,0.00013158301590010524
72.0,2.171154301322531e-05
80.0,-0.00011054988135583699
88.0,0.00013304197636898607
96.0,1.0100100553245284e-05
104.0,-7.558667857665569e-05
112.0,0.0002577368577476591
120.0,0.000396508228732273
128.0,6.16519246250391e-05
144.0,-0.00048761966172605753
160.0,-0.000189924641745165
176.0,0.00019062717910856009
192.0,-0.0002924435830209404
208.0,0.0002581074950285256
224.0,0.0003006158513016999
240.0,5.627462815027684e-05
256.0,-6.5279942646157e-05
288.0,-0.00011478219676064327
320.0,-2.0293733541620895e-05
352.0,-4.4973945477977395e-05
384.0,6.09808303124737e-05
416.0,-0.00010175663919653744
448.0,0.00034377333940938115
480.0,-0.0002599919680505991
512.0,-0.0004299935244489461
576.0,3.6833396734436974e-05
640.0,5.24943334312411e-06
704.0,-0.00031690497417002916
768.0,-0.00019893179705832154
832.0,5.468983363243751e-05
896.0,0.00018264853861182928
960.0,0.00024335866328328848
1024.0,0.00015246316615957767
1152.0,5.9337151469662786e-05
1280.0,-1.2116321158828214e-05
1408.0,-2.2175925550982356e-05
1536.0,9.240640792995691e-06
1664.0,-0.00014680498861707747
1792.0,-2.7483765734359622e-05
1920.0,-7.42845149943605e-05
2048.0,-8.338058250956237e-05
2304.0,6.302124529611319e-05
2560.0,0.0001824520732043311
2816.0,-1.8426952010486275e-05
3072.0,-0.0001961606030818075
3328.0,-4.0958890167530626e-05
3584.0,7.382415060419589e-05
3840.0,-6.706441490678117e-05
4096.0,-0.00011434935731813312
4608.0,5.613688699668273e-06
5120.0,0.00010119078797288239
5632.0,-5.9411991969682276e-05
6144.0,8.486476144753397e-05
6656.0,-7.713152444921434e-05
7168.0,0.00012082300236215815
7680.0,6.991154077695683e-05
8192.0,-6.231037696124986e-05
9216.0,-1.49162142406567e-05
10240.0,-6.10431607128703e-06
11264.0,-5.1249389798613265e-05
12288.0,-3.5041415685554966e-05
13312.0,-4.6865046897437423e-05
14336.0,0.00011330378765705973
end
