version,3.0
numOfCh,1
type,point
parent_name,1000-cuts
ch_type,1_1
kcount,1
numberNandB,1
brightnessNandB,1
carpet pos,0
pc,0
Time (ms),CH1 Auto-Correlation
1.0,0.025273708626627922
2.0,0.019629143178462982
3.0,0.015576702542603016
4.0,0.012694292701780796
5.0,0.01069762371480465
6.0,0.009252103045582771
7.0,0.008196045644581318
8.0,0.0072578126564621925
9.0,0.006531810853630304
10.0,0.0058457753621041775
11.0,0.005423035938292742
12.0,0.004992832895368338
13.0,0.004534597042948008
14.0,0.003929584752768278
15.0,0.0035613172221928835
16.0,0.0032888497225940228
18.0,0.002709924941882491
20.0,0.002168371807783842
22.0,0.0016943520167842507
24.0,0.0012458054115995765
26.0,0.000945091771427542
28.0,0.000779011461418122
30.0,0.0006250045262277126
32.0,0.0003773438511416316
36.0,0.00018232583533972502
40.0,4.6920871682232246e-05
44.0,0.0002756887988653034
48.0,-0.0001683450536802411
52.0,-0.0006283549591898918
56.0,-0.0004989700973965228
60.0,-0.0009986464865505695
64.0,-0.0010906436946243048
72.0,-0.0014964619185775518
80.0,-0.001604907214641571
88.0,-0.001331427483819425
96.0,-0.0006810449995100498
104.0,0.00019256715313531458
112.0,-0.00015232028090395033
120.0,0.00014078123786021024
128.0,0.00048186304047703743
144.0,0.000401083700126037
160.0,0.0003446717746555805
176.0,-0.00013750272046308964
192.0,-0.0002590680669527501
208.0,0.0003198903286829591
224.0,7.965495024109259e-05
240.0,-0.00019379594596102834
256.0,-0.00022579195501748472
288.0,0.0009346387232653797
320.0,-6.206495891092345e-05
352.0,0.0001739996951073408
384.0,-0.000391744717489928
416.0,-0.00016717833932489157
448.0,0.00016235988005064428
480.0,0.00036548066418617964
512.0,-5.532781142392196e-05
576.0,-3.7167799746384844e-05
640.0,-0.0007887138635851443
704.0,0.00030869102920405567
768.0,2.111380672431551e-05
832.0,0.0001078096465789713
896.0,-0.00010613946506055072
960.0,-8.817491470836103e-05
1024.0,-0.00034498178865760565
1152.0,0.0001231702190125361
1280.0,7.071542495395988e-05
1408.0,0.0003441293374635279
1536.0,3.144026777590625e-05
1664.0,5.648520527756773e-06
1792.0,0.00013185116404201835
1920.0,-0.0002668570086825639
2048.0,-0.0002835289342328906
2304.0,-0.00012693213648162782
2560.0,0.00022196039208211005
2816.0,-3.3299176720902324e-05
3072.0,0.0001783151092240587
3328.0,0.00013956381008028984
3584.0,-0.0001463468506699428
3840.0,0.0001757119025569409
4096.0,-9.599679469829425e-05
4608.0,-0.00010500296048121527
5120.0,-5.039654570282437e-05
5632.0,-0.00019021959451492876
6144.0,-4.5288234105100855e-05
6656.0,-8.985152817331254e-05
7168.0,-4.661974890041165e-05
7680.0,-0.00019331948715262115
8192.0,0.0001153472694568336
9216.0,4.6647914132336155e-05
10240.0,-7.685190939810127e-05
11264.0,0.0001750611118040979
12288.0,2.163487624784466e-05
13312.0,-8.628903015051037e-05
14336.0,0.000220746936975047
end
