version,3.0
numOfCh,1
type,point
parent_name,1000-cuts
ch_type,1_1
kcount,1
numberNandB,1
brightnessNandB,1
carpet pos,0
pc,0
Time (ms),CH1 Auto-Correlation
1.0,0.026028502732515335
2.0,0.020470980554819107
3.0,0.016622086986899376
4.0,0.013875996693968773
5.0,0.011477138847112656
6.0,0.009668794460594654
7.0,0.008149513974785805
8.0,0.006941600237041712
9.0,0.0057927644811570644
10.0,0.004807841032743454
11.0,0.004041649401187897
12.0,0.003483237698674202
13.0,0.002856107661500573
14.0,0.0024924264289438725
15.0,0.0021315235644578934
16.0,0.0017696511931717396
18.0,0.001268992549739778
20.0,0.000880445062648505
22.0,0.0005305203376337886
24.0,4.094806718057953e-05
26.0,-0.00035537604708224535
28.0,-0.0007124683470465243
30.0,-0.0008350353455170989
32.0,-0.0007883096113801003
36.0,-0.000707049563061446
40.0,-0.0004744919133372605
44.0,-0.0004531626182142645
48.0,-0.0005329368286766112
52.0,-2.7374768251320347e-05
56.0,-0.00010528312850510702
60.0,-0.00012540853640530258
64.0,0.0002130807697540149
72.0,0.0007230754126794636
80.0,0.0009329664753749967
88.0,-0.00016489141853526235
96.0,-0.0015669254353269935
104.0,-0.001257232390344143
112.0,-0.0016017947345972061
120.0,-0.001853009220212698
128.0,-0.0008935330552048981
144.0,0.0001571866887388751
160.0,6.171852146508172e-05
176.0,0.00020731124095618725
192.0,0.000675040646456182
208.0,-0.0001237384567502886
224.0,0.00017821470100898296
240.0,0.0002267516974825412
256.0,-0.00022303314472083002
288.0,3.438985368120484e-05
320.0,-7.677284884266555e-05
352.0,0.0001614500069990754
384.0,-9.694261098047718e-05
416.0,-0.00028215840575285256
448.0,0.00028719776310026646
480.0,-0.0005129199125804007
512.0,-0.0003647120320238173
576.0,-0.0006261267117224634
640.0,-0.00028509850380942225
704.0,0.00045226310612633824
768.0,0.0003198650083504617
832.0,-0.00015895032265689224
896.0,-0.00020275697170291096
960.0,0.0001833731512306258
1024.0,6.202185613801703e-05
1152.0,-8.555145905120298e-05
1280.0,5.7273504353361204e-05
1408.0,-7.905041275080293e-05
1536.0,0.0001305522455368191
1664.0,0.00014697646838612854
1792.0,-0.00019979834905825555
1920.0,0.00040774091030471027
2048.0,-6.721163663314655e-05
2304.0,3.125753573840484e-05
2560.0,-8.176569099305198e-05
2816.0,-0.000149591316585429
3072.0,-1.746826274029445e-05
3328.0,5.705196599592455e-05
3584.0,2.4201319320127368e-05
3840.0,0.0001418851170456037
4096.0,-0.00010701657447498292
4608.0,-0.00012321646499913186
5120.0,-3.788813774008304e-05
5632.0,5.004603008273989e-05
6144.0,6.481675882241689e-06
6656.0,-7.626746810274199e-05
7168.0,-2.9025086405454203e-05
7680.0,0.00013832504919264466
8192.0,-4.973576506017707e-05
9216.0,1.5631223504897207e-05
10240.0,1.9466535377432592e-05
11264.0,-6.861876954644686e-06
12288.0,-8.731463458389044e-05
13312.0,3.7268741834850516e-06
14336.0,-7.838800956960768e-05
end
