version,3.0
numOfCh,1
type,point
parent_name,1000-cuts
ch_type,1_1
kcount,1
numberNandB,1
brightnessNandB,1
carpet pos,0
pc,0
Time (ms),CH1 Auto-Correlation
1.0,0.025858009234070778
2.0,0.019834429025650024
3.0,0.015548497438430786
4.0,0.012461367063224316
5.0,0.010130545124411583
6.0,0.008471278473734856
7.0,0.00739243533462286
8.0,0.0063573517836630344
9.0,0.005384947173297405
10.0,0.004478709772229195
11.0,0.0039801765233278275
12.0,0.003398553468286991
13.0,0.003024236997589469
14.0,0.002817245665937662
15.0,0.0024974392727017403
16.0,0.0022641171235591173
18.0,0.0020713594276458025
20.0,0.0013689122861251235
22.0,0.000984686310403049
24.0,0.0007892848225310445
26.0,0.0007828976376913488
28.0,0.0009394265944138169
30.0,0.0009284515981562436
32.0,0.0009151577833108604
36.0,0.0008094008662737906
40.0,0.0007462853100150824
44.0,0.0004051248251926154
48.0,0.00015242336667142808
52.0,-0.0003132265992462635
56.0,2.8901102268719114e-05
60.0,-0.00010674630902940407
64.0,-0.00035179711994715035
72.0,-0.0006047537317499518
80.0,-0.0009080581949092448
88.0,-0.0007955559995025396
96.0,-0.0010656617814674973
104.0,-0.0003664216201286763
112.0,-3.2703432225389406e-05
120.0,9.197514737024903e-05
128.0,-0.0001770692178979516
144.0,0.0009909626096487045
160.0,0.0004419843025971204
176.0,0.00013779492292087525
192.0,-2.8818998544011265e-05
208.0,-8.41251021483913e-05
224.0,-4.058937975059962e-06
240.0,-0.0003559370234142989
256.0,0.0004327678179834038
288.0,3.3212912967428565e-05
320.0,0.00015634822193533182
352.0,-2.6326995794079266e-05
384.0,0.0007629719912074506
416.0,2.564179158071056e-05
448.0,-7.226201705634594e-05
480.0,-0.00027918527484871447
512.0,-0.0005008437437936664
576.0,0.00013226992450654507
640.0,-3.229613503208384e-05
704.0,-0.0005228144000284374
768.0,0.00048515546950511634
832.0,-5.744143891206477e-06
896.0,-0.00029950603493489325
960.0,0.00016809246153570712
1024.0,-0.00020690799283329397
1152.0,-0.00032040319638326764
1280.0,0.00012026972399326041
1408.0,-0.00018103516777046025
1536.0,-0.0003095778520219028
1664.0,0.00016959200729615986
1792.0,-4.877463652519509e-06
1920.0,-8.078364044195041e-05
2048.0,-1.5080324374139309e-05
2304.0,-5.250017420621589e-05
2560.0,8.107632311293855e-06
2816.0,0.00019950392015744
3072.0,9.076626156456769e-05
3328.0,-0.00010407845547888428
3584.0,-0.00015817703388165683
3840.0,-5.955686356173828e-05
4096.0,-0.00015350632020272315
4608.0,-7.20537718734704e-05
5120.0,9.459136344958097e-05
5632.0,-3.081939576077275e-05
6144.0,-1.0298688721377403e-05
6656.0,-0.00020719540771096945
7168.0,-0.00013407075311988592
7680.0,4.4610507757170126e-05
8192.0,0.00019501840870361775
9216.0,-0.000116656010504812
10240.0,0.00010702145664254203
11264.0,6.556203152285889e-05
12288.0,-0.0001323334436165169
13312.0,0.00028082530479878187
14336.0,-0.00021145286154933274
end
