version,3.0
numOfCh,1
type,point
parent_name,1000-cuts
ch_type,1_1
kcount,1
numberNandB,1
brightnessNandB,1
carpet pos,0
pc,0
Time (ms),CH1 Auto-Correlation
1.0,0.014597850851714611
2.0,0.011018392629921436
3.0,0.00862327590584755
4.0,0.006979867350310087
5.0,0.005644987802952528
6.0,0.004647006280720234
7.0,0.003819176694378257
8.0,0.0031326026655733585
9.0,0.0026832951698452234
10.0,0.0023587369360029697
11.0,0.0021151562687009573
12.0,0.0019823522306978703
13.0,0.0017707336228340864
14.0,0.001548565342091024
15.0,0.0013547394191846251
16.0,0.001265461090952158
18.0,0.0009203118388541043
20.0,0.0006108380621299148
22.0,0.0004927021800540388
24.0,0.00035582424607127905
26.0,0.00033724005334079266
28.0,-5.103122384753078e-05
30.0,-0.00015783385606482625
32.0,-0.00012451937072910368
36.0,5.114131636219099e-05
40.0,0.00018070351507049054
44.0,0.00032710673986002803
48.0,0.0004010154807474464
52.0,-0.0002777102345135063
56.0,0.00014145582099445164
60.0,0.00030403403798118234
64.0,3.878053757944144e-05
72.0,-0.0003636264009401202
80.0,-0.0004262754519004375
88.0,-0.00013107169070281088
96.0,0.0002405188570264727
104.0,-0.00017524478607811034
112.0,-0.00020232066162861884
120.0,-0.00010777028364827856
128.0,-3.5003213270101696e-05
144.0,-0.00012421874271240085
160.0,0.000315667042741552
176.0,-0.00040157721377909184
192.0,-0.00035928262514062226
208.0,5.275605508359149e-05
224.0,0.00037345243617892265
240.0,0.0005172636592760682
256.0,9.0198234829586e-05
288.0,-9.382869029650465e-05
320.0,-0.00018959086446557194
352.0,-8.510133193340153e-05
384.0,0.000105799495941028
416.0,-3.9376551285386086e-05
448.0,-0.00014333038416225463
480.0,-0.0003683686663862318
512.0,-6.602831126656383e-05
576.0,-0.00010277000546921045
640.0,-6.0736383602488786e-05
704.0,-7.872968126321211e-05
768.0,-0.00018796001677401364
832.0,5.310199048835784e-05
896.0,0.00010346671479055658
960.0,8.211247040890157e-05
1024.0,-0.00012224420788697898
1152.0,-1.3945664250059053e-05
1280.0,-2.270456934638787e-05
1408.0,2.0144572772551328e-05
1536.0,-0.00018382434791419655
1664.0,0.0002521572168916464
1792.0,4.4393451389623806e-05
1920.0,-0.00012077976134605706
2048.0,-6.500812742160633e-05
2304.0,-0.00014369886775966734
2560.0,6.253875471884385e-05
2816.0,4.243906732881442e-05
3072.0,-7.06740902387537e-05
3328.0,6.165886588860303e-05
3584.0,-7.334128895308822e-05
3840.0,-4.697506665252149e-05
4096.0,0.00011075709335273132
4608.0,4.287025149096735e-05
5120.0,3.6345256376080215e-05
5632.0,-3.06315632769838e-05
6144.0,2.8699372705887072e-05
6656.0,7.218951941467822e-05
7168.0,-5.04887975694146e-05
7680.0,-1.6303045413224027e-05
8192.0,-1.1799787898780778e-05
9216.0,3.800344347837381e-05
10240.0,7.632340384589043e-06
11264.0,-2.1794126951135695e-05
12288.0,-2.5660005121608265e-05
13312.0,-2.5225501303793862e-05
14336.0,3.435066173551604e-05
end
