version,3.0
numOfCh,1
type,point
parent_name,1000-cuts
ch_type,1_1
kcount,1
numberNandB,1
brightnessNandB,1
carpet pos,0
pc,0
Time (ms),CH1 Auto-Correlation
1.0,0.013993904925882816
2.0,0.010585373267531395
3.0,0.008370057679712772
4.0,0.0067389532923698425
5.0,0.00553266704082489
6.0,0.004693717695772648
7.0,0.0039528608322143555
8.0,0.003386944765225053
9.0,0.0028353536035865545
10.0,0.0024516109842807055
11.0,0.0022182068787515163
12.0,0.0019233176717534661
13.0,0.0017197562847286463
14.0,0.0015612797578796744
15.0,0.0013608552981168032
16.0,0.0012343247653916478
18.0,0.0010827076621353626
20.0,0.0010006905067712069
22.0,0.0009002263541333377
24.0,0.0006274419720284641
26.0,0.00041315495036542416
28.0,0.00026423961389809847
30.0,0.0001414008584106341
32.0,-0.000209670455660671
36.0,-0.0003638820780906826
40.0,-0.00040805363096296787
44.0,-0.0003119888133369386
48.0,0.00013211810437496752
52.0,0.00012746451830025762
56.0,4.897938924841583e-05
60.0,1.424266883987002e-05
64.0,-0.00035099484375678003
72.0,-5.0770107918651775e-05
80.0,-4.4058062485419214e-05
88.0,-0.0003218712517991662
96.0,-0.000254851154750213
104.0,7.127171556930989e-05
112.0,2.720913016673876e-06
120.0,-0.00012664143287111074
128.0,-0.00027171376859769225
144.0,0.00028068997198715806
160.0,-0.00018507592903915793
176.0,-0.0003034127876162529
192.0,-0.00014321676280815154
208.0,-0.00017763687355909497
224.0,4.0931598050519824e-05
240.0,3.312888657092117e-05
256.0,5.166797564015724e-05
288.0,-2.661468170117587e-05
320.0,-0.00010264663433190435
352.0,-0.0002521661517675966
384.0,-0.0003209735150448978
416.0,-0.0002821842208504677
448.0,-4.529903526417911e-05
480.0,0.0002630207745824009
512.0,0.0003418410196900368
576.0,-8.188795618480071e-05
640.0,-6.949257658561692e-05
704.0,-0.0002261081535834819
768.0,7.228440517792478e-05
832.0,-0.00014443988038692623
896.0,-0.00013590457092504948
960.0,-0.00020786166714970022
1024.0,-9.553731069900095e-05
1152.0,-8.98205180419609e-05
1280.0,9.220911306329072e-05
1408.0,9.561304068483878e-06
1536.0,0.0001454473822377622
1664.0,4.895470920018852e-05
1792.0,0.0002692339476197958
1920.0,-0.00036112908856011927
2048.0,-4.00514982175082e-05
2304.0,-6.003165981383063e-05
2560.0,-5.955462711426662e-06
2816.0,3.802496212301776e-05
3072.0,9.46812579059042e-05
3328.0,-6.858693086542189e-05
3584.0,-5.734636215493083e-05
3840.0,4.1114792111329734e-05
4096.0,0.0001262930891243741
4608.0,-7.272617949638516e-05
5120.0,-1.827276037147385e-07
5632.0,5.626789788948372e-05
6144.0,-0.0001010606501949951
6656.0,-8.017250365810469e-05
7168.0,0.0001164604545920156
7680.0,7.789717346895486e-05
8192.0,-4.2511073843343183e-05
9216.0,-6.226857658475637e-05
10240.0,4.407527740113437e-06
11264.0,8.965229790192097e-05
12288.0,-7.514370372518897e-05
13312.0,-5.5055079428711906e-05
14336.0,0.00011992920190095901
end
