version,3.0
numOfCh,1
type,point
parent_name,1000-cuts
ch_type,1_1
kcount,1
numberNandB,1
brightnessNandB,1
carpet pos,0
pc,0
Time (ms),CH1 Auto-Correlation
1.0,0.01559176854789257
2.0,0.0120532913133502
3.0,0.00959404744207859
4.0,0.007723027840256691
5.0,0.006265200208872557
6.0,0.005223619751632214
7.0,0.004494912456721067
8.0,0.0038384203799068928
9.0,0.0031830209773033857
10.0,0.002716509159654379
11.0,0.00229170941747725
12.0,0.001960058230906725
13.0,0.0017282081535086036
14.0,0.0015497554559260607
15.0,0.0015077916905283928
16.0,0.0014932150952517986
18.0,0.0012249295832589269
20.0,0.0009450644720345736
22.0,0.000738082395400852
24.0,0.0006064967019483447
26.0,0.0005716829909943044
28.0,0.0003807077300734818
30.0,0.00036735672620125115
32.0,0.00039004304562695324
36.0,0.0002824234834406525
40.0,0.00015531863027717918
44.0,-2.6066145437653176e-05
48.0,-0.00020971063349861652
52.0,-0.00025436494615860283
56.0,-0.00010427227971376851
60.0,-0.0002830122539307922
64.0,-0.00025250460021197796
72.0,0.0003071454702876508
80.0,0.00019494473235681653
88.0,0.0003079425951000303
96.0,0.0008673798874951899
104.0,0.0008219273295253515
112.0,0.0005609097424894571
120.0,5.385171971283853e-05
128.0,5.3019426559330896e-05
144.0,7.843483035685495e-05
160.0,3.496024146443233e-05
176.0,0.0002257866581203416
192.0,-9.999663598136976e-05
208.0,-0.00010293129889760166
224.0,-0.0002183679462177679
240.0,-7.016450399532914e-05
256.0,-0.00036494655068963766
288.0,-0.00032192684011533856
320.0,0.00011291525152046233
352.0,0.0001968192809727043
384.0,0.00012507780047599226
416.0,-0.00016231297922786325
448.0,-0.00018535417621023953
480.0,-8.335990423802286e-05
512.0,-5.107745892019011e-05
576.0,-6.768281309632584e-05
640.0,-7.578518761874875e-06
704.0,-5.529092231881805e-05
768.0,-0.00014434238255489618
832.0,-4.841719419346191e-05
896.0,-0.00036947900662198663
960.0,-0.00016242948186118156
1024.0,9.28279769141227e-05
1152.0,-0.00020870007574558258
1280.0,-4.1192073695128784e-05
1408.0,6.491661770269275e-05
1536.0,9.960914758266881e-05
1664.0,0.00031682965345680714
1792.0,0.00023718949523754418
1920.0,0.0002860254608094692
2048.0,-6.3600709836464375e-06
2304.0,-8.948350296122953e-05
2560.0,-6.598656182177365e-05
2816.0,-0.00018583290511742234
3072.0,0.00011633151007117704
3328.0,-0.00015828682808205485
3584.0,-9.335405775345862e-05
3840.0,-2.5538061890983954e-05
4096.0,-0.0001837533200159669
4608.0,0.00010681928688427433
5120.0,-0.00018752920732367784
5632.0,-0.00011426450510043651
6144.0,0.0003220160724595189
6656.0,-0.0001069038626155816
7168.0,-0.000187178302439861
7680.0,0.00011456741776783019
8192.0,4.8910093028098345e-05
9216.0,-1.8870909116230905e-05
10240.0,8.177918061846867e-05
11264.0,-7.5790617302118335e-06
12288.0,8.867625183484051e-06
13312.0,-9.330907778348774e-05
14336.0,2.187899372074753e-05
end
