version,3.0
numOfCh,1
type,point
parent_name,1000-cuts
ch_type,1_1
kcount,1
numberNandB,1
brightnessNandB,1
carpet pos,0
pc,0
Time (ms),CH1 Auto-Correlation
1.0,0.02484680712223053
2.0,0.0191041249781847
3.0,0.015245803631842136
4.0,0.012430272065103054
5.0,0.010334656573832035
6.0,0.008975233882665634
7.0,0.007684317883104086
8.0,0.006563784554600716
9.0,0.005831415299326181
10.0,0.0052896710112690926
11.0,0.00474171107634902
12.0,0.004243276081979275
13.0,0.0037728582974523306
14.0,0.003539059078320861
15.0,0.003193984506651759
16.0,0.0029542394913733006
18.0,0.0025756352115422487
20.0,0.002173907821998
22.0,0.0017780319321900606
24.0,0.001807612250559032
26.0,0.0015574509743601084
28.0,0.0011506065493449569
30.0,0.0004989600274711847
32.0,0.00020295554713811725
36.0,-0.0002968636399600655
40.0,-0.00017969180771615356
44.0,-0.00030927301850169897
48.0,-0.0007883421494625509
52.0,-0.0012254184111952782
56.0,-0.0009466224000789225
60.0,-0.0009174368460662663
64.0,-0.0009151127305813134
72.0,-0.00042591372039169073
80.0,-0.00018637542962096632
88.0,-2.5668226953712292e-05
96.0,-6.813662184868008e-05
104.0,-0.0008160144789144397
112.0,-0.0010606306605041027
120.0,-0.0004573620099108666
128.0,0.00034565466921776533
144.0,-0.00021626990928780288
160.0,-0.0003896758717019111
176.0,-0.0004701030848082155
192.0,-0.0009612222202122211
208.0,-0.0004899546620436013
224.0,-1.5648412954760715e-05
240.0,0.0003396674292162061
256.0,0.000725792080629617
288.0,-0.00020207519992254674
320.0,0.0004296372935641557
352.0,-1.0596809261187445e-05
384.0,-0.0002430203603580594
416.0,-0.00010146070417249575
448.0,0.0003687230055220425
480.0,2.5026298317243345e-05
512.0,-7.590893073938787e-05
576.0,0.0006701396778225899
640.0,0.00014613309758715332
704.0,-0.000611606112215668
768.0,0.00012329115997999907
832.0,-0.00011330396955600008
896.0,0.0008711244445294142
960.0,-0.00017820428183767945
1024.0,-0.0004060312930960208
1152.0,-0.00023774321016389877
1280.0,0.00010169767483603209
1408.0,-0.0002027333393925801
1536.0,-0.00048141126171685755
1664.0,-0.00018798891687765718
1792.0,0.00017443772230762988
1920.0,-0.00030603143386542797
2048.0,-0.00017815835599321872
2304.0,8.854980842443183e-05
2560.0,-1.4028027180756908e-05
2816.0,-0.00013353249232750386
3072.0,0.00022205550340004265
3328.0,-0.00018444551096763462
3584.0,0.00012943914043717086
3840.0,-0.000192574443644844
4096.0,0.00014865468256175518
4608.0,-0.0001520043588243425
5120.0,1.5012359654065222e-05
5632.0,-0.00010779670992633328
6144.0,0.00019441527547314763
6656.0,-1.2208033695060294e-05
7168.0,8.622321183793247e-05
7680.0,-0.00016630547179374844
8192.0,-0.00014897801156621426
9216.0,7.992604514583945e-05
10240.0,0.00014045186981093138
11264.0,-9.744140697875991e-05
12288.0,-0.0001018225884763524
13312.0,6.452868547057733e-05
14336.0,0.0002925357548519969
end
