version,3.0
numOfCh,1
type,point
parent_name,1000-cuts
ch_type,1_1
kcount,1
numberNandB,1
brightnessNandB,1
carpet pos,0
pc,0
Time (ms),CH1 Auto-Correlation
1.0,0.015925245359539986
2.0,0.012214826419949532
3.0,0.009506049565970898
4.0,0.007285100407898426
5.0,0.005710346158593893
6.0,0.004718721844255924
7.0,0.003977938089519739
8.0,0.0035109911113977432
9.0,0.0030752711463719606
10.0,0.0026721935719251633
11.0,0.0023169522173702717
12.0,0.0020372425206005573
13.0,0.001748836599290371
14.0,0.0013707319740206003
15.0,0.001136169652454555
16.0,0.0007697392720729113
18.0,0.0005403438117355108
20.0,0.0005567732732743025
22.0,0.0004854295984841883
24.0,0.0005291285924613476
26.0,0.00047680968418717384
28.0,0.0005998628912493587
30.0,0.0006724981358274817
32.0,0.0007143794791772962
36.0,0.0007950506987981498
40.0,0.0007184745045378804
44.0,0.0006618903717026114
48.0,0.00036028813337907195
52.0,9.091412357520312e-05
56.0,-6.596279126824811e-05
60.0,-0.00033793345210142434
64.0,-0.0001868921535788104
72.0,0.0001209653855767101
80.0,0.00015490534133277833
88.0,-1.591385625943076e-05
96.0,-0.0004759448056574911
104.0,-0.0003497254219837487
112.0,-0.0001284846366615966
120.0,-9.257969941245392e-05
128.0,0.000330194627167657
144.0,-1.6847614460857585e-05
160.0,-6.232873420231044e-05
176.0,-0.00013387191575020552
192.0,-0.00033940927824005485
208.0,-0.0003917120338883251
224.0,-0.00027606607181951404
240.0,-3.294443740742281e-05
256.0,-1.6481861166539602e-05
288.0,-5.8273937611375004e-05
320.0,7.153398655646015e-07
352.0,-0.0003242231614422053
384.0,-8.181502198567614e-05
416.0,-0.00011618920689215884
448.0,-0.00018207469838671386
480.0,-3.8246162148425356e-05
512.0,0.00011222325701965019
576.0,-0.00015797156083863229
640.0,-0.0002484960714355111
704.0,-0.00015556957805529237
768.0,0.00014103886496741325
832.0,0.00015282579988706857
896.0,-3.878393545164727e-05
960.0,-6.503549229819328e-05
1024.0,8.622222958365455e-05
1152.0,0.00012242373486515135
1280.0,-0.00017101899720728397
1408.0,-9.043224417837337e-05
1536.0,-8.380728104384616e-05
1664.0,-2.0419265638338402e-05
1792.0,0.0002390713052591309
1920.0,4.915373574476689e-05
2048.0,-0.00027686645626090467
2304.0,4.9838825361803174e-05
2560.0,-0.00011757724132621661
2816.0,0.00013846112415194511
3072.0,-0.0001349255326204002
3328.0,0.00010058445332106203
3584.0,-1.070630219146551e-06
3840.0,-6.110949470894411e-05
4096.0,5.5861099099274725e-05
4608.0,2.7674937882693484e-05
5120.0,-0.0001289173524128273
5632.0,6.182286597322673e-05
6144.0,5.232674811850302e-05
6656.0,-4.725558937934693e-06
7168.0,-4.933848322252743e-05
7680.0,-0.00010717753320932388
8192.0,0.00010896137246163562
9216.0,-1.0904892405960709e-05
10240.0,-9.081714779313188e-06
11264.0,2.120184217346832e-05
12288.0,-2.80995991488453e-05
13312.0,-1.8116188584826887e-05
14336.0,1.5867792171775363e-05
end
