version,3.0
numOfCh,1
type,point
parent_name,1000-cuts
ch_type,1_1
kcount,1
numberNandB,1
brightnessNandB,1
carpet pos,0
pc,0
Time (ms),CH1 Auto-Correlation
1.0,0.0150603661313653
2.0,0.01169308740645647
3.0,0.009248006157577038
4.0,0.007473282981663942
5.0,0.006204782985150814
6.0,0.005162478890269995
7.0,0.004260787274688482
8.0,0.0035961749963462353
9.0,0.00312621658667922
10.0,0.0027092609088867903
11.0,0.002419585594907403
12.0,0.0021738694049417973
13.0,0.0019685139413923025
14.0,0.0018106652423739433
15.0,0.0015265033580362797
16.0,0.0012107844231650233
18.0,0.0008980332058854401
20.0,0.0006662230007350445
22.0,0.0003745838184840977
24.0,0.00026439919020049274
26.0,8.525931480107829e-05
28.0,-0.00012572508421726525
30.0,-9.663370292400941e-05
32.0,-0.00018012452346738428
36.0,-0.00012918208085466176
40.0,-0.00010664339788490906
44.0,8.52108933031559e-05
48.0,8.441491081612185e-05
52.0,6.23954547336325e-05
56.0,0.00011553330114111304
60.0,0.0001045031167450361
64.0,-0.00013293420488480479
72.0,-0.00017229310469701886
80.0,-4.3194315367145464e-05
88.0,-2.0725005015265197e-05
96.0,4.759608054882847e-05
104.0,-0.00013233479694463313
112.0,-1.7983829820877872e-05
120.0,-0.0003621357900556177
128.0,-0.00011396360787330195
144.0,2.6301529942429624e-05
160.0,0.00040424030157737434
176.0,0.0002467652375344187
192.0,0.00025545890093781054
208.0,0.000498258275911212
224.0,9.451526420889422e-05
240.0,0.0005832603201270103
256.0,0.00028103540535084903
288.0,4.920494757243432e-05
320.0,0.0001581510587129742
352.0,0.00030814079218544066
384.0,0.00012407191388774663
416.0,0.0003731411707121879
448.0,0.00017335302254650742
480.0,-0.00012401805724948645
512.0,-0.00018312617612536997
576.0,0.00021955257398076355
640.0,0.0001793707924662158
704.0,7.297033880604431e-05
768.0,0.00013768533244729042
832.0,0.00011204411566723138
896.0,-0.0001713217789074406
960.0,6.770022446289659e-05
1024.0,0.00012337988300714642
1152.0,-4.6196677430998534e-05
1280.0,-6.937691796338186e-05
1408.0,-3.6124158214079216e-05
1536.0,-0.00011121955321868882
1664.0,7.507090776925907e-05
1792.0,-5.92343058087863e-05
1920.0,4.3898256990360096e-05
2048.0,-0.00011392997112125158
2304.0,-9.076941751118284e-06
2560.0,5.6028246035566553e-05
2816.0,2.6918489311356097e-05
3072.0,0.00011937960516661406
3328.0,0.0003500331658869982
3584.0,0.00018617729074321687
3840.0,9.306459105573595e-05
4096.0,0.00011003964755218476
4608.0,1.8167882444686256e-05
5120.0,-0.00012784732098225504
5632.0,-0.0001726884365780279
6144.0,-0.00015134290151763707
6656.0,2.454122295603156e-05
7168.0,0.00011563715088414028
7680.0,6.0435704654082656e-05
8192.0,-0.0001364359341096133
9216.0,-0.00029078160878270864
10240.0,2.2744641682947986e-05
11264.0,-2.6709481971920468e-05
12288.0,-0.00022353192616719753
13312.0,-7.719264249317348e-05
14336.0,-6.630858842981979e-05
end
