version,3.0
numOfCh,1
type,point
parent_name,1000-cuts
ch_type,1_1
kcount,1
numberNandB,1
brightnessNandB,1
carpet pos,0
pc,0
Time (ms),CH1 Auto-Correlation
1.0,0.014997030608355999
2.0,0.01153714582324028
3.0,0.009147049859166145
4.0,0.007509767077863216
5.0,0.006270637735724449
6.0,0.005314935930073261
7.0,0.0044857473112642765
8.0,0.003587316954508424
9.0,0.0028778838459402323
10.0,0.0023608163464814425
11.0,0.0020156512036919594
12.0,0.0017429125728085637
13.0,0.0014799305936321616
14.0,0.0012774443021044135
15.0,0.0010369564406573772
16.0,0.0009298869408667088
18.0,0.0006668904097750783
20.0,0.0004046154208481312
22.0,0.0001586204452905804
24.0,-0.00017352942086290568
26.0,-0.0002683929051272571
28.0,-0.0003047313657589257
30.0,-0.00029671817901544273
32.0,-0.00014747069508302957
36.0,3.9676993765169755e-05
40.0,-9.161904927168507e-06
44.0,2.2271515263128094e-05
48.0,2.652992043294944e-05
52.0,-0.00012545697973109782
56.0,1.0753952665254474e-05
60.0,-5.582801532000303e-05
64.0,-5.497649544849992e-05
72.0,6.634573946939781e-05
80.0,5.74932164454367e-05
88.0,0.00010803470649989322
96.0,-5.161902663530782e-05
104.0,-6.457116251112893e-05
112.0,0.00010476728493813425
120.0,-0.00015052394883241504
128.0,-0.0005033181514590979
144.0,0.0001313783577643335
160.0,0.00025054989964701235
176.0,-3.765928704524413e-05
192.0,-6.784082506783307e-05
208.0,0.00039079750422388315
224.0,0.0005827214336022735
240.0,0.00021669085253961384
256.0,1.620940565771889e-05
288.0,-3.7985884659974545e-07
320.0,-0.0003463927423581481
352.0,-0.0005071891937404871
384.0,-0.00038395047886297107
416.0,1.6582511307206005e-05
448.0,5.517974932445213e-05
480.0,0.00021114986157044768
512.0,0.0003293429617770016
576.0,-0.00026583083672448993
640.0,0.00022921200434211642
704.0,5.670805330737494e-05
768.0,9.120839968090877e-05
832.0,-0.00019960176723543555
896.0,-0.00012300210073590279
960.0,-0.00021363695850595832
1024.0,0.0003410923818591982
1152.0,7.30135288904421e-05
1280.0,3.728688898263499e-05
1408.0,-8.202684693969786e-05
1536.0,-0.00013117417984176427
1664.0,3.873744935845025e-05
1792.0,8.479212556267157e-05
1920.0,-0.0001605836150702089
2048.0,-0.00016363074246328324
2304.0,-6.156879680929706e-05
2560.0,2.606349426059751e-06
2816.0,0.00012997938029002398
3072.0,-7.954319880809635e-05
3328.0,-4.8319143388653174e-05
3584.0,-0.00012316687207203358
3840.0,2.8243468477739953e-05
4096.0,1.1556150639080442e-05
4608.0,3.968510281993076e-05
5120.0,-3.296456634416245e-05
5632.0,1.617013185750693e-05
6144.0,-9.727512951940298e-05
6656.0,5.881669858354144e-05
7168.0,-0.0001228085020557046
7680.0,-4.2373372707515955e-05
8192.0,3.1728504836792126e-05
9216.0,7.99098561401479e-05
10240.0,2.6929132218356244e-05
11264.0,-0.00012373637582641095
12288.0,5.9399382735136896e-05
13312.0,0.00011311865091556683
14336.0,-0.00016580370720475912
end
