version,3.0
numOfCh,1
type,point
parent_name,1000-cuts
ch_type,1_1
kcount,1
numberNandB,1
brightnessNandB,1
carpet pos,0
pc,0
Time (ms),CH1 Auto-Correlation
1.0,0.01635552942752838
2.0,0.01269641425460577
3.0,0.010043052956461906
4.0,0.008270674385130405
5.0,0.006971473805606365
6.0,0.005958752706646919
7.0,0.005095869302749634
8.0,0.004483690485358238
9.0,0.003973932471126318
10.0,0.0034829427022486925
11.0,0.00304882088676095
12.0,0.0027285392861813307
13.0,0.002446727827191353
14.0,0.002230538520962
15.0,0.0018152642296627164
16.0,0.0016487700631842017
18.0,0.0012251391308382154
20.0,0.0007842399645596743
22.0,0.0004782717442139983
24.0,0.00040004533366300166
26.0,0.00023253163089975715
28.0,0.0003253353061154485
30.0,0.00024984515039250255
32.0,0.0002388373832218349
36.0,6.17882760707289e-05
40.0,-0.00026537725352682173
44.0,-0.0001360677124466747
48.0,-0.00019015170983038843
52.0,-0.000637657183688134
56.0,-0.0005359493079595268
60.0,-3.6300498322816566e-06
64.0,-8.529669139534235e-05
72.0,-7.676645327592269e-05
80.0,-0.00012573320418596268
88.0,-0.0001385202194796875
96.0,9.363078424939886e-05
104.0,0.00011502140841912478
112.0,5.5309512390522286e-05
120.0,-6.965028296690434e-05
128.0,-0.00011588066263357177
144.0,-0.0006896277191117406
160.0,-0.0005607489147223532
176.0,-0.00010436411685077474
192.0,-0.0004176597576588392
208.0,-0.0006015773979015648
224.0,-0.00039285951061174273
240.0,-0.00024107137869577855
256.0,3.309614385216264e-06
288.0,-0.00018440168059896678
320.0,-0.000295808567898348
352.0,-0.00016438246530015022
384.0,-0.00010361188469687477
416.0,0.00035161024425178766
448.0,0.0002914902870543301
480.0,5.655474160448648e-05
512.0,0.00025505037046968937
576.0,0.00020546821178868413
640.0,-0.00026781889027915895
704.0,-0.0001387528609484434
768.0,-0.00010339096479583532
832.0,1.6407062503276393e-05
896.0,3.5410932468948886e-05
960.0,-9.670863801147789e-05
1024.0,-0.00017231126548722386
1152.0,4.755373811349273e-05
1280.0,-0.0001854433212429285
1408.0,6.835161912022159e-05
1536.0,6.0848527937196195e-05
1664.0,0.00011139480920974165
1792.0,-8.373208402190357e-05
1920.0,0.00010785246558953077
2048.0,-2.7582304028328508e-05
2304.0,1.2298333786020521e-05
2560.0,-1.3169201338314451e-05
2816.0,-9.656467591412365e-05
3072.0,5.001621684641577e-05
3328.0,-0.00015733936743345112
3584.0,0.00029861784423701465
3840.0,-0.00038967575528658926
4096.0,0.0001998278748942539
4608.0,6.947770998522174e-06
5120.0,-2.512622086214833e-05
5632.0,-3.498607475194149e-05
6144.0,-2.4354589186259545e-05
6656.0,-5.5022170272422954e-05
7168.0,-5.357816917239688e-06
7680.0,5.298503310768865e-05
8192.0,-4.853447535424493e-06
9216.0,3.731398464879021e-05
10240.0,7.676832319702953e-05
11264.0,-8.074638753896579e-05
12288.0,-3.5696175473276526e-05
13312.0,8.060481923166662e-05
14336.0,-2.3183611119748093e-06
end
