version,3.0
numOfCh,1
type,point
parent_name,1000-cuts
ch_type,1_1
kcount,1
numberNandB,1
brightnessNandB,1
carpet pos,0
pc,0
Time (ms),CH1 Auto-Correlation
1.0,0.025475677102804184
2.0,0.01967477798461914
3.0,0.015608650632202625
4.0,0.012609012424945831
5.0,0.010696372017264366
6.0,0.009037824347615242
7.0,0.007831485010683537
8.0,0.006564782466739416
9.0,0.005639406852424145
10.0,0.00478198379278183
11.0,0.004187718499451876
12.0,0.00375432800501585
13.0,0.0033186422660946846
14.0,0.0029406400863081217
15.0,0.002697651507332921
16.0,0.0025061657652258873
18.0,0.0020591130014508963
20.0,0.0014142986619845033
22.0,0.001021473784931004
24.0,0.00042685307562351227
26.0,0.00023244821932166815
28.0,-6.261214730329812e-05
30.0,-2.631106872286182e-05
32.0,9.496500570094213e-05
36.0,-2.3400554027830367e-07
40.0,-0.00031189448782242835
44.0,2.74985795840621e-05
48.0,4.40752919530496e-05
52.0,0.00032044536783359945
56.0,0.0006009318167343736
60.0,0.0005108480108901858
64.0,0.00046320148976519704
72.0,0.0005893343477509916
80.0,0.0005293202702887356
88.0,-0.00029116476071067154
96.0,-0.000262423069216311
104.0,0.00020903407130390406
112.0,0.0005059101385995746
120.0,-1.1700031791406218e-05
128.0,-0.0005527296452783048
144.0,-0.00021519286383409053
160.0,-0.0002971797657664865
176.0,-0.0002962564176414162
192.0,0.0004639325197786093
208.0,-0.00030985448393039405
224.0,-2.998347918037325e-05
240.0,-0.000662872102111578
256.0,8.120614802464843e-05
288.0,-0.00020695703278761357
320.0,-0.0010200735414400697
352.0,-0.0001723850582493469
384.0,-0.0003152925055474043
416.0,0.00022791733499616385
448.0,-0.00013862288324162364
480.0,0.0005004022386856377
512.0,0.0005365778924897313
576.0,6.690753798466176e-05
640.0,5.7864377595251426e-05
704.0,-3.1759915145812556e-05
768.0,-2.208796468039509e-05
832.0,0.00018260318029206246
896.0,0.0005142317968420684
960.0,-0.0002933092473540455
1024.0,7.685668970225379e-05
1152.0,-5.277357922750525e-05
1280.0,8.106981840683147e-05
1408.0,0.00038231845246627927
1536.0,0.000562787230592221
1664.0,0.00024392218620050699
1792.0,-0.0002905840228777379
1920.0,1.0215113434242085e-05
2048.0,-0.00016925860836636275
2304.0,8.815663022687659e-05
2560.0,-0.0001037589754560031
2816.0,3.96383366023656e-05
3072.0,0.0001389589160680771
3328.0,-8.582524606026709e-05
3584.0,-4.835031722905114e-05
3840.0,-0.0002214062842540443
4096.0,-9.723452967591584e-05
4608.0,0.00010655629739630967
5120.0,-0.0002533277147449553
5632.0,-0.00021659005142282695
6144.0,7.28584491298534e-05
6656.0,-6.14026648690924e-05
7168.0,-0.0003354567743372172
7680.0,7.474431185983121e-05
8192.0,0.00015775745850987732
9216.0,-4.9029466026695445e-05
10240.0,-6.542493065353483e-05
11264.0,0.00010532777378102764
12288.0,0.00019051908748224378
13312.0,-4.273481681593694e-05
14336.0,0.00010236188245471567
end
