version,3.0
numOfCh,1
type,point
parent_name,1000-cuts
ch_type,1_1
kcount,1
numberNandB,1
brightnessNandB,1
carpet pos,0
pc,0
Time (ms),CH1 Auto-Correlation
1.0,0.01590803638100624
2.0,0.01231811661273241
3.0,0.009800199419260025
4.0,0.008013859391212463
5.0,0.006596899125725031
6.0,0.005565396044403315
7.0,0.004792799241840839
8.0,0.004110373090952635
9.0,0.0035335752181708813
10.0,0.0031351461075246334
11.0,0.0026533191557973623
12.0,0.002399031538516283
13.0,0.0020009283907711506
14.0,0.0017483789706602693
15.0,0.0015137018635869026
16.0,0.0013988488353788853
18.0,0.0011081791017204523
20.0,0.0009968251688405871
22.0,0.000789386045653373
24.0,0.0007654534419998527
26.0,0.0006020505679771304
28.0,0.0004117436765227467
30.0,0.000325227651046589
32.0,0.00031578922062180936
36.0,0.0004063433734700084
40.0,0.000236698062508367
44.0,0.0002495276276022196
48.0,0.00030569304362870753
52.0,0.0003419735876377672
56.0,0.00018393940990790725
60.0,-5.237514051259495e-05
64.0,9.276619675802067e-05
72.0,0.0005465555004775524
80.0,0.0005475583020597696
88.0,0.00022335918038152158
96.0,-0.00027887921896763146
104.0,-0.0002765510871540755
112.0,-5.578222408075817e-05
120.0,-4.2648407543310896e-05
128.0,9.800704719964415e-05
144.0,0.00019540105131454766
160.0,0.00045807112473994493
176.0,2.915228651545476e-05
192.0,-0.00028182670939713717
208.0,-0.00035531222238205373
224.0,9.117014269577339e-05
240.0,-8.927653834689409e-05
256.0,-0.0003259568475186825
288.0,-0.00012628451804630458
320.0,6.827312517998507e-06
352.0,-0.00030678135226480663
384.0,-0.00038813307764939964
416.0,-0.0002962511498481035
448.0,-0.00015952666581142694
480.0,0.00025050510885193944
512.0,-0.00019431268447078764
576.0,-3.8026741094654426e-05
640.0,-0.0001678785338299349
704.0,0.00013756130647379905
768.0,0.00023631201474927366
832.0,0.00018786333384923637
896.0,-1.4216215276974253e-05
960.0,-0.00019082007929682732
1024.0,-0.00011604085739236325
1152.0,-5.602413148153573e-05
1280.0,-0.000186977005796507
1408.0,-0.00017170558567158878
1536.0,0.00020819148630835116
1664.0,9.977359150070697e-05
1792.0,-0.00020584289450198412
1920.0,-0.00026345616788603365
2048.0,-3.842778824036941e-05
2304.0,0.00011615009134402499
2560.0,1.1367172874088283e-06
2816.0,1.1128425285278354e-05
3072.0,0.00018043682212010026
3328.0,6.465181650128216e-05
3584.0,-0.00016714469529688358
3840.0,0.00012908133794553578
4096.0,-9.082215910893865e-06
4608.0,6.585787195945159e-05
5120.0,-0.00015433864609804004
5632.0,8.53415549499914e-05
6144.0,-1.9244385839556344e-05
6656.0,-0.0001259165583178401
7168.0,0.00021364340500440449
7680.0,-7.289682980626822e-05
8192.0,-0.0001292568485951051
9216.0,-0.0001240987330675125
10240.0,0.00015095665003173053
11264.0,-0.00010815176938194782
12288.0,-1.185558971883438e-06
13312.0,7.826563523849472e-05
14336.0,-9.929536463459954e-05
end
