version,3.0
numOfCh,1
type,point
parent_name,1000-cuts
ch_type,1_1
kcount,1
numberNandB,1
brightnessNandB,1
carpet pos,0
pc,0
Time (ms),CH1 Auto-Correlation
1.0,0.014591585844755173
2.0,0.011144837364554405
3.0,0.008779608644545078
4.0,0.007187994662672281
5.0,0.0060049970634281635
6.0,0.005100947804749012
7.0,0.004217134322971106
8.0,0.003477843478322029
9.0,0.003068475052714348
10.0,0.0026625602040439844
11.0,0.002321911044418812
12.0,0.0020528589375317097
13.0,0.0017214521067216992
14.0,0.0013968509156256914
15.0,0.0011793338926509023
16.0,0.0010404252680018544
18.0,0.0006021498702466488
20.0,0.0003730174503289163
22.0,0.000199350732145831
24.0,-8.100440754787996e-05
26.0,-0.0001846439263317734
28.0,-0.00025039148749783635
30.0,-0.0002798709901981056
32.0,-0.00017900172679219395
36.0,-0.0001292173401452601
40.0,-0.00046079809544607997
44.0,-0.0004652057250496
48.0,-0.0004740903968922794
52.0,-0.0002684919163584709
56.0,-0.00030236487509682775
60.0,-0.0003220130456611514
64.0,-0.0001579820818733424
72.0,0.0001508621353423223
80.0,-3.0348992368089966e-05
88.0,0.00013169234443921596
96.0,-7.017600000835955e-05
104.0,1.2160578535258537e-06
112.0,3.767550515476614e-05
120.0,0.00014225828635971993
128.0,-7.819442544132471e-05
144.0,7.235692464746535e-05
160.0,0.000248435273533687
176.0,-6.016983024892397e-05
192.0,-0.00021701613150071353
208.0,7.268339686561376e-05
224.0,0.00026962620904669166
240.0,0.00038885706453584135
256.0,7.674186781514436e-05
288.0,-0.0002352214651182294
320.0,0.00016240304103121161
352.0,-0.0002940061967819929
384.0,-6.273377948673442e-05
416.0,0.000256410421570763
448.0,-0.0005126211326569319
480.0,-0.0001819666795199737
512.0,-0.0001601155090611428
576.0,0.00011506901500979438
640.0,-0.0001669102639425546
704.0,0.00015153804270084947
768.0,2.065509579551872e-05
832.0,0.0002749699342530221
896.0,-4.438299220055342e-05
960.0,-0.0002716344897635281
1024.0,-0.00012070862430846319
1152.0,0.00010513402230571955
1280.0,2.673515382412006e-06
1408.0,-3.275665585533716e-05
1536.0,-0.00019671753398142755
1664.0,-0.00010277014371240512
1792.0,-0.00014021173410583287
1920.0,-3.760190520551987e-05
2048.0,0.0002101760619552806
2304.0,-3.426503099035472e-05
2560.0,1.3249875337351114e-05
2816.0,-8.859999070409685e-05
3072.0,0.0001639206166146323
3328.0,0.00011949706095037982
3584.0,-0.0001511228474555537
3840.0,5.498056998476386e-05
4096.0,1.5604784948664019e-06
4608.0,-4.843109491048381e-05
5120.0,-4.961384547641501e-05
5632.0,1.8915148757514544e-05
6144.0,-5.865553248440847e-05
6656.0,-1.516127485956531e-05
7168.0,-6.397262768587098e-05
7680.0,0.00011514411744428799
8192.0,7.512453885283321e-05
9216.0,-5.492773561854847e-05
10240.0,-4.077113408129662e-05
11264.0,8.518361573806033e-05
12288.0,-3.219856080249883e-05
13312.0,-4.7363690100610256e-05
14336.0,0.00011915289360331371
end
