version,3.0
numOfCh,1
type,point
parent_name,1000-cuts
ch_type,1_1
kcount,1
numberNandB,1
brightnessNandB,1
carpet pos,0
pc,0
Time (ms),CH1 Auto-Correlation
1.0,0.0242764875292778
2.0,0.018817227333784103
3.0,0.01494227908551693
4.0,0.012176869437098503
5.0,0.009945498779416084
6.0,0.008422455750405788
7.0,0.0072316196747124195
8.0,0.0061808302998542786
9.0,0.005356287118047476
10.0,0.004669393412768841
11.0,0.0040300386026501656
12.0,0.0032875060569494963
13.0,0.0028295947704464197
14.0,0.0023657786659896374
15.0,0.0019842444453388453
16.0,0.0017533922800794244
18.0,0.0015645589446648955
20.0,0.0012759061064571142
22.0,0.0007416519219987094
24.0,0.0005406676791608334
26.0,0.00034356233663856983
28.0,0.0003431770601309836
30.0,0.0003642108349595219
32.0,0.0003500394232105464
36.0,0.00017796875908970833
40.0,-0.00012472410162445158
44.0,-0.0002865203423425555
48.0,-0.0008047626470215619
52.0,-0.000560785410925746
56.0,-0.0003571359848137945
60.0,-0.0004255912790540606
64.0,-0.00016411500109825283
72.0,-1.8753900121737388e-06
80.0,-1.3841533927916316e-06
88.0,-0.00033844332210719585
96.0,-0.0006979067111387849
104.0,0.00017347888206131756
112.0,6.706167187076062e-05
120.0,-3.68635228369385e-05
128.0,-0.00030145817436277866
144.0,-0.0002170523366658017
160.0,-0.00030887671164236963
176.0,-1.2085537491657306e-05
192.0,5.145033719600178e-05
208.0,-8.417454409936909e-06
224.0,0.0008729591500014067
240.0,0.0009309316519647837
256.0,0.00012102835171390325
288.0,-0.0004919354687444866
320.0,-0.0002305353118572384
352.0,-0.00013029220281168818
384.0,0.00037607504054903984
416.0,-0.0006143681821413338
448.0,-0.000278246559901163
480.0,0.00015570885443594307
512.0,-0.00026379534392617643
576.0,0.00021828143508173525
640.0,0.0003211830335203558
704.0,0.00031176168704405427
768.0,0.00018601081683300436
832.0,-0.0001754115946823731
896.0,-0.0005564512684941292
960.0,-0.00018122429901268333
1024.0,-0.0003604788507800549
1152.0,9.86617524176836e-05
1280.0,-4.872390127275139e-05
1408.0,0.0004531923041213304
1536.0,-0.00018117997387889773
1664.0,-0.00018633231229614466
1792.0,-0.00023892080935183913
1920.0,0.0003003288875333965
2048.0,7.328242645598948e-05
2304.0,-0.00028449425008147955
2560.0,0.00018120980530511588
2816.0,-1.249880057230257e-07
3072.0,-9.782679626368918e-06
3328.0,0.00025840173475444317
3584.0,-2.882668013626244e-05
3840.0,-0.00016244532889686525
4096.0,4.447472019819543e-05
4608.0,-9.97697570710443e-05
5120.0,0.000102484758826904
5632.0,-5.213167969486676e-05
6144.0,2.4568125809310004e-05
6656.0,-6.630846473854035e-05
7168.0,4.8120032261067536e-06
7680.0,0.00012337187945377082
8192.0,-3.4673063055379316e-05
9216.0,-5.7340115745319054e-05
10240.0,-9.066749771591276e-05
11264.0,-4.6445129555650055e-05
12288.0,-4.864737093157601e-06
13312.0,-0.00015586463268846273
14336.0,-0.0001441304775653407
end
