version,3.0
numOfCh,1
type,point
parent_name,1000-cuts
ch_type,1_1
kcount,1
numberNandB,1
brightnessNandB,1
carpet pos,0
pc,0
Time (ms),CH1 Auto-Correlation
1.0,0.015681589022278786
2.0,0.012234739027917385
3.0,0.009891106747090816
4.0,0.008170947432518005
5.0,0.006778754759579897
6.0,0.005816324148327112
7.0,0.004940149374306202
8.0,0.004192808642983437
9.0,0.003684818046167493
10.0,0.0032718440052121878
11.0,0.0028986912220716476
12.0,0.002520418493077159
13.0,0.0022872097324579954
14.0,0.002011594595387578
15.0,0.0016887085512280464
16.0,0.0014227040810510516
18.0,0.0009560538455843925
20.0,0.0007381997420452535
22.0,0.0006833364022895694
24.0,0.00047480512876063585
26.0,0.0004214344662614167
28.0,0.0004130399611312896
30.0,0.0003419241984374821
32.0,0.00015062582679092884
36.0,5.2978146413806826e-05
40.0,0.0004029545234516263
44.0,0.00030267206602729857
48.0,1.846605982791516e-06
52.0,-0.00010020469926530495
56.0,-0.00042793768807314336
60.0,-0.0006697968929074705
64.0,-0.0007961694500409067
72.0,-0.0005869108717888594
80.0,-0.0005469729658216238
88.0,-0.00031369581120088696
96.0,-0.00019406533101573586
104.0,-0.0005059621180407703
112.0,-0.0006853750091977417
120.0,-0.00045694742584601045
128.0,-0.0004319341096561402
144.0,-0.0001468472182750702
160.0,0.00010505048703635111
176.0,-4.893359073321335e-05
192.0,9.624559606891125e-05
208.0,-7.358646689681336e-05
224.0,-0.00012614209845196456
240.0,0.00037206264096312225
256.0,0.00046368894982151687
288.0,-8.558054832974449e-05
320.0,0.00036611672840081155
352.0,0.00016527150000911206
384.0,0.00019484398944769055
416.0,3.2399188057752326e-05
448.0,0.00014896538050379604
480.0,0.00026586628518998623
512.0,-0.0003030075167771429
576.0,-0.0003201571526005864
640.0,1.2534798770502675e-05
704.0,0.00023630617943126708
768.0,-5.041115582571365e-05
832.0,-0.00018109151278622448
896.0,-0.0002311338175786659
960.0,7.050736894598231e-05
1024.0,-1.4123082110018004e-05
1152.0,-2.1467682017828338e-05
1280.0,-0.00020596834656316787
1408.0,-0.00016145373228937387
1536.0,-0.0001963102986337617
1664.0,-1.860473093984183e-05
1792.0,0.00016237811360042542
1920.0,-0.00021588602976407856
2048.0,0.00038014614256098866
2304.0,9.312239853898063e-05
2560.0,2.3113152565201744e-05
2816.0,-2.865970236598514e-05
3072.0,-0.00022372211969923228
3328.0,-9.942192264134064e-05
3584.0,-1.9602062820922583e-05
3840.0,8.067503949860111e-05
4096.0,0.00023024329857435077
4608.0,0.00018381394329480827
5120.0,-0.00020165984460618347
5632.0,-0.0001134031408582814
6144.0,5.498938844539225e-05
6656.0,7.808565715095028e-05
7168.0,-0.00017489022866357118
7680.0,-0.00014334778825286776
8192.0,0.0001585525315022096
9216.0,0.00010887296957662329
10240.0,-6.532908446388319e-05
11264.0,-2.3374223019345663e-05
12288.0,-5.4796375479782e-05
13312.0,0.00014028983423486352
14336.0,-5.779347247880651e-06
end
