version,3.0
numOfCh,1
type,point
parent_name,1000-cuts
ch_type,1_1
kcount,1
numberNandB,1
brightnessNandB,1
carpet pos,0
pc,0
Time (ms),CH1 Auto-Correlation
1.0,0.015713976696133614
2.0,0.012226556427776814
3.0,0.009866593405604362
4.0,0.008114472962915897
5.0,0.00685935327783227
6.0,0.005845065228641033
7.0,0.004952299874275923
8.0,0.004243754781782627
9.0,0.0036390090826898813
10.0,0.0031922822818160057
11.0,0.0028343356680125
12.0,0.0025856937281787395
13.0,0.0023941821418702602
14.0,0.0023375502787530422
15.0,0.00206379615701735
16.0,0.0018569729290902615
18.0,0.0014767461689189076
20.0,0.001195471384562552
22.0,0.0008170719374902546
24.0,0.0006223107338882983
26.0,0.0005166290211491287
28.0,0.00044781819451600313
30.0,0.00030014876392669976
32.0,0.00013107291306369007
36.0,1.2115395293221809e-05
40.0,6.419372220989317e-05
44.0,-0.0004369695670902729
48.0,-0.0008398928330279887
52.0,-0.000830316508654505
56.0,-0.0006218243506737053
60.0,-0.00042102180304937065
64.0,-0.0002381088415859267
72.0,-4.683634324464947e-05
80.0,-0.0002123880694853142
88.0,-0.00037304143188521266
96.0,-0.00023403870000038296
104.0,-0.0005239747697487473
112.0,-0.0005727597745135427
120.0,-0.00022815207194071263
128.0,-0.00023986303131096065
144.0,-0.0003384483279660344
160.0,0.00044460801291279495
176.0,0.00044185970909893513
192.0,0.0001600684190634638
208.0,-3.371732964296825e-05
224.0,0.00015815274673514068
240.0,0.0001375707215629518
256.0,2.8419461159501225e-05
288.0,1.4579932212654967e-06
320.0,0.00020822045917157084
352.0,2.2170170268509537e-05
384.0,-0.00014145510795060545
416.0,-0.0004039909108541906
448.0,0.00030934764072299004
480.0,0.0004717976553365588
512.0,-0.00032471955637447536
576.0,-1.0001611371990293e-05
640.0,-5.07925619785965e-07
704.0,-6.567808304680511e-05
768.0,0.00018355979409534484
832.0,3.578181713237427e-05
896.0,-0.0003983428468927741
960.0,-0.0001905604440253228
1024.0,0.0005944449221715331
1152.0,-2.8691145416814834e-05
1280.0,6.659740029135719e-05
1408.0,-8.27834737719968e-05
1536.0,-0.00015803724818397313
1664.0,7.756283594062552e-05
1792.0,9.694661275716498e-05
1920.0,-3.3180513128172606e-05
2048.0,0.00017578892584424466
2304.0,-5.819997750222683e-05
2560.0,-4.0307735616806895e-05
2816.0,9.36154174269177e-05
3072.0,-8.859931767801754e-06
3328.0,-6.151555135147646e-05
3584.0,5.9218702517682686e-05
3840.0,-9.067066457646433e-06
4096.0,8.618550282335491e-07
4608.0,0.00011471963080111891
5120.0,-0.00011211344099137932
5632.0,9.543872874928638e-05
6144.0,-0.00022730440832674503
6656.0,4.402918420964852e-05
7168.0,-0.00018699077190831304
7680.0,-7.311670287890593e-06
8192.0,-7.084226672304794e-05
9216.0,-3.134545841021463e-05
10240.0,-4.960356818628497e-06
11264.0,-5.004653939977288e-05
12288.0,-1.2324132512731012e-05
13312.0,-1.167265418189345e-05
14336.0,2.7214045985601842e-05
end
