version,3.0
numOfCh,1
type,point
parent_name,1000-cuts
ch_type,1_1
kcount,1
numberNandB,1
brightnessNandB,1
carpet pos,0
pc,0
Time (ms),CH1 Auto-Correlation
1.0,0.014962006360292435
2.0,0.011647956445813179
3.0,0.00929846242070198
4.0,0.007580526638776064
5.0,0.006267078686505556
6.0,0.005248004104942083
7.0,0.004396174103021622
8.0,0.003742612898349762
9.0,0.003288232022896409
10.0,0.0029662074521183968
11.0,0.0026679234579205513
12.0,0.0023449459113180637
13.0,0.002103332430124283
14.0,0.001914897235110402
15.0,0.0017171105137094855
16.0,0.0014921865658834577
18.0,0.0012347269803285599
20.0,0.0007414536667056382
22.0,0.00036034564254805446
24.0,0.000154072797158733
26.0,9.556239092489704e-05
28.0,2.4534590920666233e-05
30.0,-4.878667095908895e-05
32.0,-2.231351209047716e-05
36.0,0.00012839354167226702
40.0,0.0002251138212159276
44.0,0.0005367937264963984
48.0,0.0003556111769285053
52.0,0.00011449146404629573
56.0,-0.00010462832142366096
60.0,-0.00017551715427543968
64.0,-0.0002911686315201223
72.0,-0.0005711076664738357
80.0,-0.0004301315057091415
88.0,-0.0005293143331073225
96.0,-0.0004282933077774942
104.0,-0.0001561029494041577
112.0,-0.00023278838489204645
120.0,-6.879661668790504e-05
128.0,-0.00017270974058192223
144.0,7.016456038400065e-08
160.0,0.00035714037949219346
176.0,0.00028120537172071636
192.0,-2.3525457436335273e-05
208.0,0.0004332248936407268
224.0,0.00019594575860537589
240.0,-0.0005164371686987579
256.0,-0.0002968570915982127
288.0,-0.0003425796458031982
320.0,0.00012899214925710112
352.0,-0.00016958892229013145
384.0,1.1269758942944463e-05
416.0,-0.00014001379895489663
448.0,-0.00034163889358751476
480.0,1.9265517039457336e-06
512.0,-0.000212437633308582
576.0,3.1733183277538046e-05
640.0,2.0325416699051857e-05
704.0,-0.00031722511630505323
768.0,-0.000270878488663584
832.0,-3.300787284388207e-06
896.0,0.00021590229880530387
960.0,-6.203349767019972e-05
1024.0,-0.00011621553130680695
1152.0,0.00010178823868045583
1280.0,0.00010986802953993902
1408.0,-0.0002938755205832422
1536.0,0.00010008334356825799
1664.0,-0.00012982540647499263
1792.0,6.420790305128321e-05
1920.0,0.00023078465892467648
2048.0,-5.728009273298085e-05
2304.0,-0.000153770946781151
2560.0,-5.217977013671771e-05
2816.0,-4.7438668843824416e-05
3072.0,8.47664923639968e-05
3328.0,-0.00015880957653280348
3584.0,0.00012257015623617917
3840.0,0.00015457889821846038
4096.0,-0.00010899262269958854
4608.0,-4.303156674723141e-05
5120.0,6.68352804495953e-05
5632.0,-7.2270818236575e-06
6144.0,-2.39701312239049e-05
6656.0,6.873581151012331e-05
7168.0,-3.2192379876505584e-05
7680.0,3.2494106562808156e-05
8192.0,1.7451277017244138e-05
9216.0,-3.826907050097361e-05
10240.0,3.271233072155155e-05
11264.0,-7.131241000024602e-05
12288.0,6.188583938637748e-05
13312.0,-5.629554652841762e-05
14336.0,5.4248775995802134e-05
end
