version,3.0
numOfCh,1
type,point
parent_name,1000-cuts
ch_type,1_1
kcount,1
numberNandB,1
brightnessNandB,1
carpet pos,0
pc,0
Time (ms),CH1 Auto-Correlation
1.0,0.025451699271798134
2.0,0.01950320228934288
3.0,0.015427977778017521
4.0,0.01228939089924097
5.0,0.009970306418836117
6.0,0.008055823855102062
7.0,0.006481981836259365
8.0,0.00515561131760478
9.0,0.004312795586884022
10.0,0.0036003179848194122
11.0,0.0032834038138389587
12.0,0.0030489908531308174
13.0,0.0027558428701013327
14.0,0.002391124377027154
15.0,0.0021262967493385077
16.0,0.0019137694034725428
18.0,0.0015181859489530325
20.0,0.001329501741565764
22.0,0.0010049868142232299
24.0,0.0009088587248697877
26.0,0.0005297280149534345
28.0,0.00048255579895339906
30.0,0.0006015193648636341
32.0,0.0006615512538701296
36.0,0.0006284611881710589
40.0,0.0004022267821710557
44.0,3.091615144512616e-05
48.0,-0.0002739180636126548
52.0,-0.0005709269316866994
56.0,-0.0005779173225164413
60.0,-0.0006326351431198418
64.0,-0.0008926199516281486
72.0,-0.0014068691525608301
80.0,-0.00017009669682011008
88.0,0.0003558385942596942
96.0,-0.00025350096984766424
104.0,-0.0004720492288470268
112.0,-8.876854553818703e-05
120.0,-0.0001977307110792026
128.0,-0.00018760995590128005
144.0,-0.00021160182950552553
160.0,-0.0004284152528271079
176.0,-0.0005285315564833581
192.0,-0.00016306136967614293
208.0,-2.5652170734247193e-05
224.0,-0.00042905801092274487
240.0,-0.0004178520175628364
256.0,-0.000924320425838232
288.0,-4.2170639062533155e-05
320.0,-0.00016164619592018425
352.0,-1.7915932403411716e-05
384.0,-0.0007306869374588132
416.0,-6.86102794134058e-05
448.0,8.454905764665455e-05
480.0,0.0004666826280299574
512.0,0.00030545322806574404
576.0,2.1209803890087642e-05
640.0,0.0005502804415300488
704.0,-0.00041273521492257714
768.0,-0.00020403615781106055
832.0,-0.00039600784657523036
896.0,-0.0005251550464890897
960.0,0.0001968717115232721
1024.0,-0.0003516168799251318
1152.0,0.00028974685119464993
1280.0,3.593591827666387e-05
1408.0,-0.0002867888833861798
1536.0,0.00015977870498318225
1664.0,-0.00010359080624766648
1792.0,0.0003525075444485992
1920.0,-0.000284625100903213
2048.0,-8.110210910672322e-05
2304.0,0.00017705740174278617
2560.0,-2.1511725208256394e-05
2816.0,-4.693743903771974e-05
3072.0,6.621872307732701e-05
3328.0,-0.00023422740923706442
3584.0,0.0001151389442384243
3840.0,-1.2587071068992373e-05
4096.0,-0.0001107346688513644
4608.0,4.9236954509979114e-05
5120.0,-3.0161500035319477e-05
5632.0,-3.4549000105243977e-08
6144.0,3.454905890976079e-05
6656.0,3.562697384040803e-05
7168.0,-6.613574078073725e-05
7680.0,1.914076528919395e-05
8192.0,4.974893818143755e-05
9216.0,-6.810673949075863e-05
10240.0,2.298706749570556e-05
11264.0,-7.092930900398642e-05
12288.0,-9.91979777609231e-06
13312.0,-0.00010810077219503
14336.0,-4.310573422117159e-05
end
