version,3.0
numOfCh,1
type,point
parent_name,1000-cuts
ch_type,1_1
kcount,1
numberNandB,1
brightnessNandB,1
carpet pos,0
pc,0
Time (ms),CH1 Auto-Correlation
1.0,0.025119783356785774
2.0,0.019480427727103233
3.0,0.01581249013543129
4.0,0.01297810673713684
5.0,0.010654287412762642
6.0,0.00862534623593092
7.0,0.007076738867908716
8.0,0.005837804637849331
9.0,0.00506469514220953
10.0,0.004442533943802118
11.0,0.0038167249877005816
12.0,0.003213738789781928
13.0,0.002743057208135724
14.0,0.002452071523293853
15.0,0.0020756875164806843
16.0,0.0017438216600567102
18.0,0.0013967924751341343
20.0,0.001284368452616036
22.0,0.0012787358136847615
24.0,0.001248762127943337
26.0,0.0010071743745356798
28.0,0.0007426441297866404
30.0,0.0007063765660859644
32.0,0.00033817626535892487
36.0,1.8960604393214453e-06
40.0,-0.00017078009841497988
44.0,0.00022122224618215114
48.0,0.0002084817097056657
52.0,-0.00036026613088324666
56.0,-0.00048236650764010847
60.0,-0.0006962699117138982
64.0,-0.0008833944448269904
72.0,-0.000584496243391186
80.0,0.0002407956781098619
88.0,-0.00020315371511969715
96.0,0.00010048611147794873
104.0,9.069519728654996e-05
112.0,-0.00017902256513480097
120.0,-0.00016342569142580032
128.0,-0.00010571963503025472
144.0,0.0001347255165455863
160.0,0.00010783341713249683
176.0,-0.000666541513055563
192.0,-0.00021371942420955747
208.0,-1.911236540763639e-05
224.0,0.0004923864034935832
240.0,0.0005187785718590021
256.0,0.0007118236389942467
288.0,0.00011048401211155578
320.0,-0.0006410931819118559
352.0,-0.0004566923016682267
384.0,-0.0006961456965655088
416.0,0.00031599693465977907
448.0,0.0006002726149745286
480.0,0.00024075307010207325
512.0,0.0004908709670417011
576.0,4.6224256948335096e-05
640.0,-0.00029250350780785084
704.0,-0.00011313553113723174
768.0,-0.0002157053822884336
832.0,7.838260353310034e-05
896.0,-2.2245989384828135e-05
960.0,0.00022673181956633925
1024.0,0.00039878947427496314
1152.0,0.000319780403515324
1280.0,-0.00010597545769996941
1408.0,0.00018561049364507198
1536.0,-0.00023662032617721707
1664.0,0.0002937199315056205
1792.0,-0.00038707329076714814
1920.0,9.686785779194906e-05
2048.0,-0.0001470697607146576
2304.0,0.00021443227888084948
2560.0,-2.8609389119083062e-05
2816.0,1.1752821592381224e-05
3072.0,4.928756243316457e-05
3328.0,0.0002036260557360947
3584.0,-0.00017084559658542275
3840.0,-0.0003626694669947028
4096.0,2.9474096663761884e-05
4608.0,-0.0002714032307267189
5120.0,-1.2412532669259235e-05
5632.0,-0.00017385731916874647
6144.0,-7.445384107995778e-05
6656.0,-0.0003328647871967405
7168.0,-7.555857882834971e-05
7680.0,-2.4026563551160507e-05
8192.0,0.0001279059360967949
9216.0,-8.633823017589748e-05
10240.0,0.0001214785806951113
11264.0,0.00012687325943261385
12288.0,4.244015508447774e-05
13312.0,0.00015935322153382003
14336.0,-3.2057457701739622e-06
end
