version,3.0
numOfCh,1
type,point
parent_name,1000-cuts
ch_type,1_1
kcount,1
numberNandB,1
brightnessNandB,1
carpet pos,0
pc,0
Time (ms),CH1 Auto-Correlation
1.0,0.015392203815281391
2.0,0.01178013440221548
3.0,0.009210102260112762
4.0,0.0072774034924805164
5.0,0.005951119586825371
6.0,0.004963262006640434
7.0,0.0040540387853980064
8.0,0.003407655516639352
9.0,0.0028537693433463573
10.0,0.0024854205548763275
11.0,0.0021428002510219812
12.0,0.0018134784186258912
13.0,0.0016451579285785556
14.0,0.0013772521633654833
15.0,0.001049427199177444
16.0,0.0009007504559122026
18.0,0.0007041882490739226
20.0,0.00046480793389491737
22.0,0.0003476619313005358
24.0,0.00017667619977146387
26.0,0.00019396647985558957
28.0,0.00024437709362246096
30.0,0.00011556598474271595
32.0,-0.00012380353291518986
36.0,-0.00019288339535705745
40.0,-0.0002440295065753162
44.0,-0.00022867028019391
48.0,-0.0002551718207541853
52.0,0.00017174961976706982
56.0,0.0003009742358699441
60.0,0.00013603625120595098
64.0,0.00012331787729635835
72.0,-8.062855340540409e-05
80.0,0.0003533452400006354
88.0,0.0006425855681300163
96.0,0.0003855102986562997
104.0,0.00022904343495611101
112.0,-0.00048502316349186003
120.0,-0.00033784721745178103
128.0,-0.0004002320929430425
144.0,9.166007657768205e-06
160.0,0.00027389894239604473
176.0,0.00021456227113958448
192.0,0.00020182816660963
208.0,0.0002598839928396046
224.0,-0.00022308184998109937
240.0,-0.00025169277796521783
256.0,-2.4433318685623817e-05
288.0,0.0001609147002454847
320.0,-0.00026351737324148417
352.0,-6.015961389493896e-06
384.0,9.628354018786922e-05
416.0,6.025104084983468e-05
448.0,5.7374287280254066e-05
480.0,-3.475066478131339e-05
512.0,-0.00034785657771863043
576.0,-0.0002489256439730525
640.0,-0.00018292409367859364
704.0,-1.0126736924576107e-05
768.0,0.00015859994164202362
832.0,0.00011317169264657423
896.0,5.308329036779469e-06
960.0,-0.0001235429517691955
1024.0,2.605592271720525e-05
1152.0,1.3683079487236682e-05
1280.0,0.0001630564802326262
1408.0,-8.264041753136553e-06
1536.0,-3.9380418456858024e-05
1664.0,-3.975856816396117e-05
1792.0,0.0001248326152563095
1920.0,1.3238966857898049e-05
2048.0,-0.00012854990200139582
2304.0,-4.2535502871032804e-06
2560.0,8.490650361636654e-05
2816.0,-7.1522212238051e-05
3072.0,-0.00013268082693684846
3328.0,-8.873832848621532e-05
3584.0,2.7006404707208276e-05
3840.0,3.7020806757936953e-06
4096.0,-7.286315667442977e-05
4608.0,3.703325637616217e-05
5120.0,-9.835424862103537e-06
5632.0,-0.00013602440594695508
6144.0,4.5766792027279735e-05
6656.0,7.190667383838445e-05
7168.0,-2.969365414173808e-05
7680.0,-1.726089249132201e-05
8192.0,-1.957057975232601e-05
9216.0,5.0178769015474245e-05
10240.0,5.893199340789579e-05
11264.0,0.00010174448834732175
12288.0,-6.50910587864928e-05
13312.0,-0.0001453251315979287
14336.0,-0.0002053955540759489
end
