version,3.0
numOfCh,1
type,point
parent_name,1000-cuts
ch_type,1_1
kcount,1
numberNandB,1
brightnessNandB,1
carpet pos,0
pc,0
Time (ms),CH1 Auto-Correlation
1.0,0.026453416794538498
2.0,0.020509520545601845
3.0,0.016317641362547874
4.0,0.013300767168402672
5.0,0.010913972742855549
6.0,0.009153765626251698
7.0,0.007655222434550524
8.0,0.006353861186653376
9.0,0.005357679445296526
10.0,0.004642967600375414
11.0,0.003960917238146067
12.0,0.0033750419970601797
13.0,0.0031201501842588186
14.0,0.0027445564046502113
15.0,0.0024203197099268436
16.0,0.0019304784946143627
18.0,0.0013698486145585775
20.0,0.0010505255777388811
22.0,0.0006793610518798232
24.0,0.0007308492204174399
26.0,0.0007613594643771648
28.0,0.0005727855605073273
30.0,0.00014326452219393104
32.0,0.00018424383597448468
36.0,3.907896825694479e-05
40.0,-0.00048546798643656075
44.0,-0.000496081484016031
48.0,-0.00030358642106875777
52.0,-0.0004230855265632272
56.0,-0.0006406932952813804
60.0,-0.0005679114256054163
64.0,-6.297640356933698e-05
72.0,0.00012683220847975463
80.0,9.795911319088191e-05
88.0,0.00046356403618119657
96.0,0.00031547239632345736
104.0,0.0004960234509781003
112.0,0.00019608295406214893
120.0,0.0002368363639106974
128.0,-0.00019006174989044666
144.0,-6.791036139475182e-05
160.0,0.00011206026829313487
176.0,-0.00023662045714445412
192.0,-0.00021225477394182235
208.0,-0.0005813593743368983
224.0,-0.0004793878470081836
240.0,-0.0007374474662356079
256.0,-3.1088558898773044e-05
288.0,0.00043627535342238843
320.0,-0.0006572152487933636
352.0,-0.00021628756076097488
384.0,0.00022021745098754764
416.0,8.194269321393222e-05
448.0,0.00035228600609116256
480.0,0.00018213549628853798
512.0,-0.0002909664763137698
576.0,-0.00016823333862703294
640.0,-1.8560313037596643e-05
704.0,6.856371783214854e-06
768.0,-0.00022944343800190836
832.0,0.0002148875209968537
896.0,-0.0006565977819263935
960.0,0.00016583599790465087
1024.0,8.297119347844273e-05
1152.0,0.00011816723417723551
1280.0,-0.00017022195970639586
1408.0,9.1733409135486e-06
1536.0,-0.00011395374167477712
1664.0,-0.0003449320502113551
1792.0,0.00012765108840540051
1920.0,-0.00013188777666073292
2048.0,9.775769285624847e-05
2304.0,7.01565804774873e-05
2560.0,-4.043607987114228e-06
2816.0,0.00031863123876973987
3072.0,8.892646292224526e-05
3328.0,9.149208199232817e-05
3584.0,-0.00018381193513050675
3840.0,8.218449511332437e-05
4096.0,-0.0003389790654182434
4608.0,-3.929300874006003e-05
5120.0,3.07457048620563e-05
5632.0,0.00013138297072146088
6144.0,-0.00015298143262043595
6656.0,-4.940452981827548e-06
7168.0,-0.00024131739337462932
7680.0,-2.4817612938932143e-05
8192.0,0.00011518493556650355
9216.0,-9.482594759901986e-05
10240.0,-6.061872045393102e-05
11264.0,0.00018081052985507995
12288.0,-0.0001615627552382648
13312.0,0.00012931872333865613
14336.0,-5.292018613545224e-05
end
