version,3.0
numOfCh,1
type,point
parent_name,1000-cuts
ch_type,1_1
kcount,1
numberNandB,1
brightnessNandB,1
carpet pos,0
pc,0
Time (ms),CH1 Auto-Correlation
1.0,0.022893812507390976
2.0,0.017132990062236786
3.0,0.013479568995535374
4.0,0.01066595409065485
5.0,0.008599599823355675
6.0,0.007071396801620722
7.0,0.005820035468786955
8.0,0.004855169449001551
9.0,0.004303924739360809
10.0,0.0036073639057576656
11.0,0.0029378095641732216
12.0,0.0027126886416226625
13.0,0.002410619053989649
14.0,0.0021313985344022512
15.0,0.0019153569592162967
16.0,0.001775764743797481
18.0,0.0013634064234793186
20.0,0.000944957253523171
22.0,0.00047269664355553687
24.0,0.00021920414292253554
26.0,-2.899499850173015e-05
28.0,-0.00013325917825568467
30.0,-0.00014635763363912702
32.0,0.000252541562076658
36.0,8.215952789214498e-07
40.0,7.742176967440173e-05
44.0,0.00024909572675824165
48.0,4.121816891711205e-05
52.0,-1.9529974451870658e-05
56.0,1.3639299822898465e-06
60.0,0.000300359824905172
64.0,0.0003829011111520231
72.0,0.0006925287307240069
80.0,0.0008507437305524945
88.0,0.00028091741842217743
96.0,-9.500568557996303e-05
104.0,5.074607543065213e-06
112.0,-6.091816248954274e-05
120.0,4.8182478167291265e-06
128.0,-0.00044821048504672945
144.0,-1.356440861854935e-05
160.0,-0.0007850030669942498
176.0,-0.0006661521038040519
192.0,-9.417052933713421e-05
208.0,-0.00021412462228909135
224.0,-0.0001866312959464267
240.0,-0.00026743594207800925
256.0,-0.0005674635176546872
288.0,0.000455172557849437
320.0,0.0003727251896634698
352.0,-2.3700044039287604e-05
384.0,2.216143548139371e-05
416.0,-0.00018297081987839192
448.0,-0.0001817008451325819
480.0,0.00011757611355278641
512.0,2.8434804335120134e-05
576.0,4.0871040255296975e-05
640.0,-5.54362777620554e-05
704.0,0.00026615310343913734
768.0,0.00012318752123974264
832.0,2.0905536075588316e-05
896.0,4.8824982513906434e-05
960.0,0.0001964460388990119
1024.0,-0.00013500545173883438
1152.0,-0.0005313967703841627
1280.0,0.0002299332554684952
1408.0,-5.4949803597992286e-05
1536.0,-6.609863339690492e-05
1664.0,-0.00019608305592555553
1792.0,-9.215983300236985e-05
1920.0,-0.00029412293224595487
2048.0,-6.886172923259437e-05
2304.0,0.0001297925045946613
2560.0,3.5832326830131933e-06
2816.0,0.00010458761244080961
3072.0,0.00027650996344164014
3328.0,-1.355721633444773e-05
3584.0,-2.8883054255857132e-05
3840.0,-4.937684934702702e-05
4096.0,-0.00017076931544579566
4608.0,-3.47701643477194e-05
5120.0,-7.264490704983473e-05
5632.0,7.125027332222089e-05
6144.0,0.00012791318295057863
6656.0,4.348676884546876e-05
7168.0,-7.255316177179338e-06
7680.0,-8.611563680460677e-05
8192.0,4.462923971004784e-05
9216.0,-4.3688709411071613e-05
10240.0,9.1220012109261e-05
11264.0,-0.00023102429986465722
12288.0,-9.05830311239697e-05
13312.0,0.00023962643172126263
14336.0,-0.0002933905634563416
end
