version,3.0
numOfCh,1
type,point
parent_name,1000-cuts
ch_type,1_1
kcount,1
numberNandB,1
brightnessNandB,1
carpet pos,0
pc,0
Time (ms),CH1 Auto-Correlation
1.0,0.015027069486677647
2.0,0.011504484340548515
3.0,0.008991476148366928
4.0,0.007173148449510336
5.0,0.0057913437485694885
6.0,0.004775460809469223
7.0,0.003948444500565529
8.0,0.003352898173034191
9.0,0.0028513206634670496
10.0,0.002544864546507597
11.0,0.0022583536338061094
12.0,0.0019606882706284523
13.0,0.0017143161967396736
14.0,0.001498419209383428
15.0,0.0012760203098878264
16.0,0.001200794824399054
18.0,0.0010967305861413479
20.0,0.0009714155457913876
22.0,0.0008887829026207328
24.0,0.0007586505962535739
26.0,0.0004975004703737795
28.0,0.00026883650571107864
30.0,0.0002841463719960302
32.0,0.000405825674533844
36.0,0.0003136716259177774
40.0,0.00023182682343758643
44.0,2.9705308406846598e-05
48.0,5.936094021308236e-05
52.0,0.0001477465411880985
56.0,0.0002636494755279273
60.0,0.00037159750354476273
64.0,6.010104698361829e-05
72.0,-0.00020514683274086565
80.0,-0.00032386905513703823
88.0,-0.00013690457853954285
96.0,-1.3576553101302125e-05
104.0,0.00022976487525738776
112.0,3.2548483432037756e-05
120.0,-6.604840018553659e-05
128.0,0.00019102715305052698
144.0,0.00045604640035890043
160.0,0.0005950667546130717
176.0,0.0006154343718662858
192.0,0.0004155731585342437
208.0,0.00034079706529155374
224.0,0.00014904809358995408
240.0,-0.0002144808240700513
256.0,-3.155415106448345e-05
288.0,6.493001274066046e-05
320.0,0.00019123720994684845
352.0,0.00046492478577420115
384.0,2.7447069442132488e-05
416.0,0.00010530395229579881
448.0,-0.0001247236505150795
480.0,0.0003275158233009279
512.0,-1.9529061319190077e-05
576.0,-8.546194294467568e-05
640.0,8.965536835603416e-05
704.0,0.00019085319945588708
768.0,-4.661923594539985e-05
832.0,6.20309729129076e-05
896.0,-6.26877008471638e-05
960.0,0.00015251111472025514
1024.0,0.0001437776954844594
1152.0,-0.0001989012525882572
1280.0,-0.00017826302791945636
1408.0,-8.322313806274906e-05
1536.0,-0.0002944668522104621
1664.0,-0.00021649940754286945
1792.0,-0.0004052806762047112
1920.0,2.7320862500346266e-05
2048.0,-0.0002858549705706537
2304.0,-9.462854359298944e-05
2560.0,-3.925225246348418e-05
2816.0,-7.999684385140426e-06
3072.0,0.00010888952965615317
3328.0,0.00023440724180545658
3584.0,0.00011320834164507687
3840.0,-2.9309156161616556e-05
4096.0,-1.3812747965857852e-05
4608.0,2.201908137067221e-05
5120.0,1.9206168872187845e-05
5632.0,-2.390280678810086e-05
6144.0,-0.00012521266762632877
6656.0,-0.00021786970319226384
7168.0,-0.0001371493999613449
7680.0,0.00010798947187140584
8192.0,0.00020693271653726697
9216.0,4.8392219468951225e-05
10240.0,-0.00021113343245815486
11264.0,9.860934369498864e-06
12288.0,0.0001223247090820223
13312.0,-4.8072750360006467e-05
14336.0,-3.203778760507703e-05
end
