version,3.0
numOfCh,1
type,point
parent_name,1000-cuts
ch_type,1_1
kcount,1
numberNandB,1
brightnessNandB,1
carpet pos,0
pc,0
Time (ms),CH1 Auto-Correlation
1.0,0.015450134873390198
2.0,0.011804485693573952
3.0,0.009279504418373108
4.0,0.007439851760864258
5.0,0.0061433264054358006
6.0,0.005161530338227749
7.0,0.004522364586591721
8.0,0.003861487377434969
9.0,0.003240433055907488
10.0,0.002758866408839822
11.0,0.0023366890382021666
12.0,0.0020874193869531155
13.0,0.0017421568045392632
14.0,0.001510667148977518
15.0,0.001418698695488274
16.0,0.0012075552949681878
18.0,0.0009927405044436455
20.0,0.0007873605936765671
22.0,0.0007432841812260449
24.0,0.0005897125229239464
26.0,0.0004886481910943985
28.0,0.00042060823761858046
30.0,0.000515416671987623
32.0,0.00042879284592345357
36.0,0.00022755982354283333
40.0,0.0001790053938748315
44.0,0.0003273493784945458
48.0,0.000553821912035346
52.0,0.0006617641192860901
56.0,0.0005157108535058796
60.0,0.0003643889504019171
64.0,0.00020851209410466254
72.0,0.00017387796833645552
80.0,0.00033855720539577305
88.0,0.0001817039301386103
96.0,1.856321978266351e-05
104.0,-0.00036884789005853236
112.0,-0.00048490677727386355
120.0,-0.0003156960883643478
128.0,-0.000390164292184636
144.0,-2.261507870571222e-05
160.0,-9.745561692398041e-05
176.0,-0.00030679680639877915
192.0,-0.00037573560257442296
208.0,-1.0194079550274182e-05
224.0,0.00019156490452587605
240.0,-1.1165237083332613e-05
256.0,4.0315204387297854e-05
288.0,9.894272079691291e-05
320.0,-2.0048087208124343e-06
352.0,-0.00016247729945462197
384.0,-0.00016095011960715055
416.0,-0.00023843912640586495
448.0,-9.864726598607376e-05
480.0,-5.812840390717611e-05
512.0,-0.0001114415135816671
576.0,-0.00018651447317097336
640.0,-0.0001263578305952251
704.0,-0.0004949669819325209
768.0,-0.00013154131011106074
832.0,0.00015286984853446484
896.0,2.766552279354073e-05
960.0,-0.00021115738491062075
1024.0,-5.4922573326621205e-05
1152.0,-0.0002826592535711825
1280.0,0.00012397974205669016
1408.0,-8.266315126093104e-05
1536.0,-8.888475713320076e-05
1664.0,3.284796548541635e-05
1792.0,0.0001954049221239984
1920.0,0.0001980800152523443
2048.0,-6.7901742113463115e-06
2304.0,-0.00016455459990538657
2560.0,-1.2421001883922145e-05
2816.0,-2.45833089138614e-05
3072.0,-6.267528533498989e-06
3328.0,-4.742165401694365e-05
3584.0,0.00012538272130768746
3840.0,-0.0001206252200063318
4096.0,-1.5898895071586594e-05
4608.0,0.0001629978942219168
5120.0,-9.439496352570131e-05
5632.0,4.830041871173307e-05
6144.0,-8.234925189753994e-05
6656.0,4.2988864151993766e-05
7168.0,-5.2943236369173974e-05
7680.0,6.532280531246215e-05
8192.0,1.607899321243167e-06
9216.0,-6.092818875913508e-05
10240.0,0.00010354423284297809
11264.0,-0.00011907283624168485
12288.0,0.0001235056115547195
13312.0,-0.00014810924767516553
14336.0,0.00018777436343953013
end
