version,3.0
numOfCh,1
type,point
parent_name,1000-cuts
ch_type,1_1
kcount,1
numberNandB,1
brightnessNandB,1
carpet pos,0
pc,0
Time (ms),CH1 Auto-Correlation
1.0,0.015162020921707153
2.0,0.011637001298367977
3.0,0.009215518832206726
4.0,0.007415624801069498
5.0,0.006218451540917158
6.0,0.005181032232940197
7.0,0.004334325902163982
8.0,0.0035200826823711395
9.0,0.002831021323800087
10.0,0.0024168011732399464
11.0,0.00202256185002625
12.0,0.0016068792901933193
13.0,0.0012545831268653274
14.0,0.0010754673276096582
15.0,0.0010139108635485172
16.0,0.0008504684665240347
18.0,0.00040775223169475794
20.0,0.0001707540504867211
22.0,0.0001501426158938557
24.0,0.00011295620788587257
26.0,0.0001744769251672551
28.0,0.0002437520306557417
30.0,0.00013736893015448004
32.0,-7.916074537206441e-05
36.0,-0.00023770540428813547
40.0,-0.000491541635710746
44.0,-0.00048054769285954535
48.0,-0.0005965082673355937
52.0,-0.0007907480467110872
56.0,-0.0006570360856130719
60.0,-0.0006447734776884317
64.0,-0.0002062221901724115
72.0,0.00029667129274457693
80.0,-0.00010107584239449352
88.0,-0.0001229100744239986
96.0,-0.0003286306746304035
104.0,-0.00018651169375516474
112.0,-0.00021675605967175215
120.0,1.7658663637121208e-05
128.0,-0.00028340661083348095
144.0,-0.00031519136973656714
160.0,0.0001954813051270321
176.0,-0.00018306281708646566
192.0,-0.00010696396202547476
208.0,-9.389877232024446e-05
224.0,-6.706186104565859e-05
240.0,-0.00045715062879025936
256.0,-0.0002752458385657519
288.0,0.0003427285701036453
320.0,0.00017228530487045646
352.0,6.466688500950113e-05
384.0,-0.0001293784735025838
416.0,0.00012507928477134556
448.0,-0.0002779482747428119
480.0,-0.00015931378584355116
512.0,-8.882283145794645e-05
576.0,-0.00011690540122799575
640.0,1.4875671695335768e-05
704.0,0.00018242566147819161
768.0,-6.642466905759647e-05
832.0,-3.5389817639952525e-05
896.0,4.2665669752750546e-06
960.0,-5.8676640037447214e-05
1024.0,-0.00011494003410916775
1152.0,-0.0001363760238746181
1280.0,0.00018276505579706281
1408.0,-0.00011282989726169035
1536.0,0.00011868534056702629
1664.0,-7.353995670200675e-07
1792.0,2.8339092750684358e-05
1920.0,-3.149626718368381e-05
2048.0,-9.410839265910909e-05
2304.0,2.6516354409977794e-06
2560.0,2.498168032616377e-05
2816.0,1.9055711391047225e-06
3072.0,-0.00011550903582246974
3328.0,5.0494560127845034e-05
3584.0,-7.832458504708484e-05
3840.0,-3.533505150699057e-05
4096.0,4.6730998292332515e-05
4608.0,5.625448466162197e-05
5120.0,-1.9154760593664832e-05
5632.0,6.788209429942071e-05
6144.0,-6.59642728351173e-06
6656.0,-6.26211185590364e-05
7168.0,-9.179103653877974e-05
7680.0,4.077048288309015e-05
8192.0,2.3394988602376543e-05
9216.0,-3.759044557227753e-05
10240.0,0.00011078701936639845
11264.0,-3.8864658563397825e-05
12288.0,3.7503279600059614e-05
13312.0,-7.806929352227598e-05
14336.0,-4.289666685508564e-05
end
