version,3.0
numOfCh,1
type,point
parent_name,1000-cuts
ch_type,1_1
kcount,1
numberNandB,1
brightnessNandB,1
carpet pos,0
pc,0
Time (ms),CH1 Auto-Correlation
1.0,0.015683868899941444
2.0,0.012129350565373898
3.0,0.009552470408380032
4.0,0.007735424675047398
5.0,0.006441152188926935
6.0,0.005431447643786669
7.0,0.004641927778720856
8.0,0.004000181332230568
9.0,0.003525388427078724
10.0,0.003161756321787834
11.0,0.002846136689186096
12.0,0.002554821316152811
13.0,0.0022596227936446667
14.0,0.0018663726514205337
15.0,0.0015762869734317064
16.0,0.0011908062733709812
18.0,0.0009040793520398438
20.0,0.0006686951383017004
22.0,0.0005212375544942915
24.0,0.0002633271797094494
26.0,5.556022370001301e-05
28.0,4.107041240786202e-05
30.0,3.6589158298738766e-06
32.0,0.00015714259643573314
36.0,-3.72254362446256e-05
40.0,0.00012098972365492955
44.0,0.00021350359020289034
48.0,0.0005166504997760057
52.0,0.00070719956420362
56.0,0.0006448850035667419
60.0,0.0004957392229698598
64.0,0.00036903363070450723
72.0,2.9241769880172797e-05
80.0,-0.00016745967150200158
88.0,-0.00046437085256911814
96.0,-0.0004058980557601899
104.0,0.0002083830040646717
112.0,0.00034938519820570946
120.0,0.0005276824231259525
128.0,0.00045229829265736043
144.0,-0.00010427189408801496
160.0,0.00013448712707031518
176.0,0.00021465592726599425
192.0,1.3858279089618009e-05
208.0,-0.00019539095228537917
224.0,-6.22128800387145e-06
240.0,-1.919391070259735e-05
256.0,-0.00014246876526158303
288.0,0.0002475175424478948
320.0,0.00014867635036353022
352.0,-0.0003102469490841031
384.0,-0.00022514328884426504
416.0,7.061080395942554e-05
448.0,-8.21193098090589e-05
480.0,-0.00022016426373738796
512.0,-0.00046498412848450243
576.0,-8.349766721948981e-05
640.0,0.00012340371904429048
704.0,-3.7205393255135277e-06
768.0,0.0001592021872056648
832.0,-4.7563284169882536e-05
896.0,-0.00011007951252395287
960.0,-8.181127486750484e-05
1024.0,-7.063505472615361e-05
1152.0,4.7958368668332696e-05
1280.0,-6.455061520682648e-05
1408.0,-0.0004421414341777563
1536.0,-0.0001153762495960109
1664.0,-0.00018939166329801083
1792.0,0.00023367657558992505
1920.0,9.008873166749254e-05
2048.0,-7.647614256711677e-05
2304.0,5.006279388908297e-05
2560.0,-1.8375238141743466e-05
2816.0,9.51426918618381e-05
3072.0,-9.475759725319222e-05
3328.0,-0.00031203319667838514
3584.0,9.993143612518907e-05
3840.0,-6.955263233976439e-05
4096.0,7.058479968691245e-05
4608.0,8.584477473050356e-05
5120.0,-1.8960921806865372e-05
5632.0,9.916331327985972e-05
6144.0,-6.613368896069005e-05
6656.0,7.640412513865158e-05
7168.0,-8.746570529183373e-05
7680.0,-1.7723349401421729e-06
8192.0,-3.754932913579978e-05
9216.0,-3.920676317648031e-05
10240.0,-3.683093837025808e-06
11264.0,-2.294259138579946e-05
12288.0,-1.3073092759441352e-06
13312.0,8.234511187765747e-05
14336.0,-6.333082637866028e-06
end
