version,3.0
numOfCh,1
type,point
parent_name,1000-cuts
ch_type,1_1
kcount,1
numberNandB,1
brightnessNandB,1
carpet pos,0
pc,0
Time (ms),CH1 Auto-Correlation
1.0,0.01573670469224453
2.0,0.012036917731165886
3.0,0.009497363120317459
4.0,0.0075231511145830154
5.0,0.0060621462762355804
6.0,0.004844363313168287
7.0,0.0039407722651958466
8.0,0.003199485596269369
9.0,0.002608285052701831
10.0,0.002199203707277775
11.0,0.0017227540956810117
12.0,0.0013304367894306779
13.0,0.001181608298793435
14.0,0.0010336590930819511
15.0,0.0007467406685464084
16.0,0.0003938963345717639
18.0,-3.577853931346908e-05
20.0,-9.54274510149844e-05
22.0,-0.00013944860256742686
24.0,1.9704142687260173e-05
26.0,0.0002423064288450405
28.0,0.0001067486809915863
30.0,-9.21824321267195e-05
32.0,-0.00014782552898395807
36.0,6.25793618382886e-05
40.0,0.00036144437035545707
44.0,0.000368363136658445
48.0,0.0002826659183483571
52.0,0.000423647667048499
56.0,0.00023703041370026767
60.0,6.202839722391218e-05
64.0,0.00029396163881756365
72.0,-0.0004692465881817043
80.0,-0.0005083876312710345
88.0,-0.00016098818741738796
96.0,3.394511804799549e-05
104.0,-0.00012703295215032995
112.0,0.00022943680232856423
120.0,0.0002872532932087779
128.0,-0.00023684385814704
144.0,-0.00032345985528081656
160.0,-5.390483420342207e-05
176.0,4.9390990170650184e-05
192.0,-0.00010762589954538271
208.0,-0.00012813786452170461
224.0,-6.575637235073373e-05
240.0,0.00031977921025827527
256.0,0.00051762635121122
288.0,8.472097761114128e-06
320.0,-0.0002939846890512854
352.0,-0.0001352140970993787
384.0,-0.0003662081726361066
416.0,-0.00020006689010187984
448.0,-0.00023645783949177712
480.0,6.700832454953343e-05
512.0,-8.23634909465909e-05
576.0,5.937801688560285e-05
640.0,-4.5000851969234645e-05
704.0,-9.669739665696397e-05
768.0,-2.244652023364324e-05
832.0,9.186676470562816e-05
896.0,0.0001357805449515581
960.0,-4.7696717956569046e-05
1024.0,1.9869530660798773e-05
1152.0,-0.00023597168910782784
1280.0,9.277992649003863e-05
1408.0,-0.00024531944654881954
1536.0,0.00016884693468455225
1664.0,0.00010395592835266143
1792.0,9.128836973104626e-05
1920.0,5.207153662922792e-05
2048.0,9.990101716539357e-06
2304.0,-7.933148299343884e-05
2560.0,0.00010840781760634854
2816.0,-3.630298306234181e-05
3072.0,-3.869584179483354e-05
3328.0,-0.00016494747251272202
3584.0,0.00018419288971927017
3840.0,-6.190394196892157e-05
4096.0,1.797765253286343e-05
4608.0,2.763533302641008e-05
5120.0,-4.1439911001361907e-05
5632.0,-3.777247911784798e-05
6144.0,1.244125724042533e-05
6656.0,-9.841940482147038e-06
7168.0,-5.5174965382320806e-05
7680.0,-8.108769543468952e-05
8192.0,1.9342269297339953e-05
9216.0,-4.1756229620659724e-05
10240.0,8.273924322566018e-05
11264.0,-8.31518536870135e-06
12288.0,-1.4741464838152751e-05
13312.0,1.6730842617107555e-05
14336.0,8.538855763617903e-05
end
