version,3.0
numOfCh,1
type,point
parent_name,1000-cuts
ch_type,1_1
kcount,1
numberNandB,1
brightnessNandB,1
carpet pos,0
pc,0
Time (ms),CH1 Auto-Correlation
1.0,0.015358318574726582
2.0,0.011725552380084991
3.0,0.0092034125700593
4.0,0.007420601788908243
5.0,0.006071430165320635
6.0,0.005027655977755785
7.0,0.004261469934135675
8.0,0.0037216569762676954
9.0,0.0031767196487635374
10.0,0.002830687677487731
11.0,0.0026235508266836405
12.0,0.0023276631254702806
13.0,0.0021041783038526773
14.0,0.0018631390994414687
15.0,0.0016257667448371649
16.0,0.0014437922509387136
18.0,0.0012036183616146445
20.0,0.0008986436296254396
22.0,0.0009035022812895477
24.0,0.0009769833413884044
26.0,0.0008878997177816927
28.0,0.0006106726359575987
30.0,0.0003921421885024756
32.0,0.00019280040578451008
36.0,0.0003188542032148689
40.0,0.00013079459313303232
44.0,0.0002579444262664765
48.0,0.0001841395569499582
52.0,4.852870915783569e-06
56.0,-7.613701018271968e-05
60.0,-0.00035491312155500054
64.0,-0.00040799612179398537
72.0,-0.00044732485548593104
80.0,-0.00024044871679507196
88.0,0.00017125048907473683
96.0,0.0003580609627533704
104.0,-2.2962221919442527e-05
112.0,-0.00016048524412326515
120.0,4.618274761014618e-05
128.0,0.0001771699171513319
144.0,0.00016303187294397503
160.0,-0.00023102994600776583
176.0,0.00043999197077937424
192.0,0.0002876910148188472
208.0,0.00015703639655839652
224.0,8.324065856868401e-05
240.0,-6.28913621767424e-05
256.0,2.7119580408907495e-05
288.0,8.514276123605669e-05
320.0,0.00013397114526014775
352.0,0.0004573918122332543
384.0,0.0004793718399014324
416.0,-7.875412848079577e-06
448.0,5.0367339099466335e-06
480.0,0.0003826431930065155
512.0,-6.214305176399648e-05
576.0,0.00012916857667732984
640.0,0.00012545663048513234
704.0,3.0290064387372695e-05
768.0,8.976127719506621e-05
832.0,-0.0001475321623729542
896.0,-0.0004000220797024667
960.0,-0.0001341264578513801
1024.0,-1.939598223543726e-05
1152.0,-0.0002227219083579257
1280.0,1.2569056707434356e-05
1408.0,-9.819208207773045e-05
1536.0,-0.00023995357332751155
1664.0,8.054183126660064e-05
1792.0,0.00016785733168944716
1920.0,-8.722055645193905e-05
2048.0,3.288988955318928e-05
2304.0,7.404105872410582e-06
2560.0,-9.086015779757872e-05
2816.0,-9.347221748612355e-06
3072.0,7.341565378737869e-06
3328.0,-4.8456542572239414e-05
3584.0,-3.336655572638847e-05
3840.0,6.439907883759588e-05
4096.0,-9.589378169039264e-05
4608.0,-0.00012309975863900036
5120.0,-5.0983635446755216e-05
5632.0,8.780394273344427e-05
6144.0,0.00011089058534707874
6656.0,7.320705481106415e-05
7168.0,-6.034460602677427e-05
7680.0,-8.868281838658731e-06
8192.0,4.947770503349602e-05
9216.0,-3.5517747164703906e-05
10240.0,-5.9353715187171474e-05
11264.0,-0.00012612846330739558
12288.0,0.00023152577341534197
13312.0,-0.00011822809028672054
14336.0,-7.10663734935224e-05
end
