version,3.0
numOfCh,1
type,point
parent_name,1000-cuts
ch_type,1_1
kcount,1
numberNandB,1
brightnessNandB,1
carpet pos,0
pc,0
Time (ms),CH1 Auto-Correlation
1.0,0.015198830515146255
2.0,0.011719617061316967
3.0,0.009264448657631874
4.0,0.007565998937934637
5.0,0.0062484038062393665
6.0,0.005211584735661745
7.0,0.004347172100096941
8.0,0.0037324477452784777
9.0,0.00331430253572762
10.0,0.002981637604534626
11.0,0.002588511211797595
12.0,0.0024233569856733084
13.0,0.0021772868931293488
14.0,0.0019416891736909747
15.0,0.001678026164881885
16.0,0.001419879961758852
18.0,0.0011871440801769495
20.0,0.0012055422412231565
22.0,0.0010802206816151738
24.0,0.0009932169923558831
26.0,0.0008105049491859972
28.0,0.0006090413080528378
30.0,0.00025117152836173773
32.0,-5.68236100662034e-05
36.0,-0.000269387848675251
40.0,-0.0002555670798756182
44.0,-0.0002216663706349209
48.0,-0.00025272826314903796
52.0,0.00011184319737367332
56.0,0.00032019216450862586
60.0,0.00029859389178454876
64.0,0.0004120530793443322
72.0,0.000248435593675822
80.0,0.00021036204998381436
88.0,0.0005061165429651737
96.0,0.00037642649840563536
104.0,0.000472923245979473
112.0,0.0005371221923269331
120.0,0.0004358507285360247
128.0,0.0002878173254430294
144.0,3.658729838207364e-05
160.0,0.0002296571183251217
176.0,6.57404525554739e-05
192.0,9.444883289688732e-06
208.0,0.00032102791010402143
224.0,-0.00025060377083718777
240.0,0.00017506192671135068
256.0,0.00024230018607340753
288.0,-1.417574367224006e-05
320.0,2.470112121955026e-05
352.0,0.00019733190129045397
384.0,0.0002499941911082715
416.0,7.140639354474843e-05
448.0,5.375971522880718e-05
480.0,0.00034183001844212413
512.0,0.0003762835403904319
576.0,0.00021371213370002806
640.0,0.00023975453223101795
704.0,-4.530921160039725e-06
768.0,0.00016380393935833126
832.0,4.045888090331573e-06
896.0,9.896573465084657e-05
960.0,9.560096259519923e-06
1024.0,5.862744365003891e-05
1152.0,0.00015787870506756008
1280.0,-0.00013660622062161565
1408.0,0.00018761235696729273
1536.0,0.0001523407845525071
1664.0,2.6920195523416623e-05
1792.0,-0.00026172929210588336
1920.0,-0.0001983631227631122
2048.0,-0.0001608032762305811
2304.0,-9.841153223533183e-05
2560.0,-1.2168836292403284e-05
2816.0,-3.542532795108855e-05
3072.0,-3.0959183732193196e-06
3328.0,-3.2458442547067534e-06
3584.0,-5.229486123425886e-05
3840.0,-0.00021835534425918013
4096.0,-9.056610724655911e-05
4608.0,-0.0001315353438258171
5120.0,2.5439276214456186e-05
5632.0,4.372944022179581e-05
6144.0,0.00012108324881410226
6656.0,2.40522604144644e-05
7168.0,-0.00011481472029117867
7680.0,9.956173744285479e-05
8192.0,-7.462092526111519e-06
9216.0,-0.00014169291534926742
10240.0,-0.00039812398608773947
11264.0,-0.00019745265308301896
12288.0,0.00010917060717474669
13312.0,0.00026366484235040843
14336.0,0.0003109158715233207
end
