version,3.0
numOfCh,1
type,point
parent_name,1000-cuts
ch_type,1_1
kcount,1
numberNandB,1
brightnessNandB,1
carpet pos,0
pc,0
Time (ms),CH1 Auto-Correlation
1.0,0.014765439555048943
2.0,0.01133004855364561
3.0,0.008872628211975098
4.0,0.007099220063537359
5.0,0.005696474574506283
6.0,0.004671793431043625
7.0,0.0038108897861093283
8.0,0.0032130854669958353
9.0,0.0027489152271300554
10.0,0.0023295411374419928
11.0,0.0020763271022588015
12.0,0.0018143804045394063
13.0,0.0016295535024255514
14.0,0.0014340872876346111
15.0,0.0012909231008961797
16.0,0.0013017740566283464
18.0,0.001124497503042221
20.0,0.0007094144239090383
22.0,0.00038293914985843003
24.0,0.00026760553009808064
26.0,0.00021410957560874522
28.0,0.00014740614278707653
30.0,0.00012129573588026688
32.0,-0.00011588169581955299
36.0,-0.0003001460572704673
40.0,-0.00016580724332015961
44.0,1.0152478353120387e-05
48.0,0.00015873569645918906
52.0,6.839460547780618e-05
56.0,-2.5216177164111286e-05
60.0,-0.0001211361086461693
64.0,-0.0001386447111144662
72.0,-0.0002059522084891796
80.0,-0.0001840380282374099
88.0,-4.735036054626107e-05
96.0,0.00017283481429331005
104.0,5.692028480552835e-06
112.0,-0.0001901835057651624
120.0,3.1301111448556185e-05
128.0,9.845738532021642e-06
144.0,-0.0001646708115004003
160.0,0.00015536493447143584
176.0,0.00015081990568432957
192.0,8.204796176869422e-05
208.0,-9.046890045283362e-05
224.0,0.00019932295253966004
240.0,-0.00018617244495544583
256.0,-0.00040170448482967913
288.0,0.00047548109432682395
320.0,0.00022318621631711721
352.0,-0.0001462261425331235
384.0,-2.6527275622356683e-05
416.0,9.306002175435424e-05
448.0,-0.0001771208189893514
480.0,-0.00010756251140264794
512.0,-9.035057883011177e-05
576.0,7.284979074029252e-05
640.0,-5.908564344281331e-05
704.0,-0.00017906766152009368
768.0,-0.00015564658679068089
832.0,-0.0002360463549848646
896.0,2.225360913143959e-05
960.0,-5.61626220587641e-05
1024.0,-0.00021270208526402712
1152.0,5.485851215780713e-05
1280.0,4.956005068379454e-05
1408.0,0.00024542585015296936
1536.0,-2.7288728233543225e-05
1664.0,1.740432344377041e-05
1792.0,6.779899558750913e-05
1920.0,-6.722511898260564e-05
2048.0,-3.1200364901451394e-05
2304.0,-0.00018714668112806976
2560.0,6.914328423590632e-06
2816.0,7.284692401299253e-05
3072.0,3.8471800507977605e-05
3328.0,-0.00011453160550445318
3584.0,-2.5113833544310182e-05
3840.0,-4.6650602598674595e-05
4096.0,7.261658538482152e-06
4608.0,4.299290958442725e-05
5120.0,-5.096735185361467e-05
5632.0,-9.986102668335661e-06
6144.0,6.609332922380418e-05
6656.0,-8.685489592608064e-05
7168.0,7.365061173914e-05
7680.0,-2.7666710593621247e-05
8192.0,-6.002834561513737e-05
9216.0,-2.8171318263048306e-05
10240.0,-1.0638453204592224e-05
11264.0,-0.00012808648170903325
12288.0,-8.655244891997427e-05
13312.0,1.920101021823939e-05
14336.0,0.0002550675126258284
end
