version,3.0
numOfCh,1
type,point
parent_name,1000-cuts
ch_type,1_1
kcount,1
numberNandB,1
brightnessNandB,1
carpet pos,0
pc,0
Time (ms),CH1 Auto-Correlation
1.0,0.015781020745635033
2.0,0.012169464491307735
3.0,0.009656659327447414
4.0,0.007903509773314
5.0,0.006547892466187477
6.0,0.0053976066410541534
7.0,0.004459168761968613
8.0,0.003720146371051669
9.0,0.0032235111575573683
10.0,0.0028168244753032923
11.0,0.002337477868422866
12.0,0.0020350951235741377
13.0,0.0017122032586485147
14.0,0.0015611081616953015
15.0,0.0014858304057270288
16.0,0.001343756215646863
18.0,0.0010548942955210805
20.0,0.0006957284058444202
22.0,0.0005115767708048224
24.0,0.00028293250943534076
26.0,0.00016523200611118227
28.0,0.00011639947479125112
30.0,1.2437202713044826e-05
32.0,4.100041769561358e-05
36.0,7.995939085958526e-06
40.0,0.0002125017490470782
44.0,5.927582969889045e-05
48.0,-0.00021650322014465928
52.0,-0.00015624100342392921
56.0,-0.0001074734318535775
60.0,-2.7396687073633075e-05
64.0,-0.0001623022253625095
72.0,-0.0002858701627701521
80.0,-0.0005871391040273011
88.0,-0.00032854030723683536
96.0,-0.00046128974645398557
104.0,-0.00016883149510249496
112.0,-1.6154886907315813e-05
120.0,0.000319190148729831
128.0,0.00033404838177375495
144.0,3.830940113402903e-05
160.0,5.883344783796929e-05
176.0,0.0004142739635426551
192.0,-3.7077734305057675e-05
208.0,6.621849024668336e-05
224.0,5.0258036935701966e-05
240.0,-0.0004604895366355777
256.0,-0.00015001728024799377
288.0,-8.838033681968227e-05
320.0,-0.00016875896835699677
352.0,-0.00012068704381817952
384.0,0.0001375717401970178
416.0,-2.8518454200820997e-05
448.0,0.00024230270355474204
480.0,-0.0004130016313865781
512.0,-0.0002649231464602053
576.0,-5.07901786477305e-05
640.0,-4.578217340167612e-05
704.0,0.00012653226440306753
768.0,-6.584415677934885e-05
832.0,-0.00014993587683420628
896.0,-2.0974215658497997e-05
960.0,8.68140887178015e-06
1024.0,-0.00020074655185453594
1152.0,1.4563162039848976e-05
1280.0,-8.065824658842757e-05
1408.0,-4.5478722313418984e-05
1536.0,-7.662997086299583e-05
1664.0,-0.0002248256787424907
1792.0,8.057909144554287e-05
1920.0,-0.00012210414570290595
2048.0,0.00014995403762441128
2304.0,0.00016941118519753218
2560.0,-4.918317426927388e-05
2816.0,5.227909059613012e-05
3072.0,-0.00013864765060134232
3328.0,0.00010429909161757678
3584.0,-0.00022748872288502753
3840.0,4.047144830110483e-05
4096.0,0.00011344723316142336
4608.0,-5.312726352713071e-05
5120.0,4.7852630814304575e-05
5632.0,-0.00012691569281741977
6144.0,2.7337366191204637e-05
6656.0,-1.0940314496110659e-05
7168.0,3.479210499790497e-05
7680.0,1.271924156753812e-05
8192.0,-2.8381924494169652e-05
9216.0,2.7038706321036443e-05
10240.0,4.032916694995947e-05
11264.0,-1.0204972568317316e-05
12288.0,-0.00010928243864327669
13312.0,-4.057041587657295e-05
14336.0,0.00011421036469982937
end
