version,3.0
numOfCh,1
type,point
parent_name,1000-cuts
ch_type,1_1
kcount,1
numberNandB,1
brightnessNandB,1
carpet pos,0
pc,0
Time (ms),CH1 Auto-Correlation
1.0,0.015271291136741638
2.0,0.011926807463169098
3.0,0.009628701955080032
4.0,0.00792314950376749
5.0,0.006630858406424522
6.0,0.0056894863955676556
7.0,0.0049737002700567245
8.0,0.004417413845658302
9.0,0.0038577441591769457
10.0,0.003470041323453188
11.0,0.003038141643628478
12.0,0.002651350339874625
13.0,0.00236702268011868
14.0,0.0021381182596087456
15.0,0.0019332858501002192
16.0,0.0017474527703598142
18.0,0.0014117936370894313
20.0,0.0011684941127896309
22.0,0.0008080268162302673
24.0,0.000523140246514231
26.0,0.0004329541407059878
28.0,0.000550116237718612
30.0,0.0005336040630936623
32.0,0.0005935129593126476
36.0,0.0005780119099654257
40.0,0.0003391657373867929
44.0,1.1356987670296803e-06
48.0,-0.00024035836395341903
52.0,-0.00030389302992261946
56.0,-0.0002461264084558934
60.0,-8.24761955300346e-05
64.0,-6.178268085932359e-05
72.0,-0.0003042597963940352
80.0,4.1110786696663126e-05
88.0,5.350517312763259e-05
96.0,-1.8310698578716256e-05
104.0,0.00018023561278823763
112.0,0.0001068192723323591
120.0,0.00041918447823263705
128.0,0.0005989636993035674
144.0,9.162033529719338e-05
160.0,-4.172023182036355e-05
176.0,7.72751445765607e-05
192.0,-0.00018418199033476412
208.0,-6.530137034133077e-05
224.0,-0.0002759539638645947
240.0,-8.580573194194585e-05
256.0,-0.0002699789183679968
288.0,0.0002350232534809038
320.0,-1.1640006050583906e-05
352.0,8.772561704972759e-05
384.0,-0.00013229544856585562
416.0,9.621110075386241e-05
448.0,7.557123899459839e-05
480.0,0.00028886497602798045
512.0,0.00014720494800712913
576.0,-0.0002909621689468622
640.0,-7.102530798874795e-05
704.0,-0.0004084193496964872
768.0,-0.00027815683279186487
832.0,0.00013653030327986926
896.0,-5.9726957260863855e-05
960.0,0.00015900502330623567
1024.0,-3.439317879383452e-05
1152.0,-0.0003315065405331552
1280.0,-0.00016015760775189847
1408.0,7.096679473761469e-05
1536.0,0.0002793866442516446
1664.0,3.8660335121676326e-05
1792.0,0.00019695775699801743
1920.0,-8.557383989682421e-05
2048.0,8.279629400931299e-05
2304.0,-6.357699749059975e-05
2560.0,6.545101496158168e-05
2816.0,-6.18540434516035e-05
3072.0,8.159197022905573e-05
3328.0,3.931858009309508e-05
3584.0,-2.5630743039073423e-05
3840.0,4.479471317608841e-05
4096.0,-8.446371793979779e-05
4608.0,3.750644827960059e-05
5120.0,-9.463737114856485e-06
5632.0,-0.00010429826215840876
6144.0,-0.00012042689195368439
6656.0,-9.206948561768513e-06
7168.0,2.944644984381739e-05
7680.0,-6.474367546616122e-05
8192.0,-0.000176214671228081
9216.0,0.00020440685329958797
10240.0,-0.00018310025916434824
11264.0,0.00013115309411659837
12288.0,-1.3226016562839504e-05
13312.0,-3.7563111163763097e-06
14336.0,0.00010801829193951562
end
