version,3.0
numOfCh,1
type,point
parent_name,1000-cuts
ch_type,1_1
kcount,1
numberNandB,1
brightnessNandB,1
carpet pos,0
pc,0
Time (ms),CH1 Auto-Correlation
1.0,0.01631736382842064
2.0,0.012684347108006477
3.0,0.010105198249220848
4.0,0.008128575049340725
5.0,0.006713623646646738
6.0,0.005540338810533285
7.0,0.0046974411234259605
8.0,0.004046615678817034
9.0,0.0034790581557899714
10.0,0.003024940611794591
11.0,0.002611171454191208
12.0,0.002303096931427717
13.0,0.0021170922555029392
14.0,0.0020011020824313164
15.0,0.0018424706067889929
16.0,0.0017309982795268297
18.0,0.0014382728841155767
20.0,0.00119871087372303
22.0,0.0009620527853257954
24.0,0.000748634513001889
26.0,0.0006134091527201235
28.0,0.00048337996122427285
30.0,0.00024291881709359586
32.0,0.00017014920013025403
36.0,-3.616208414314315e-05
40.0,-0.00017379576456733048
44.0,-0.0001361841568723321
48.0,-0.00011349608394084498
52.0,-0.0003437029954511672
56.0,-0.000589055591262877
60.0,-0.0004716654948424548
64.0,-0.0003224980318918824
72.0,-7.144887058530003e-05
80.0,1.1566124157980084e-05
88.0,-5.018979663873324e-06
96.0,0.00020672284881584346
104.0,0.00020642812887672335
112.0,0.0001201400300487876
120.0,-0.0001496923214290291
128.0,-0.00021219236077740788
144.0,7.544419349869713e-05
160.0,0.00042529773782007396
176.0,0.00029516351060010493
192.0,0.0003102565824519843
208.0,0.0005517802783288062
224.0,0.00019658681412693113
240.0,0.00037283668643794954
256.0,0.00026248174253851175
288.0,0.000174091721419245
320.0,1.2794713256880641e-05
352.0,0.0002195774286519736
384.0,0.00012982475163880736
416.0,0.0004260142450220883
448.0,0.00010296228720108047
480.0,2.759961353149265e-05
512.0,-0.0002600191510282457
576.0,0.00012759058154188097
640.0,-0.0001638658286537975
704.0,-0.00021574829588644207
768.0,-1.0283147275913507e-05
832.0,-0.0001549550361232832
896.0,-0.00023042119573801756
960.0,2.571004915807862e-05
1024.0,-0.00023087758745532483
1152.0,-0.0003396464162506163
1280.0,-0.0002145063626812771
1408.0,-1.6990748918033205e-05
1536.0,-0.00022751698270440102
1664.0,-1.828374297474511e-05
1792.0,-4.2481085984036326e-05
1920.0,7.225258013932034e-05
2048.0,0.00010997647768817842
2304.0,6.102862607804127e-05
2560.0,0.00017447875870857388
2816.0,-8.761297794990242e-05
3072.0,7.821794497431256e-06
3328.0,-0.0001191076371469535
3584.0,1.9094450181000866e-05
3840.0,6.437257252400741e-05
4096.0,-4.3551597627811134e-05
4608.0,-0.00011908500164281577
5120.0,-0.00014141418796498328
5632.0,6.253223546082154e-05
6144.0,9.801388659980148e-05
6656.0,-4.792349864146672e-05
7168.0,-0.00011059523239964619
7680.0,7.172246841946617e-05
8192.0,3.053793989238329e-05
9216.0,-9.124358621193096e-05
10240.0,0.00020278862211853266
11264.0,-0.00021749146981164813
12288.0,-3.4852957469411194e-05
13312.0,0.00015238398918882012
14336.0,-6.890615622978657e-05
end
