version,3.0
numOfCh,1
type,point
parent_name,1000-cuts
ch_type,1_1
kcount,1
numberNandB,1
brightnessNandB,1
carpet pos,0
pc,0
Time (ms),CH1 Auto-Correlation
1.0,0.0248495414853096
2.0,0.01894190162420273
3.0,0.01492051500827074
4.0,0.011995377950370312
5.0,0.010236193425953388
6.0,0.008710624650120735
7.0,0.007327061612159014
8.0,0.006109511945396662
9.0,0.005106664262712002
10.0,0.004349531140178442
11.0,0.003578725503757596
12.0,0.002863918663933873
13.0,0.0024405131116509438
14.0,0.0020481073297560215
15.0,0.0018191663548350334
16.0,0.0018065731273964047
18.0,0.0016980001237243414
20.0,0.0016448991373181343
22.0,0.0016625961288809776
24.0,0.0016584309050813317
26.0,0.0014098557876423001
28.0,0.0011311742709949613
30.0,0.000894183584023267
32.0,0.000832043937407434
36.0,0.0008355564204975963
40.0,0.0010587304132059216
44.0,0.00075030408333987
48.0,9.134931315202266e-05
52.0,0.0003017436829395592
56.0,0.0003470376832410693
60.0,0.0007153463084250689
64.0,0.00038775967550463974
72.0,8.884133421815932e-06
80.0,-0.00019276191596873105
88.0,0.00023372424766421318
96.0,5.071020859759301e-05
104.0,4.12443550885655e-05
112.0,-0.00018160947365686297
120.0,0.00021430134074762464
128.0,0.0006213024025782943
144.0,-4.6524623030563816e-05
160.0,0.00014871766325086355
176.0,0.00029166563763283193
192.0,0.00014778795593883842
208.0,-0.0002891302574425936
224.0,9.030604269355536e-05
240.0,0.00015732619795016944
256.0,-5.9309459174983203e-05
288.0,0.0005038479575887322
320.0,-0.00024285801919177175
352.0,-0.00047588255256414413
384.0,-0.000647572276648134
416.0,-0.0003037448914255947
448.0,0.0005465054418891668
480.0,0.0008431802853010595
512.0,0.0002764991659205407
576.0,-6.969120249777916e-07
640.0,-0.0001779629965312779
704.0,-0.0009097094880416989
768.0,-0.0002823936229106039
832.0,-0.0007484077359549701
896.0,-0.0008020983659662306
960.0,6.006938565406017e-05
1024.0,2.149382999050431e-05
1152.0,5.010987297282554e-05
1280.0,-0.0003654393076431006
1408.0,-0.00012301445531193167
1536.0,0.00031383539317175746
1664.0,0.0003949197707697749
1792.0,8.41223809402436e-05
1920.0,6.628767005167902e-05
2048.0,-0.0002997166011482477
2304.0,-0.00023761835473123938
2560.0,7.989617006387562e-05
2816.0,0.00038468895945698023
3072.0,0.0004917570040561259
3328.0,-9.15247219381854e-05
3584.0,-0.00010585106065263972
3840.0,-0.0003180323401466012
4096.0,-0.00013133893662597984
4608.0,8.878396329237148e-05
5120.0,-7.885861850809306e-05
5632.0,0.00010374231351306662
6144.0,-0.00011413980973884463
6656.0,-0.00016012309060897678
7168.0,9.98411705950275e-05
7680.0,-4.703602462541312e-05
8192.0,5.2379178669070825e-05
9216.0,-0.0001763770414981991
10240.0,-8.664922643220052e-05
11264.0,6.448941712733358e-05
12288.0,-1.0379169452789938e-06
13312.0,-0.00015689722204115242
14336.0,0.00015957167488522828
end
