version,3.0
numOfCh,1
type,point
parent_name,1000-cuts
ch_type,1_1
kcount,1
numberNandB,1
brightnessNandB,1
carpet pos,0
pc,0
Time (ms),CH1 Auto-Correlation
1.0,0.01570291630923748
2.0,0.012115002609789371
3.0,0.009656021371483803
4.0,0.007937856949865818
5.0,0.006557546090334654
6.0,0.005452187266200781
7.0,0.004625631496310234
8.0,0.003971895202994347
9.0,0.0034287467133253813
10.0,0.0029696933925151825
11.0,0.0027487464249134064
12.0,0.0024563632905483246
13.0,0.002162921242415905
14.0,0.0019194395281374454
15.0,0.0017198360292240977
16.0,0.0016049861442297697
18.0,0.0011896577198058367
20.0,0.001000324496999383
22.0,0.0007653795764781535
24.0,0.0005294507718645036
26.0,0.00017144072626251727
28.0,3.444650428718887e-05
30.0,6.54291725368239e-05
32.0,3.71131427527871e-05
36.0,3.11573276121635e-05
40.0,1.897096080938354e-05
44.0,0.00012472382513806224
48.0,0.0002836690400727093
52.0,0.0001612002815818414
56.0,-7.65717268222943e-05
60.0,-0.00020241168385837227
64.0,-0.00038091998430900276
72.0,-9.491619130130857e-05
80.0,6.398142431862652e-05
88.0,6.593337457161397e-05
96.0,-0.0002679525059647858
104.0,-0.0005940222763456404
112.0,-0.0009387777536176145
120.0,-0.0004647658788599074
128.0,-0.00022029066167306155
144.0,0.00015431865176651627
160.0,0.0004767737409565598
176.0,0.00010900395864155143
192.0,-0.0002653194824233651
208.0,-8.038422674871981e-05
224.0,-0.000271807104581967
240.0,-0.00013418248272500932
256.0,-0.00023576566309202462
288.0,0.00017802551155909896
320.0,0.00022626821009907871
352.0,0.0004427308449521661
384.0,-8.212119428208098e-05
416.0,-0.000610480725299567
448.0,-0.00019519995839800686
480.0,-0.00022381372400559485
512.0,0.0001799485326046124
576.0,-0.0003731025499291718
640.0,-2.515164487704169e-05
704.0,-0.00016992463497444987
768.0,-9.201604552799836e-05
832.0,0.00012510144733823836
896.0,-2.6504700144869275e-05
960.0,-2.156762820959557e-05
1024.0,0.0003025989281013608
1152.0,0.0001541332167107612
1280.0,1.8102711692336015e-05
1408.0,-0.00015619808982592076
1536.0,0.00011030259338440374
1664.0,-2.8078513423679397e-05
1792.0,7.696951070101932e-05
1920.0,-8.899351087165996e-05
2048.0,0.00012989071547053754
2304.0,-8.218466973630711e-05
2560.0,2.5067743990803137e-05
2816.0,1.935677937581204e-05
3072.0,0.00015578752208966762
3328.0,-0.00013988447608426213
3584.0,1.3169327758077998e-05
3840.0,2.2109221390564926e-05
4096.0,-3.493540134513751e-05
4608.0,-1.1813765013357624e-05
5120.0,-3.694770930451341e-05
5632.0,-2.17212855204707e-05
6144.0,-6.558157474501058e-05
6656.0,7.281491707544774e-05
7168.0,-8.594474638812244e-05
7680.0,-4.260246714693494e-05
8192.0,-4.3487350922077894e-05
9216.0,-4.029144110972993e-05
10240.0,2.3728929591015913e-05
11264.0,-4.094501127838157e-05
12288.0,1.766210698406212e-05
13312.0,2.5426830688957125e-05
14336.0,3.182735963491723e-05
end
