version,3.0
numOfCh,1
type,point
parent_name,1000-cuts
ch_type,1_1
kcount,1
numberNandB,1
brightnessNandB,1
carpet pos,0
pc,0
Time (ms),CH1 Auto-Correlation
1.0,0.015676215291023254
2.0,0.01215697918087244
3.0,0.00968024879693985
4.0,0.007810135371983051
5.0,0.006503747310489416
6.0,0.0055974978022277355
7.0,0.00477865943685174
8.0,0.0041215610690414906
9.0,0.003572244429960847
10.0,0.0029615280218422413
11.0,0.0024439487606287003
12.0,0.002205904806032777
13.0,0.0019257018575444818
14.0,0.0017279238672927022
15.0,0.0015981278847903013
16.0,0.001513905357569456
18.0,0.0013647695304825902
20.0,0.0010890595149248838
22.0,0.0010043877409771085
24.0,0.0009283876861445606
26.0,0.0009108654921874404
28.0,0.0006174239097163081
30.0,0.0004829848767258227
32.0,0.0005053738132119179
36.0,6.988301902310923e-05
40.0,7.666839519515634e-05
44.0,2.7891132958757225e-06
48.0,-0.00018982468463946134
52.0,-7.108386057552707e-07
56.0,-0.00030507752671837807
60.0,-0.0003560555342119187
64.0,-0.0003962628252338618
72.0,-0.0004991291207261384
80.0,-0.0005641093011945486
88.0,-0.0005820132209919393
96.0,-0.000479205627925694
104.0,-0.000244462164118886
112.0,-0.00021386705338954926
120.0,-0.00038073628093115985
128.0,-0.00013234000653028488
144.0,0.00022281799465417862
160.0,0.0001248273329110816
176.0,0.00028018842567689717
192.0,0.00027372915064916015
208.0,0.0005338385235518217
224.0,0.00017758752801455557
240.0,0.00020486253197304904
256.0,-9.755817882250994e-05
288.0,0.00014615310647059232
320.0,4.9863228923641145e-05
352.0,-0.00022162028471939266
384.0,-9.983477502828464e-05
416.0,-6.407691398635507e-05
448.0,0.00022531786817125976
480.0,-0.0002205833443440497
512.0,0.00015851458010729402
576.0,8.72094533406198e-05
640.0,-0.00010358054714743048
704.0,-5.910695836064406e-05
768.0,0.0003489720984362066
832.0,-0.0003015263064298779
896.0,-0.0006002131849527359
960.0,4.1256091208197176e-05
1024.0,-4.6368237235583365e-05
1152.0,4.5300741476239637e-05
1280.0,-7.054135039652465e-06
1408.0,0.00017134469817392528
1536.0,-3.352838393766433e-05
1664.0,-0.00012347228766884655
1792.0,0.00011748020915547386
1920.0,9.55631403485313e-05
2048.0,-0.00021360220853239298
2304.0,9.08263882593019e-06
2560.0,7.834463031031191e-05
2816.0,8.163746088030166e-07
3072.0,0.00011415963672334328
3328.0,-0.00014470033056568354
3584.0,-0.0001356939465040341
3840.0,-0.00011793924932135269
4096.0,1.4809882486588322e-05
4608.0,-2.8221586489962647e-06
5120.0,-6.026755727361888e-05
5632.0,-4.011189957964234e-05
6144.0,2.950080670416355e-05
6656.0,-0.00011587639164645225
7168.0,-0.00015410002379212528
7680.0,0.00017970427870750427
8192.0,0.00016393113764934242
9216.0,1.7015423509292305e-05
10240.0,-3.818488767137751e-05
11264.0,0.00010372564429417253
12288.0,-4.625505971489474e-05
13312.0,-4.145584171055816e-05
14336.0,-2.2034591893316247e-05
end
