version,3.0
numOfCh,1
type,point
parent_name,1000-cuts
ch_type,1_1
kcount,1
numberNandB,1
brightnessNandB,1
carpet pos,0
pc,0
Time (ms),CH1 Auto-Correlation
1.0,0.014843616634607315
2.0,0.011493493802845478
3.0,0.009288892149925232
4.0,0.007670005317777395
5.0,0.006295973900705576
6.0,0.0052758934907615185
7.0,0.004539122339338064
8.0,0.003958451095968485
9.0,0.003420870751142502
10.0,0.0030326168052852154
11.0,0.0027384061831980944
12.0,0.0025319696869701147
13.0,0.002348776673898101
14.0,0.0021371273323893547
15.0,0.0019786939956247807
16.0,0.0018280143849551678
18.0,0.0014824343379586935
20.0,0.000991920242086053
22.0,0.0008016007486730814
24.0,0.0006514679407700896
26.0,0.0007603742997162044
28.0,0.0009181955829262733
30.0,0.0008725014631636441
32.0,0.0005406904965639114
36.0,0.00037927425000816584
40.0,0.0006373916403390467
44.0,0.0006744706188328564
48.0,0.000651471083983779
52.0,0.0005258951568976045
56.0,0.00028793199453502893
60.0,0.0002986830659210682
64.0,0.00021923323220107704
72.0,0.0001984096597880125
80.0,-0.0004135878407396376
88.0,0.00010663735156413168
96.0,0.00017704768106341362
104.0,-0.00012121732288505882
112.0,-0.0005134247476235032
120.0,-0.00046054989797994494
128.0,-0.0004403729981277138
144.0,-0.00045785828842781484
160.0,-2.648026929819025e-05
176.0,-0.00010516155452933162
192.0,0.0002269539691042155
208.0,0.0005633490509353578
224.0,0.0002297950122738257
240.0,0.00011935161455767229
256.0,6.755858521501068e-06
288.0,-0.0004310550866648555
320.0,0.00023719445744063705
352.0,0.00012881134171038866
384.0,1.089203215087764e-05
416.0,1.9831000827252865e-05
448.0,9.107938240049407e-05
480.0,-2.741960452112835e-05
512.0,1.0391732757852878e-05
576.0,0.00028703335556201637
640.0,0.00015015355893410742
704.0,-0.00011753323633456603
768.0,-4.673964940593578e-05
832.0,-0.00011841983359772712
896.0,-0.0005086640012450516
960.0,-0.00038611164200119674
1024.0,0.00011946959421038628
1152.0,-0.000202310286113061
1280.0,0.00017215301340911537
1408.0,0.0002174608816858381
1536.0,-0.0002888580784201622
1664.0,0.0001602578558959067
1792.0,2.888934250222519e-05
1920.0,1.4959255167923402e-05
2048.0,-0.00015206250827759504
2304.0,-6.123708590166643e-05
2560.0,8.038875239435583e-05
2816.0,-0.0003171658609062433
3072.0,7.540937804151326e-05
3328.0,-4.591973265632987e-05
3584.0,0.00018276111222803593
3840.0,0.0002325858367839828
4096.0,-0.0001082689777831547
4608.0,-0.00012948483345098794
5120.0,-1.879225055745337e-05
5632.0,-8.45128161017783e-05
6144.0,8.79115323186852e-05
6656.0,8.95049815881066e-05
7168.0,9.55206633079797e-05
7680.0,5.0448474212316796e-05
8192.0,-0.00012391556811053306
9216.0,-0.00014192206435836852
10240.0,-2.786339246085845e-05
11264.0,-2.0607692931662314e-05
12288.0,-2.9650667784153484e-05
13312.0,0.00014051859034225345
14336.0,0.00013809147640131414
end
