version,3.0
numOfCh,1
type,point
parent_name,1000-cuts
ch_type,1_1
kcount,1
numberNandB,1
brightnessNandB,1
carpet pos,0
pc,0
Time (ms),CH1 Auto-Correlation
1.0,0.02556018903851509
2.0,0.01972941868007183
3.0,0.01584496535360813
4.0,0.012837609276175499
5.0,0.010457905940711498
6.0,0.009023359976708889
7.0,0.007852144539356232
8.0,0.006669353693723679
9.0,0.005651518702507019
10.0,0.004786910954862833
11.0,0.0039810193702578545
12.0,0.0034027104265987873
13.0,0.0030700690113008022
14.0,0.0028153005987405777
15.0,0.002540926681831479
16.0,0.002199635375291109
18.0,0.0015060530276969075
20.0,0.0008396940538659692
22.0,0.00035045549157075584
24.0,0.00020521481928881258
26.0,0.00028798283892683685
28.0,0.00015905481996014714
30.0,0.00016324224998243153
32.0,0.0003415924438741058
36.0,0.00010189098975388333
40.0,-0.0005297012394294143
44.0,-0.0003784186264965683
48.0,7.526751869590953e-05
52.0,0.00037347356555983424
56.0,-4.53605898655951e-05
60.0,0.00014428203576244414
64.0,0.0004029670380987227
72.0,0.0003767481539398432
80.0,0.0006524399504996836
88.0,0.0009415581589564681
96.0,0.00017099083925131708
104.0,6.684834079351276e-05
112.0,-0.00037014108966104686
120.0,9.582285201759078e-06
128.0,-0.0003532280679792166
144.0,-0.00015472969971597195
160.0,0.0001667202595854178
176.0,-0.00010116126941284165
192.0,-3.5754892451222986e-06
208.0,-0.0006993489223532379
224.0,-0.0002638315490912646
240.0,-6.397157267201692e-05
256.0,0.0004576084320433438
288.0,-0.00010550441220402718
320.0,-0.0001742642925819382
352.0,3.13845303026028e-05
384.0,0.0002889982715714723
416.0,6.622402906941716e-06
448.0,0.00010953826131299138
480.0,-0.00022890583204571158
512.0,-4.679890116676688e-05
576.0,-0.0002204837219323963
640.0,0.0003413207014091313
704.0,0.00013505498645827174
768.0,0.0003160297928843647
832.0,-0.000301564228720963
896.0,3.906180791091174e-05
960.0,-0.00014167846529744565
1024.0,0.00011538741819094867
1152.0,-0.00019250123295933008
1280.0,0.00015451369108632207
1408.0,1.0787345672724769e-05
1536.0,4.044769593747333e-05
1664.0,-0.0005071447812952101
1792.0,-0.00014492603077087551
1920.0,-0.00021546101197600365
2048.0,-0.00013037414464633912
2304.0,-1.2912109923490789e-05
2560.0,-7.166597060859203e-05
2816.0,-4.4513444663607515e-06
3072.0,0.0002728050167206675
3328.0,-8.283994975499809e-05
3584.0,-9.756676445249468e-05
3840.0,-9.437935659661889e-06
4096.0,3.313930574222468e-05
4608.0,-0.0001133099794969894
5120.0,-0.00011606836778810248
5632.0,8.075073128566146e-05
6144.0,2.2256454030866735e-05
6656.0,-8.696623262949288e-05
7168.0,3.585423110052943e-05
7680.0,-8.542086789020686e-07
8192.0,1.7817052139434963e-05
9216.0,-0.0001315378030994907
10240.0,-1.4177279808791354e-05
11264.0,3.374672451172955e-05
12288.0,-0.00031411260715685785
13312.0,0.00013881367340218276
14336.0,0.0004527108685579151
end
