version,3.0
numOfCh,1
type,point
parent_name,1000-cuts
ch_type,1_1
kcount,1
numberNandB,1
brightnessNandB,1
carpet pos,0
pc,0
Time (ms),CH1 Auto-Correlation
1.0,0.016074441373348236
2.0,0.012472130358219147
3.0,0.010102305561304092
4.0,0.00837403628975153
5.0,0.006971962284296751
6.0,0.0057771033607423306
7.0,0.004831464029848576
8.0,0.004172489512711763
9.0,0.00360055617056787
10.0,0.0030768830329179764
11.0,0.0027360031381249428
12.0,0.002455078298225999
13.0,0.0021751923486590385
14.0,0.0020028194412589073
15.0,0.001911365776322782
16.0,0.001740732928737998
18.0,0.0014383007073774934
20.0,0.0011565706226974726
22.0,0.0009671194711700082
24.0,0.0008581946603953838
26.0,0.0007338783470913768
28.0,0.00046081040636636317
30.0,0.0002657720760907978
32.0,-1.4045720320154942e-07
36.0,0.0001507301931269467
40.0,0.0002313440927537158
44.0,-9.297946962760761e-05
48.0,-6.147605745354667e-05
52.0,-0.00013111159205436707
56.0,0.00014469539746642113
60.0,0.0001758716971380636
64.0,0.0003487888316158205
72.0,0.00047802907647565007
80.0,0.00027324986876919866
88.0,0.000279291532933712
96.0,0.0004595806822180748
104.0,0.0004501481307670474
112.0,1.3218561434769072e-05
120.0,5.3628704336006194e-05
128.0,0.000143523866427131
144.0,-0.00014911136531736702
160.0,-5.5678243370493874e-05
176.0,-1.814563074731268e-05
192.0,8.044970309128985e-05
208.0,0.00032310624374076724
224.0,0.00032974345958791673
240.0,-3.981205736636184e-05
256.0,-0.00036117451963946223
288.0,6.794957698730286e-06
320.0,-0.0004377307486720383
352.0,-0.0003087936493102461
384.0,-0.00028555773315019906
416.0,-7.380756142083555e-05
448.0,-0.0003458446590229869
480.0,-0.000186548350029625
512.0,0.00017628938076086342
576.0,0.00016170303570106626
640.0,2.4278426280943677e-05
704.0,0.00023996269737835974
768.0,5.8526944485493004e-05
832.0,0.00015013247320894152
896.0,3.4064400097122416e-05
960.0,-3.454580291872844e-05
1024.0,0.00012156988668721169
1152.0,7.913077570265159e-05
1280.0,0.00014465540880337358
1408.0,0.0002307089016539976
1536.0,-1.6440124454675242e-05
1664.0,0.0001388931123074144
1792.0,5.533871899388032e-06
1920.0,-4.554683982860297e-05
2048.0,-6.543334893649444e-05
2304.0,-5.5154450819827616e-05
2560.0,0.00011700841423589736
2816.0,7.082205411279574e-05
3072.0,8.339821215486154e-05
3328.0,-0.00012586875527631491
3584.0,-4.73096442874521e-05
3840.0,4.689150955528021e-05
4096.0,-4.368851296021603e-05
4608.0,-2.7625450456980616e-05
5120.0,-4.994745904696174e-05
5632.0,-5.327609324012883e-05
6144.0,-5.0943108362844214e-05
6656.0,-4.7801408072700724e-05
7168.0,-5.935426815995015e-05
7680.0,-4.8869438614929095e-05
8192.0,-7.748862117296085e-05
9216.0,2.1073954485473223e-05
10240.0,3.0137665817164816e-05
11264.0,-1.875871021184139e-05
12288.0,-7.029189146123827e-05
13312.0,-0.00011674528650473803
14336.0,-0.00016817507275845855
end
