version,3.0
numOfCh,1
type,point
parent_name,1000-cuts
ch_type,1_1
kcount,1
numberNandB,1
brightnessNandB,1
carpet pos,0
pc,0
Time (ms),CH1 Auto-Correlation
1.0,0.026036523282527924
2.0,0.020355401560664177
3.0,0.016341350972652435
4.0,0.013269130140542984
5.0,0.011167649179697037
6.0,0.009359877556562424
7.0,0.00782338809221983
8.0,0.006550603546202183
9.0,0.005461415741592646
10.0,0.004606292117387056
11.0,0.004015570972114801
12.0,0.003760924097150564
13.0,0.003492962336167693
14.0,0.0030208660755306482
15.0,0.0026141165290027857
16.0,0.002165386686101556
18.0,0.001682024565525353
20.0,0.0014120853738859296
22.0,0.0012781674740836024
24.0,0.0012494947295635939
26.0,0.001401806133799255
28.0,0.0013507900293916464
30.0,0.0011139607522636652
32.0,0.001133651239797473
36.0,0.000898841128218919
40.0,0.0005574190290644765
44.0,0.0005800026701763272
48.0,0.00027060392312705517
52.0,-4.4213822548044845e-05
56.0,0.0002758675254881382
60.0,0.0005314710433594882
64.0,0.0007752985693514347
72.0,0.0009016906260512769
80.0,0.00032760424073785543
88.0,0.0005186341586522758
96.0,0.0007170662865974009
104.0,0.0003083012124989182
112.0,0.00013883496285416186
120.0,0.0004752840322908014
128.0,0.0009588745888322592
144.0,0.0006091461982578039
160.0,0.0001812242844607681
176.0,0.0003317514783702791
192.0,7.329841173486784e-05
208.0,0.00020149828924331814
224.0,-0.00027984249754808843
240.0,-0.0002962577564176172
256.0,-2.4306691557285376e-05
288.0,0.00021382539125625044
320.0,-3.0268540285760537e-05
352.0,0.0004294997488614172
384.0,0.0004099285288248211
416.0,-0.00021600534091703594
448.0,0.00047014912706799805
480.0,-6.791132182115689e-05
512.0,-0.0005715874140150845
576.0,0.0001246776810148731
640.0,0.00023125814914237708
704.0,-0.00031129439594224095
768.0,-0.00036739447386935353
832.0,0.00017189087520819157
896.0,0.00046181483776308596
960.0,0.00028742841095663607
1024.0,-5.961090937489644e-05
1152.0,-0.00046620858483947814
1280.0,7.174564962042496e-05
1408.0,0.00040143210208043456
1536.0,-7.258313416969031e-05
1664.0,-0.00014518007810693234
1792.0,0.0001717462291708216
1920.0,-0.00013889155525248498
2048.0,-0.0006048159557394683
2304.0,-0.0001964113034773618
2560.0,-0.00012944389891345054
2816.0,1.3652386769535951e-05
3072.0,0.00030653816065751016
3328.0,4.0640927181812e-05
3584.0,-0.00012324652925599366
3840.0,-0.00017682177713140845
4096.0,0.00018934745457954705
4608.0,-0.00026862320373766124
5120.0,-0.00016889839025679976
5632.0,-6.832501094322652e-05
6144.0,-0.0002280050393892452
6656.0,6.698904326185584e-05
7168.0,9.464480535825714e-05
7680.0,0.00026139625697396696
8192.0,-3.077459768974222e-05
9216.0,8.44465394038707e-05
10240.0,3.379212785148411e-07
11264.0,4.900590283796191e-06
12288.0,-7.706062751822174e-05
13312.0,-5.042879274697043e-05
14336.0,-0.0002608210197649896
end
