version,3.0
numOfCh,1
type,point
parent_name,1000-cuts
ch_type,1_1
kcount,1
numberNandB,1
brightnessNandB,1
carpet pos,0
pc,0
Time (ms),CH1 Auto-Correlation
1.0,0.023866239935159683
2.0,0.018193842843174934
3.0,0.014428971335291862
4.0,0.011872345581650734
5.0,0.009935209527611732
6.0,0.00845951959490776
7.0,0.007208853494375944
8.0,0.006035140715539455
9.0,0.005344390869140625
10.0,0.004681113176047802
11.0,0.004226102959364653
12.0,0.003950062207877636
13.0,0.0037245312705636024
14.0,0.0033185388892889023
15.0,0.0029961857944726944
16.0,0.0025193216279149055
18.0,0.001734033226966858
20.0,0.0015279724029824138
22.0,0.0013565761037170887
24.0,0.0008881338872015476
26.0,0.000742477597668767
28.0,0.0004656170785892755
30.0,0.00027235355810262263
32.0,0.0005537151591852307
36.0,0.0005549460183829069
40.0,0.0005119243287481368
44.0,0.0003004679747391492
48.0,0.00019223646086174995
52.0,0.00022997519408818334
56.0,0.00010573931649560109
60.0,-0.0004501178627833724
64.0,-0.00042433294584043324
72.0,0.00028076511807739735
80.0,0.0007382339681498706
88.0,0.001082652248442173
96.0,0.0008083356660790741
104.0,0.00011322765203658491
112.0,-0.0004728902713395655
120.0,5.1190236263209954e-05
128.0,-1.490939666837221e-06
144.0,0.000431305292295292
160.0,0.00010017326712841168
176.0,-0.00010503187513677403
192.0,0.00016919100016821176
208.0,-0.00021629020920954645
224.0,-0.00025388289941474795
240.0,-0.00029081839602440596
256.0,0.000472529383841902
288.0,-0.00021584864589385688
320.0,0.0005281365010887384
352.0,0.0006208441336639225
384.0,0.000563405454158783
416.0,-0.0004297933483030647
448.0,0.00012533720291685313
480.0,0.00010466003004694358
512.0,3.167546310578473e-05
576.0,-7.761905726511031e-05
640.0,-0.0001164559944299981
704.0,8.586535113863647e-05
768.0,-0.0004879041516687721
832.0,0.00044939390500076115
896.0,-0.0005409016157500446
960.0,-8.116169192362577e-05
1024.0,0.00021108573128003627
1152.0,8.49618372740224e-05
1280.0,5.881402830709703e-05
1408.0,5.916811278439127e-05
1536.0,0.00032028110581450164
1664.0,0.0002633639087434858
1792.0,-0.000120999597129412
1920.0,3.7225439882604405e-05
2048.0,-0.0003114263527095318
2304.0,-0.00013629063323605806
2560.0,-0.0004524406394921243
2816.0,4.953587904310552e-06
3072.0,-0.0002999305725097656
3328.0,-0.0002215575223090127
3584.0,-1.65036617545411e-05
3840.0,-0.00033816834911704063
4096.0,-0.00043798601836897433
4608.0,0.00013639604730997235
5120.0,0.00017328074318356812
5632.0,0.00015312046161852777
6144.0,0.0001265441969735548
6656.0,5.7949418987846e-05
7168.0,-5.847857755725272e-05
7680.0,6.522062903968617e-05
8192.0,-2.9191402063588612e-05
9216.0,-8.582026202930138e-05
10240.0,0.00020470957679208368
11264.0,-9.021613368531689e-05
12288.0,-5.622799653792754e-05
13312.0,-0.00011063197598559782
14336.0,-0.00021892461518291384
end
