version,3.0
numOfCh,1
type,point
parent_name,1000-cuts
ch_type,1_1
kcount,1
numberNandB,1
brightnessNandB,1
carpet pos,0
pc,0
Time (ms),CH1 Auto-Correlation
1.0,0.01606476493179798
2.0,0.0124010955914855
3.0,0.009963099844753742
4.0,0.008257590234279633
5.0,0.006853328552097082
6.0,0.005701588466763496
7.0,0.004875751677900553
8.0,0.004237049259245396
9.0,0.003669026307761669
10.0,0.0032034125179052353
11.0,0.002849293639883399
12.0,0.002647463697940111
13.0,0.002385118743404746
14.0,0.0020485282875597477
15.0,0.0017666240455582738
16.0,0.0015945459017530084
18.0,0.0011327203828841448
20.0,0.0008193720132112503
22.0,0.0005104089505039155
24.0,0.0003487695939838886
26.0,0.00032538356026634574
28.0,0.00024916077381931245
30.0,6.337861850624904e-05
32.0,-0.00011785140668507665
36.0,-0.0001678041007835418
40.0,-0.0001696868712315336
44.0,-0.00024008419131860137
48.0,-0.00012231209257151932
52.0,-0.00013944425154477358
56.0,-0.00021914059470873326
60.0,-0.0002374754985794425
64.0,-0.0002685975341591984
72.0,-0.00018460297724232078
80.0,0.0002859563974197954
88.0,0.0004077217017766088
96.0,-5.895932190469466e-05
104.0,-9.888323256745934e-05
112.0,-0.0002708554966375232
120.0,-0.0002966219908557832
128.0,0.00024332149769179523
144.0,8.21559369796887e-05
160.0,-0.00037917576264590025
176.0,-0.0004463301447685808
192.0,-0.0006318402593024075
208.0,-0.00027055491227656603
224.0,0.00010318629938410595
240.0,0.0002203791809733957
256.0,0.0005490158218890429
288.0,-0.0002114278031513095
320.0,-0.00019486347446218133
352.0,7.864399958634749e-05
384.0,-2.0266666979296133e-05
416.0,0.0002513048821128905
448.0,-0.0002199830923927948
480.0,1.2285507182241417e-05
512.0,-9.749128366820514e-05
576.0,0.00014003852265886962
640.0,-2.8050186301697977e-05
704.0,-0.00016223039710894227
768.0,0.0001099964210879989
832.0,-0.0001203008068841882
896.0,8.839314250508323e-05
960.0,-4.393523704493418e-05
1024.0,6.390705675585195e-05
1152.0,2.5433791961404495e-05
1280.0,0.00011281430488452315
1408.0,0.00014292150444816798
1536.0,0.00012228016566950828
1664.0,-0.00020373202278278768
1792.0,5.597978815785609e-05
1920.0,0.00013505085371434689
2048.0,1.4164514823278296e-06
2304.0,-0.00020557620155159384
2560.0,-0.00010297492553945631
2816.0,3.754101271624677e-05
3072.0,-0.00013022978964727372
3328.0,-2.438636147417128e-05
3584.0,-0.00011813278251793236
3840.0,-0.00014174146053846925
4096.0,6.345803558360785e-05
4608.0,-1.1848997928609606e-05
5120.0,-2.0850116925430484e-05
5632.0,1.8957921383844223e-06
6144.0,8.992517541628331e-05
6656.0,0.00012297648936510086
7168.0,9.52892514760606e-06
7680.0,9.518095612293109e-05
8192.0,2.7365949790691957e-05
9216.0,-3.768070018850267e-05
10240.0,-4.840813926421106e-05
11264.0,-4.228765101288445e-05
12288.0,-1.0660272891982459e-05
13312.0,1.967642492672894e-05
14336.0,4.05091886932496e-05
end
