version,3.0
numOfCh,1
type,point
parent_name,1000-cuts
ch_type,1_1
kcount,1
numberNandB,1
brightnessNandB,1
carpet pos,0
pc,0
Time (ms),CH1 Auto-Correlation
1.0,0.015004085376858711
2.0,0.011456468142569065
3.0,0.0090246656909585
4.0,0.007117765489965677
5.0,0.0056880465708673
6.0,0.0048206886276602745
7.0,0.004163960460573435
8.0,0.0035602878779172897
9.0,0.0028592688031494617
10.0,0.0023127307649701834
11.0,0.0018829453038051724
12.0,0.001588183455169201
13.0,0.0013314218958839774
14.0,0.0012588369427248836
15.0,0.0010638975072652102
16.0,0.0008329277625307441
18.0,0.0004982467507943511
20.0,0.0005069136386737227
22.0,0.00039696026942692697
24.0,0.0003289173182565719
26.0,0.00030572456307709217
28.0,0.0002911185729317367
30.0,0.00019293080549687147
32.0,-4.294819859751442e-07
36.0,0.0002515451342333108
40.0,0.0005687674274668097
44.0,0.000552088487893343
48.0,0.00048123562010005116
52.0,0.00021273610764183104
56.0,-5.546976899495348e-05
60.0,3.706022471305914e-05
64.0,-4.296406768844463e-05
72.0,-4.4215223169885576e-05
80.0,-0.00038776686415076256
88.0,-0.0002680020406842232
96.0,-0.00035055342596024275
104.0,-0.00016047489771153778
112.0,0.00010781310265883803
120.0,3.909799488610588e-05
128.0,9.128265082836151e-05
144.0,-0.0004568928270600736
160.0,-3.4010550734819844e-05
176.0,-4.836611424252624e-06
192.0,-0.0002444483106955886
208.0,-0.0003366622840985656
224.0,-0.0005224677734076977
240.0,-2.2175479898578487e-05
256.0,7.577936048619449e-05
288.0,0.00019180016533937305
320.0,0.0002034744102274999
352.0,-3.5700541047845036e-05
384.0,-1.9308414778151928e-07
416.0,-0.00025703682331368327
448.0,7.539459329564124e-05
480.0,7.04212361597456e-05
512.0,0.0002608399372547865
576.0,8.61120133777149e-05
640.0,9.523450717097148e-05
704.0,-0.00012101807806175202
768.0,-4.6687429858138785e-05
832.0,-0.0002209295198554173
896.0,-0.00024864563602022827
960.0,0.00016031734412536025
1024.0,0.0002077784010907635
1152.0,0.00011838541831821203
1280.0,-0.00015622710634488612
1408.0,-5.033439811086282e-05
1536.0,-7.72429266362451e-05
1664.0,1.9681896446854807e-05
1792.0,0.00011740423360606655
1920.0,-0.0003157110477332026
2048.0,-7.869209184718784e-06
2304.0,-1.7037998986779712e-05
2560.0,2.0242028767825104e-05
2816.0,1.265881110157352e-05
3072.0,4.971773159923032e-05
3328.0,-7.930609172035474e-06
3584.0,5.7631550589576364e-05
3840.0,-2.0196661353111267e-05
4096.0,-3.8414022128563374e-05
4608.0,-8.694199641468003e-05
5120.0,-2.8097703761886805e-05
5632.0,1.1620133591350168e-05
6144.0,4.806450306205079e-05
6656.0,8.627748320577666e-05
7168.0,2.5697898308862932e-05
7680.0,-0.0001364589115837589
8192.0,-1.8128508600057103e-05
9216.0,1.1580807495192857e-06
10240.0,-1.0648161151038948e-05
11264.0,-1.4755406482436229e-05
12288.0,5.8135272411163896e-05
13312.0,5.1755654567386955e-05
14336.0,-4.511306178756058e-05
end
