version,3.0
numOfCh,1
type,point
parent_name,1000-cuts
ch_type,1_1
kcount,1
numberNandB,1
brightnessNandB,1
carpet pos,0
pc,0
Time (ms),CH1 Auto-Correlation
1.0,0.014501191675662994
2.0,0.011291475035250187
3.0,0.009022201411426067
4.0,0.007392332889139652
5.0,0.006058509927242994
6.0,0.005101765040308237
7.0,0.0044132801704108715
8.0,0.003786033019423485
9.0,0.0032865575049072504
10.0,0.002909907838329673
11.0,0.00255387369543314
12.0,0.002151182619854808
13.0,0.0018667962867766619
14.0,0.0016319951973855495
15.0,0.0015453019877895713
16.0,0.0015207672258839011
18.0,0.0014043643604964018
20.0,0.0014362605288624763
22.0,0.0013490323908627033
24.0,0.0010940508218482137
26.0,0.0009421780705451965
28.0,0.0008515911176800728
30.0,0.00067191879497841
32.0,0.00045052170753479004
36.0,0.0005017977673560381
40.0,0.0005279764300212264
44.0,0.0005507421446964145
48.0,0.0005848358268849552
52.0,0.0003953611012548208
56.0,0.0003025431069545448
60.0,0.00010384945926489308
64.0,0.00013163483527023345
72.0,0.00014976476086303592
80.0,0.0002513907675165683
88.0,0.00018030534556601197
96.0,-7.367070793407038e-05
104.0,-0.0002484573924448341
112.0,-0.000301963125821203
120.0,-0.0006822154973633587
128.0,-0.0006877826526761055
144.0,-4.376855576992966e-05
160.0,-5.770809366367757e-05
176.0,-0.00025530412676744163
192.0,-0.0002335966710234061
208.0,0.00030414763023145497
224.0,0.0001367370132356882
240.0,-2.6156158128287643e-05
256.0,0.00019203538249712437
288.0,-0.00044322232133708894
320.0,-0.0004922693478874862
352.0,-0.00016658389358781278
384.0,-0.00018871610518544912
416.0,-0.00015735201304778457
448.0,0.00010079098865389824
480.0,-3.657990600913763e-05
512.0,-0.00023185185273177922
576.0,-0.000251754216151312
640.0,7.941188232507557e-05
704.0,-0.0001580151147209108
768.0,-1.1784510206780396e-05
832.0,-0.0003099371097050607
896.0,-5.500709085026756e-05
960.0,8.411358430748805e-05
1024.0,0.0005221563042141497
1152.0,-4.9423888413002715e-05
1280.0,-0.00019106634135823697
1408.0,7.685109449084848e-05
1536.0,9.734203922562301e-05
1664.0,9.862387742032297e-06
1792.0,-0.00021464396559167653
1920.0,-0.00021561540779657662
2048.0,8.657781290821731e-05
2304.0,-3.214656317140907e-05
2560.0,0.0002780879440251738
2816.0,-9.765382128534839e-05
3072.0,-5.595338734565303e-05
3328.0,0.00012930782395415008
3584.0,2.6186136892647482e-05
3840.0,-0.00027422443963587284
4096.0,8.750392225920223e-06
4608.0,-7.813568663550541e-05
5120.0,0.00015782981063239276
5632.0,-6.616838072659448e-05
6144.0,3.669621946755797e-05
6656.0,-3.789995753322728e-05
7168.0,-0.00015084404731169343
7680.0,0.0001108047945308499
8192.0,-8.00287161837332e-05
9216.0,-5.0967450079042464e-05
10240.0,5.153175152372569e-05
11264.0,-1.8331960745854303e-05
12288.0,-1.9647026419988833e-05
13312.0,6.321720138657838e-05
14336.0,6.668009518762119e-06
end
