version,3.0
numOfCh,1
type,point
parent_name,1000-cuts
ch_type,1_1
kcount,1
numberNandB,1
brightnessNandB,1
carpet pos,0
pc,0
Time (ms),CH1 Auto-Correlation
1.0,0.026171619072556496
2.0,0.020348891615867615
3.0,0.01615220122039318
4.0,0.012893468141555786
5.0,0.01048985868692398
6.0,0.008615424856543541
7.0,0.007154506165534258
8.0,0.006035167723894119
9.0,0.0051411730237305164
10.0,0.004509963095188141
11.0,0.003985296469181776
12.0,0.0036219044122844934
13.0,0.0033150608651340008
14.0,0.002916581928730011
15.0,0.0026739537715911865
16.0,0.002293948782607913
18.0,0.0017679717857390642
20.0,0.001584065263159573
22.0,0.0013466880191117525
24.0,0.0010219195391982794
26.0,0.0009700818336568773
28.0,0.0009956342400982976
30.0,0.0011185251642018557
32.0,0.0008376419427804649
36.0,0.00032957494840957224
40.0,-9.786691634872113e-07
44.0,-0.0003514974087011069
48.0,-0.0004134294285904616
52.0,-0.0004745966289192438
56.0,-0.00041688838973641396
60.0,-0.000599654158577323
64.0,-0.0005313752335496247
72.0,-0.0005416483618319035
80.0,-0.0009946769569069147
88.0,-0.0005106848548166454
96.0,0.00016036044689826667
104.0,-3.625743556767702e-05
112.0,-0.0004079629434272647
120.0,-4.5846238208469003e-05
128.0,0.00010174851922784
144.0,3.8146816223161295e-05
160.0,1.60291983775096e-05
176.0,-6.387486064340919e-05
192.0,0.000780720089096576
208.0,-1.8526614439906552e-05
224.0,-7.141447713365778e-05
240.0,-0.00018548972730059177
256.0,-1.860573684098199e-05
288.0,7.376318535534665e-05
320.0,0.00014169859059620649
352.0,-0.00044060280197300017
384.0,-0.0005278026801533997
416.0,0.00026290270034223795
448.0,0.000754438282456249
480.0,0.0004918413469567895
512.0,8.934104698710144e-05
576.0,-0.0002404426777502522
640.0,-0.0004390998219605535
704.0,-0.0005619749426841736
768.0,0.00022474194702226669
832.0,0.00015069787332322448
896.0,5.144199531059712e-05
960.0,-9.68014937825501e-05
1024.0,0.0002222339971922338
1152.0,0.00023900496307760477
1280.0,0.0004926545079797506
1408.0,-0.0003407150215934962
1536.0,-0.0001076571352314204
1664.0,0.00016289702034555376
1792.0,-0.0001999208179768175
1920.0,1.0830821338458918e-05
2048.0,0.0001558591320645064
2304.0,-0.00029791073757223785
2560.0,5.1780745707219467e-05
2816.0,-1.856510243669618e-05
3072.0,0.0001492933661211282
3328.0,7.749448559479788e-05
3584.0,-0.0004025676171295345
3840.0,0.0002292579156346619
4096.0,0.00012978834274690598
4608.0,1.840353070292622e-05
5120.0,-2.429225241940003e-05
5632.0,-0.00013089262938592583
6144.0,-5.804927241115365e-06
6656.0,8.945838635554537e-05
7168.0,-3.307782026240602e-05
7680.0,6.046419684935245e-07
8192.0,3.7357247038016794e-06
9216.0,0.00025116262258961797
10240.0,2.9168535547796637e-05
11264.0,-0.000259859167272225
12288.0,-3.7903428165009245e-05
13312.0,-0.00014351075515151024
14336.0,-0.00019103683007415384
end
