version,3.0
numOfCh,1
type,point
parent_name,1000-cuts
ch_type,1_1
kcount,1
numberNandB,1
brightnessNandB,1
carpet pos,0
pc,0
Time (ms),CH1 Auto-Correlation
1.0,0.015635674819350243
2.0,0.011882318183779716
3.0,0.009429763071238995
4.0,0.007700598798692226
5.0,0.0063620940782129765
6.0,0.005176301579922438
7.0,0.004314955789595842
8.0,0.0036021608393639326
9.0,0.003122404683381319
10.0,0.0026472737081348896
11.0,0.0023919434752315283
12.0,0.002127982210367918
13.0,0.001890153274871409
14.0,0.0016608298756182194
15.0,0.0015354700153693557
16.0,0.0013241677079349756
18.0,0.001186954090371728
20.0,0.0010180259123444557
22.0,0.0009077123831957579
24.0,0.0009438819834031165
26.0,0.0007695403764955699
28.0,0.0006544326315633953
30.0,0.00036596605787053704
32.0,9.663571108831093e-05
36.0,2.3633918317500502e-05
40.0,2.939029764092993e-05
44.0,0.0002432243200019002
48.0,0.00036571186501532793
52.0,3.512786133796908e-05
56.0,-0.00030348807922564447
60.0,-0.00028011531685478985
64.0,5.312949724611826e-06
72.0,0.0003637417103163898
80.0,8.271204569609836e-05
88.0,-5.6213051720988005e-05
96.0,-0.00031461124308407307
104.0,-9.496638085693121e-05
112.0,-0.0001435520825907588
120.0,-0.00017902161926031113
128.0,-0.0003874278045259416
144.0,-2.153728473786032e-06
160.0,-9.185956878354773e-05
176.0,-0.00033649092074483633
192.0,-0.0005330206477083266
208.0,-7.557768549304456e-05
224.0,0.00019533035811036825
240.0,0.0002693425049073994
256.0,0.0004307667841203511
288.0,-2.229837809863966e-05
320.0,-6.280490924837068e-05
352.0,-4.73010259156581e-05
384.0,0.00011518551764311269
416.0,6.749715248588473e-05
448.0,0.0001961891248356551
480.0,0.00034694699570536613
512.0,0.0004525774857029319
576.0,-4.859194086748175e-05
640.0,3.443223249632865e-05
704.0,-5.3265528549673036e-05
768.0,0.00025968285626731813
832.0,-3.546939478837885e-05
896.0,0.0002894669014494866
960.0,0.0003035268746316433
1024.0,0.0002712092245928943
1152.0,-3.3910466299857944e-05
1280.0,6.688537541776896e-05
1408.0,-7.894680311437696e-05
1536.0,-4.6071541873971e-05
1664.0,-7.020560587989166e-05
1792.0,0.00028675069916062057
1920.0,-0.0002496935485396534
2048.0,9.717784269014373e-05
2304.0,0.00019716954557225108
2560.0,-0.00013248783943708986
2816.0,0.00025703254505060613
3072.0,-0.00014616065891459584
3328.0,0.0001437161845387891
3584.0,-6.68797583784908e-05
3840.0,-2.183808828704059e-05
4096.0,-0.00010113080497831106
4608.0,-5.817624332848936e-05
5120.0,-9.243611566489562e-05
5632.0,-8.957679528975859e-05
6144.0,-9.84226498985663e-05
6656.0,-0.00014595739776268601
7168.0,-5.9366750065237284e-05
7680.0,-5.628771032206714e-05
8192.0,-9.573773422744125e-05
9216.0,-6.500710878754035e-05
10240.0,8.738427277421579e-05
11264.0,9.271391172660515e-05
12288.0,-3.20766594086308e-05
13312.0,-9.875717660179362e-05
14336.0,-4.614470526576042e-05
end
