version,3.0
numOfCh,1
type,point
parent_name,1000-cuts
ch_type,1_1
kcount,1
numberNandB,1
brightnessNandB,1
carpet pos,0
pc,0
Time (ms),CH1 Auto-Correlation
1.0,0.015188326127827168
2.0,0.01166422851383686
3.0,0.0093698063865304
4.0,0.007776645943522453
5.0,0.00640129903331399
6.0,0.005281862337142229
7.0,0.004383801482617855
8.0,0.0037093604914844036
9.0,0.0030840442050248384
10.0,0.0024786964058876038
11.0,0.0020056020002812147
12.0,0.0016865420620888472
13.0,0.001375927240587771
14.0,0.001241121324710548
15.0,0.0011409948347136378
16.0,0.0009862370789051056
18.0,0.0007017941679805517
20.0,0.0003591293643694371
22.0,0.0002117047260981053
24.0,0.00015958552830852568
26.0,0.0002825735427904874
28.0,0.00028480630135163665
30.0,0.00026144564617425203
32.0,0.0003118805179838091
36.0,8.797727059572935e-05
40.0,4.5769556891173124e-06
44.0,0.0001789795933291316
48.0,6.499623850686476e-05
52.0,-0.00022380192240234464
56.0,-0.00048609351506456733
60.0,-0.00023310586402658373
64.0,-4.926609472022392e-05
72.0,4.1749797674128786e-05
80.0,0.00011009191075572744
88.0,8.460560638923198e-05
96.0,0.00011874563642777503
104.0,5.280461209622445e-06
112.0,2.1554069462581538e-05
120.0,0.00014703422493766993
128.0,0.00018121133325621486
144.0,0.00022651378822047263
160.0,0.00044316609273664653
176.0,0.00046314034261740744
192.0,0.0003073364496231079
208.0,0.000180661168997176
224.0,8.418195648118854e-06
240.0,0.00013449568359646946
256.0,0.00035464769462123513
288.0,5.7664608902996406e-05
320.0,-1.678940316196531e-05
352.0,0.00030034000519663095
384.0,6.260117515921593e-06
416.0,0.00010500074859010056
448.0,0.0001508765562903136
480.0,-9.45816354942508e-05
512.0,3.930756793124601e-05
576.0,0.00016311724903061986
640.0,0.00018189108232036233
704.0,-1.640312621020712e-05
768.0,-2.2326894395519048e-05
832.0,8.442538091912866e-05
896.0,-0.0001557480136398226
960.0,0.00019732203509192914
1024.0,9.255467739421874e-05
1152.0,-0.00026108280871994793
1280.0,-0.0002889129682444036
1408.0,1.067405264620902e-05
1536.0,0.00028084017685614526
1664.0,-6.11642753938213e-05
1792.0,-0.00014173021190799773
1920.0,8.435686140728649e-07
2048.0,7.899110642028973e-05
2304.0,0.0001188963433378376
2560.0,6.791472696932033e-05
2816.0,-0.00013093625602778047
3072.0,-1.1988970072707161e-05
3328.0,-6.446610495913774e-05
3584.0,-0.0001935189648065716
3840.0,1.662117210798897e-05
4096.0,-2.5930730771506205e-05
4608.0,1.0029923942056485e-05
5120.0,-3.664164250949398e-05
5632.0,-0.00010407418449176475
6144.0,-0.00019911842537112534
6656.0,-0.00010650212789187208
7168.0,6.313860467344057e-06
7680.0,3.235493568354286e-05
8192.0,7.187588198576123e-05
9216.0,2.1638141333824024e-05
10240.0,7.476033351849765e-05
11264.0,-0.00013654462236445397
12288.0,0.0003011612279806286
13312.0,-0.0005261515034362674
14336.0,0.0002294956793775782
end
