version,3.0
numOfCh,1
type,point
parent_name,1000-cuts
ch_type,1_1
kcount,1
numberNandB,1
brightnessNandB,1
carpet pos,0
pc,0
Time (ms),CH1 Auto-Correlation
1.0,0.014644309878349304
2.0,0.011513479053974152
3.0,0.009278022684156895
4.0,0.007577190641313791
5.0,0.006343725137412548
6.0,0.005320842377841473
7.0,0.004529488272964954
8.0,0.003799817059189081
9.0,0.003255958203226328
10.0,0.0026066116988658905
11.0,0.002157993847504258
12.0,0.0018990907119587064
13.0,0.001583532546646893
14.0,0.001401854562573135
15.0,0.0012068646028637886
16.0,0.0010562221286818385
18.0,0.0009456099942326546
20.0,0.0007907795370556414
22.0,0.0005933349020779133
24.0,0.00022084535157773644
26.0,-8.947258720581885e-06
28.0,-5.785007670056075e-05
30.0,-0.00014696011203341186
32.0,-0.0001652030914556235
36.0,-5.279949618852697e-05
40.0,-0.00014187293709255755
44.0,-0.0003912108950316906
48.0,-0.00039152163662947714
52.0,-0.0006751582841388881
56.0,-0.0009691175073385239
60.0,-0.0007411554106511176
64.0,-0.0005441707326099277
72.0,-0.0004516021581366658
80.0,0.00010828622180270031
88.0,0.0002540086570661515
96.0,0.00018716849444899708
104.0,0.0003898057038895786
112.0,2.4103808755171485e-05
120.0,-0.00031087250681594014
128.0,-0.00014483324775937945
144.0,-1.977207102754619e-05
160.0,0.0001346343633485958
176.0,8.199847798096016e-05
192.0,-0.00011362529039615765
208.0,-0.00020616997790057212
224.0,-0.00023208424681797624
240.0,-0.00018656197062227875
256.0,0.000190350430784747
288.0,0.0005263792118057609
320.0,-0.00015810005425009876
352.0,6.97215145919472e-05
384.0,0.0001657532702665776
416.0,-0.0002002604742301628
448.0,4.3730651668738574e-05
480.0,-0.00010447570821270347
512.0,0.00014674973499495536
576.0,0.00014841460506431758
640.0,0.00013620135723613203
704.0,-0.00022037437884137034
768.0,-1.8312333850190043e-05
832.0,-0.0001959304790943861
896.0,-0.00012428562331479043
960.0,-0.00020518852397799492
1024.0,4.863636058871634e-05
1152.0,-5.499052713275887e-05
1280.0,-0.00024647824466228485
1408.0,-0.00023844347742851824
1536.0,-0.00017810003191698343
1664.0,-7.907545659691095e-05
1792.0,0.00010938677587546408
1920.0,3.898620343534276e-05
2048.0,7.900577475083992e-05
2304.0,0.00010788712097564712
2560.0,5.8445923059480265e-05
2816.0,9.825932465901133e-06
3072.0,-3.9765745896147564e-05
3328.0,-5.431054159998894e-05
3584.0,-0.0001781031023710966
3840.0,-3.9750109863234684e-05
4096.0,6.389366899384186e-05
4608.0,4.897511098533869e-05
5120.0,3.101999027421698e-05
5632.0,-0.00010547563579166308
6144.0,-3.600715717766434e-05
6656.0,6.991408008616418e-05
7168.0,6.843169103376567e-05
7680.0,1.1253435332037043e-05
8192.0,-6.249914440559223e-05
9216.0,-5.9386352404544596e-06
10240.0,5.1666902436409146e-05
11264.0,-4.8688758397474885e-05
12288.0,-4.029364572488703e-05
13312.0,3.5421915526967496e-05
14336.0,1.646835880819708e-05
end
