version,3.0
numOfCh,1
type,point
parent_name,1000-cuts
ch_type,1_1
kcount,1
numberNandB,1
brightnessNandB,1
carpet pos,0
pc,0
Time (ms),CH1 Auto-Correlation
1.0,0.02456013299524784
2.0,0.018597792834043503
3.0,0.01459269318729639
4.0,0.011767486110329628
5.0,0.009673130698502064
6.0,0.007984370924532413
7.0,0.006818018388003111
8.0,0.005928306374698877
9.0,0.005241106264293194
10.0,0.004687807988375425
11.0,0.004310982767492533
12.0,0.003942675422877073
13.0,0.0036941715516149998
14.0,0.003382273716852069
15.0,0.003231331240385771
16.0,0.0029164457228034735
18.0,0.002450173022225499
20.0,0.0022768701892346144
22.0,0.001978438813239336
24.0,0.001593808177858591
26.0,0.0009904062608256936
28.0,0.0007866200758144259
30.0,0.001055760309100151
32.0,0.00117440742906183
36.0,0.0012349927565082908
40.0,0.0013610253809019923
44.0,0.0010060281492769718
48.0,0.0005272339913062751
52.0,0.0002138209092663601
56.0,0.0004100268706679344
60.0,0.00044322048779577017
64.0,0.0004510874568950385
72.0,0.0005118121043778956
80.0,0.0003860502038151026
88.0,0.0006734380731359124
96.0,0.0002857674262486398
104.0,0.0004616845108103007
112.0,-0.00016880003386177123
120.0,-0.0004402982594911009
128.0,-0.00018957344582304358
144.0,-0.0001725385955069214
160.0,3.742606349987909e-05
176.0,-0.0006238858331926167
192.0,-0.00039799429941922426
208.0,-0.00016190049063879997
224.0,-0.00013546265836339444
240.0,8.151972906489391e-06
256.0,1.6976757706288481e-06
288.0,5.565334140555933e-05
320.0,-0.0005571113433688879
352.0,-0.00048206819337792695
384.0,-0.00020631327060982585
416.0,0.00021645202650688589
448.0,-1.369354868074879e-05
480.0,0.0005873800837434828
512.0,0.00048659107415005565
576.0,-0.0001744295295793563
640.0,-5.990658792143222e-06
704.0,0.0002890155592467636
768.0,-0.00043866178020834923
832.0,-0.0007470284472219646
896.0,-6.73493996146135e-05
960.0,0.0001736972335493192
1024.0,-0.00045247082016430795
1152.0,-0.0002990019565913826
1280.0,0.0007090989383868873
1408.0,0.00010853319690795615
1536.0,-0.0004442431090865284
1664.0,-0.00032470718724653125
1792.0,-9.044721809914336e-05
1920.0,1.9685179722728208e-05
2048.0,-0.00030988187063485384
2304.0,-0.0002117708936566487
2560.0,0.000417111354181543
2816.0,-0.00019888878159690648
3072.0,0.0001022910510073416
3328.0,-1.534789043944329e-05
3584.0,0.00019988803251180798
3840.0,0.0004251195350661874
4096.0,-0.000360756617737934
4608.0,-0.00017212241073139012
5120.0,-4.449591870070435e-05
5632.0,4.693829396273941e-05
6144.0,0.00024108659999910742
6656.0,-1.2270951629034244e-05
7168.0,0.00013090824359096587
7680.0,-0.0003250458394177258
8192.0,-0.00022540870122611523
9216.0,0.0001037709807860665
10240.0,0.0001441652566427365
11264.0,-0.00021156900038477033
12288.0,8.74807738000527e-05
13312.0,0.0003137881285510957
14336.0,-0.00016180843522306532
end
