version,3.0
numOfCh,1
type,point
parent_name,1000-cuts
ch_type,1_1
kcount,1
numberNandB,1
brightnessNandB,1
carpet pos,0
pc,0
Time (ms),CH1 Auto-Correlation
1.0,0.015592924319207668
2.0,0.01206410862505436
3.0,0.009628422558307648
4.0,0.007848402485251427
5.0,0.006546676624566317
6.0,0.0055088778026402
7.0,0.0046849665232002735
8.0,0.0040181172080338
9.0,0.0033484981395304203
10.0,0.0028500922489911318
11.0,0.002498237881809473
12.0,0.002300719264894724
13.0,0.0020793527364730835
14.0,0.0019403231563046575
15.0,0.0017300073523074389
16.0,0.0016223930288106203
18.0,0.001208139001391828
20.0,0.0009531924733892083
22.0,0.0008737093303352594
24.0,0.0009387056343257427
26.0,0.0007908163242973387
28.0,0.0007633885834366083
30.0,0.0008043533889576793
32.0,0.0007882206118665636
36.0,0.0009414991945959628
40.0,0.0007525374530814588
44.0,0.0008744003134779632
48.0,0.0006269420846365392
52.0,0.0006667681154794991
56.0,0.0004091403097845614
60.0,0.00034465413773432374
64.0,0.00031200103694573045
72.0,3.5362008929951116e-05
80.0,-0.00014689417730551213
88.0,0.00018596362497191876
96.0,0.0002699386968743056
104.0,0.00017039822705555707
112.0,3.091664984822273e-05
120.0,-0.0001588113373145461
128.0,-9.954460256267339e-05
144.0,-0.0004281385918147862
160.0,-5.276473893900402e-05
176.0,-2.9369215553742833e-05
192.0,0.00020952780323568732
208.0,-7.591016037622467e-05
224.0,-0.00010114331234944984
240.0,-0.000270294927759096
256.0,-3.8158810639288276e-05
288.0,0.00011254943819949403
320.0,0.00012266819248907268
352.0,-0.00010920788918156177
384.0,1.5601088307448663e-05
416.0,-8.322752546519041e-05
448.0,-0.00040675626951269805
480.0,-0.00022996428015176207
512.0,-4.2345825931988657e-05
576.0,-0.0002513451036065817
640.0,1.6901416529435664e-05
704.0,0.0003568537358660251
768.0,0.00030004960717633367
832.0,-9.385013981955126e-05
896.0,-7.179779117905127e-07
960.0,-9.28941517486237e-06
1024.0,-9.745275747263804e-06
1152.0,0.00013193678751122206
1280.0,0.00011002302198903635
1408.0,-0.0001580083044245839
1536.0,0.00022846981300972402
1664.0,-0.00019126766710542142
1792.0,0.00028793246019631624
1920.0,0.00030232436256483197
2048.0,4.958765202900395e-05
2304.0,-3.836366431642091e-06
2560.0,-4.4141306716483086e-05
2816.0,-0.00011770475248340517
3072.0,-6.216227120603435e-06
3328.0,0.00018442438158672303
3584.0,-2.3962740669958293e-05
3840.0,-7.448573160218075e-05
4096.0,0.00010103528620675206
4608.0,-7.72746279835701e-05
5120.0,-0.00014956205268390477
5632.0,-5.647970738209551e-06
6144.0,-8.961145067587495e-05
6656.0,-6.123413186287507e-05
7168.0,-0.00017800182104110718
7680.0,-3.537413795129396e-05
8192.0,-7.388642552541569e-05
9216.0,-8.80021252669394e-05
10240.0,1.0674122677301057e-05
11264.0,-2.9153925424907357e-05
12288.0,8.433646871708333e-05
13312.0,0.00014178495621308684
14336.0,9.391014464199543e-05
end
