version,3.0
numOfCh,1
type,point
parent_name,1000-cuts
ch_type,1_1
kcount,1
numberNandB,1
brightnessNandB,1
carpet pos,0
pc,0
Time (ms),CH1 Auto-Correlation
1.0,0.017776818946003914
2.0,0.01419296208769083
3.0,0.011591322720050812
4.0,0.00957765243947506
5.0,0.008119309321045876
6.0,0.0068887448869645596
7.0,0.005848302505910397
8.0,0.004963662009686232
9.0,0.0043243723921477795
10.0,0.0038083032704889774
11.0,0.0034833750687539577
12.0,0.003150091040879488
13.0,0.002902023959904909
14.0,0.002643315587192774
15.0,0.0023410606663674116
16.0,0.0021451772190630436
18.0,0.0015982051845639944
20.0,0.0011549638584256172
22.0,0.0008616462582722306
24.0,0.000781696755439043
26.0,0.0006036616396158934
28.0,0.0005007434519939125
30.0,0.00035942558315582573
32.0,0.00012169620458735153
36.0,-0.00030811596661806107
40.0,-0.0005594270769506693
44.0,-0.0006603750516660511
48.0,-0.0007041508797556162
52.0,-0.0007686007884331048
56.0,-0.000625674903858453
60.0,-0.0005169687210582197
64.0,-0.00044553406769409776
72.0,-0.00011102002463303506
80.0,6.28351335763e-05
88.0,0.0004083856474608183
96.0,0.0002853288606274873
104.0,0.0005465411231853068
112.0,0.0004446412203833461
120.0,6.11858195043169e-05
128.0,-4.371014074422419e-05
144.0,-0.00036343958345241845
160.0,-2.0125635273871012e-05
176.0,-0.000531056197360158
192.0,-0.000361999700544402
208.0,9.540917380945757e-05
224.0,3.304672645754181e-05
240.0,4.473795343074016e-05
256.0,-3.132028359686956e-05
288.0,-0.0001239384146174416
320.0,4.953129246132448e-05
352.0,-0.00024993601255118847
384.0,-0.0002400447119725868
416.0,-0.00023486001009587198
448.0,-0.0006867987103760242
480.0,-6.438850050471956e-06
512.0,-0.00027952282107435167
576.0,-0.00039508682675659657
640.0,-0.00011101946438429877
704.0,-5.991480975353625e-06
768.0,0.00010682594438549131
832.0,0.0003277040959801525
896.0,-0.00010022814967669547
960.0,6.747454608557746e-05
1024.0,7.13175832061097e-05
1152.0,-9.881694859359413e-05
1280.0,3.964975621784106e-05
1408.0,-0.00028936416492797434
1536.0,-5.814479209220735e-06
1664.0,-0.00028599228244274855
1792.0,0.0003731130273081362
1920.0,0.00022786681074649096
2048.0,2.057648089248687e-05
2304.0,-4.747148705064319e-05
2560.0,-9.892225352814421e-05
2816.0,0.0002464810968376696
3072.0,-4.059621915075695e-06
3328.0,-0.0002750427811406553
3584.0,0.00013837346341460943
3840.0,0.0001969629229279235
4096.0,-0.00012575610890053213
4608.0,5.2169514674460515e-05
5120.0,-4.2815514461835846e-05
5632.0,0.00011804481619037688
6144.0,-0.00013813360419590026
6656.0,6.143298378447071e-05
7168.0,-0.00015931650705169886
7680.0,3.8970323657849804e-05
8192.0,-0.00010231104533886537
9216.0,4.692605944001116e-05
10240.0,-4.499323040363379e-05
11264.0,2.8496666345745325e-05
12288.0,-2.6731631805887446e-05
13312.0,1.702633744571358e-05
14336.0,1.8394639482721686e-05
end
