version,3.0
numOfCh,1
type,point
parent_name,1000-cuts
ch_type,1_1
kcount,1
numberNandB,1
brightnessNandB,1
carpet pos,0
pc,0
Time (ms),CH1 Auto-Correlation
1.0,0.016771389171481133
2.0,0.013057176023721695
3.0,0.010442003607749939
4.0,0.00853457860648632
5.0,0.007096551824361086
6.0,0.005948928650468588
7.0,0.005134649109095335
8.0,0.004453199915587902
9.0,0.0038709533400833607
10.0,0.0032868494745343924
11.0,0.0028652502223849297
12.0,0.002515209838747978
13.0,0.0022824511397629976
14.0,0.0020722742192447186
15.0,0.0019484967924654484
16.0,0.0018713909666985273
18.0,0.00196625292301178
20.0,0.0019090897403657436
22.0,0.0016178187215700746
24.0,0.0015229805139824748
26.0,0.0014856975758448243
28.0,0.001477944664657116
30.0,0.0011704446515068412
32.0,0.0006743647390976548
36.0,0.0007666160236112773
40.0,0.0011427650460973382
44.0,0.0010683564469218254
48.0,0.0009616257157176733
52.0,0.0009282534010708332
56.0,0.0009425674215890467
60.0,0.0007422887720167637
64.0,0.0006180353811942041
72.0,0.0005384036339819431
80.0,0.0005047881277278066
88.0,0.0004530221049208194
96.0,0.00023700285237282515
104.0,0.0006629478302784264
112.0,0.0007276511169038713
120.0,0.00034790002973750234
128.0,0.00014451357128564268
144.0,-5.755387610406615e-05
160.0,0.00014660174201708287
176.0,-8.237490692408755e-05
192.0,0.0004249704070389271
208.0,0.0004717776319012046
224.0,0.0006280801608227193
240.0,0.00033682535286061466
256.0,-7.942603406263515e-05
288.0,-5.029270323575474e-05
320.0,-0.00024175811267923564
352.0,0.0002375222829869017
384.0,0.00024640269111841917
416.0,-0.00014760190970264375
448.0,-0.00018398828979115933
480.0,3.2404557714471593e-05
512.0,6.896581908222288e-05
576.0,-7.248741894727573e-05
640.0,-0.0001758759026415646
704.0,2.0506357031990774e-05
768.0,0.0002577034174464643
832.0,-0.0004983246908523142
896.0,-0.00046671173186041415
960.0,-9.463926107855514e-05
1024.0,-0.0001748815120663494
1152.0,5.3877396567258984e-05
1280.0,-0.0001234443043358624
1408.0,1.2135609722463414e-05
1536.0,0.00013391688116826117
1664.0,2.884772402467206e-05
1792.0,-0.00023364675871562213
1920.0,-0.00026558790705166757
2048.0,-0.00013350893277674913
2304.0,0.00013251035124994814
2560.0,-7.139998342609033e-05
2816.0,-5.622297612717375e-05
3072.0,-0.0001305909245274961
3328.0,-0.00019067208631895483
3584.0,0.00014408201968763024
3840.0,0.00020974628569092602
4096.0,-7.024996739346534e-05
4608.0,-0.00010487269173609093
5120.0,-0.00015899442951194942
5632.0,-6.243693496799096e-05
6144.0,0.0001978669606614858
6656.0,4.966554115526378e-06
7168.0,-7.305399049073458e-05
7680.0,8.102111314656213e-05
8192.0,-0.00016602380492258817
9216.0,-0.0002118035772582516
10240.0,0.000327803660184145
11264.0,-1.0881482012337074e-05
12288.0,-8.243396223406307e-06
13312.0,5.134029561304487e-05
14336.0,-0.00030388584127649665
end
