version,3.0
numOfCh,1
type,point
parent_name,1000-cuts
ch_type,1_1
kcount,1
numberNandB,1
brightnessNandB,1
carpet pos,0
pc,0
Time (ms),CH1 Auto-Correlation
1.0,0.016023006290197372
2.0,0.012505746446549892
3.0,0.009946360252797604
4.0,0.008086121641099453
5.0,0.006746229249984026
6.0,0.005811970215290785
7.0,0.005014737602323294
8.0,0.004333816934376955
9.0,0.003674857085570693
10.0,0.003149663098156452
11.0,0.002650432987138629
12.0,0.0022012977860867977
13.0,0.0018444700399413705
14.0,0.0014215181581676006
15.0,0.0011531488271430135
16.0,0.0009429942001588643
18.0,0.000615306431427598
20.0,0.0004913409939035773
22.0,0.00045431789476424456
24.0,0.00040512290433980525
26.0,0.0003093220293521881
28.0,0.0003303052799310535
30.0,0.0001650751946726814
32.0,-7.649958206457086e-06
36.0,-6.739943637512624e-05
40.0,-0.000483477400848642
44.0,-0.0006549021345563233
48.0,-0.0003134538128506392
52.0,-0.00010671619384083897
56.0,8.214725676225498e-05
60.0,4.1152579797198996e-05
64.0,0.00017256072896998376
72.0,0.000442821386968717
80.0,9.220513675245456e-06
88.0,-0.0003765907313209027
96.0,-0.0003769013856071979
104.0,-0.0005208858638070524
112.0,7.135316263884306e-05
120.0,-5.254113148112083e-06
128.0,-0.0002875241625588387
144.0,9.340743417851627e-05
160.0,0.0002131818182533607
176.0,0.00020314623543526977
192.0,-0.00011020781676052138
208.0,-9.748850425239652e-05
224.0,-0.0003269987355452031
240.0,-0.0005411551683209836
256.0,-0.00016237790987361223
288.0,-0.00037043148768134415
320.0,0.00048017132212407887
352.0,3.260444282204844e-05
384.0,-6.052040771464817e-05
416.0,0.0001375443971483037
448.0,7.384184573311359e-05
480.0,-0.00043956455192528665
512.0,-0.00014470929454546422
576.0,-0.00026909858570434153
640.0,9.498916188022122e-05
704.0,-5.7008099247468635e-05
768.0,-0.0001467836700612679
832.0,1.7857219063444063e-05
896.0,1.0210361324425321e-05
960.0,-5.0617796659935266e-05
1024.0,0.0003103296330664307
1152.0,-6.142794154584408e-05
1280.0,4.202172567602247e-05
1408.0,4.613283454091288e-05
1536.0,-0.0001136676364694722
1664.0,0.00024074316024780273
1792.0,-0.0002197145950049162
1920.0,7.415451364067849e-06
2048.0,-3.149253097944893e-05
2304.0,-5.850434536114335e-05
2560.0,7.250694693539117e-07
2816.0,-0.00015616921882610768
3072.0,4.4046053517377004e-05
3328.0,-2.194150692957919e-05
3584.0,9.188373951474205e-05
3840.0,-3.834676590486197e-06
4096.0,-9.994448919314891e-05
4608.0,-9.165578376268968e-06
5120.0,-2.3449772470485186e-06
5632.0,-2.836701060004998e-05
6144.0,-1.3285038221511059e-05
6656.0,2.0160690837656148e-05
7168.0,-1.37978440761799e-05
7680.0,4.390058893477544e-05
8192.0,6.679169018752873e-05
9216.0,8.21814319351688e-06
10240.0,-8.356619218830019e-05
11264.0,-3.949958045268431e-05
12288.0,4.512514351517893e-06
13312.0,-7.4622025749704335e-06
14336.0,-2.1055045635876013e-06
end
