version,3.0
numOfCh,1
type,point
parent_name,1000-cuts
ch_type,1_1
kcount,1
numberNandB,1
brightnessNandB,1
carpet pos,0
pc,0
Time (ms),CH1 Auto-Correlation
1.0,0.015053924173116684
2.0,0.011466609314084053
3.0,0.008902019821107388
4.0,0.0071783773601055145
5.0,0.005999589338898659
6.0,0.005108516663312912
7.0,0.004427495878189802
8.0,0.0038284631446003914
9.0,0.0032914839684963226
10.0,0.0027167561929672956
11.0,0.0023345353547483683
12.0,0.001870180363766849
13.0,0.0015894826501607895
14.0,0.0012807897292077541
15.0,0.0012165774824097753
16.0,0.0010807380313053727
18.0,0.0008245258941315114
20.0,0.0006381541024893522
22.0,0.00046425152686424553
24.0,0.0004273150989320129
26.0,0.00032205908792093396
28.0,0.00035758974263444543
30.0,0.0006108614034019411
32.0,0.0006160424090921879
36.0,0.00038993146154098213
40.0,-0.0004298189014662057
44.0,-0.00045915093505755067
48.0,-0.0003488343209028244
52.0,-8.381817315239459e-05
56.0,0.0002907165326178074
60.0,0.0005373118910938501
64.0,0.0003884895413648337
72.0,-0.000315586308715865
80.0,-0.00047858263133093715
88.0,-5.390753813117044e-06
96.0,-0.00014568424376193434
104.0,-0.00027187581872567534
112.0,-0.00025836186250671744
120.0,-7.252146315295249e-05
128.0,-0.00024535093689337373
144.0,-0.0003014083777088672
160.0,-0.0005408132565207779
176.0,-0.00019983404490631074
192.0,4.316513513913378e-05
208.0,-7.531962910434231e-05
224.0,0.00011838199861813337
240.0,0.0006216698093339801
256.0,0.0004978448851034045
288.0,-4.768052895087749e-05
320.0,-0.00038686691550537944
352.0,-0.00017231304082088172
384.0,-0.0005337981856428087
416.0,-0.0003781224659178406
448.0,-0.0005246002692729235
480.0,-0.0001554831105750054
512.0,6.152722562546842e-06
576.0,4.5412449253490195e-05
640.0,-0.0001570136664668098
704.0,-0.00032828733674250543
768.0,0.0004527868877630681
832.0,0.00030996097484603524
896.0,-0.00020320176554378122
960.0,-0.0002808422432281077
1024.0,-1.3827219845552463e-05
1152.0,-0.00018548793741501868
1280.0,-0.000110328481241595
1408.0,0.00015825917944312096
1536.0,-8.952935604611412e-05
1664.0,0.00022505997912958264
1792.0,-4.7481313231401145e-05
1920.0,6.160943303257227e-05
2048.0,7.823976488907647e-07
2304.0,1.32331961140153e-05
2560.0,-1.7321346604148857e-05
2816.0,9.51572583289817e-05
3072.0,-0.00016883198986761272
3328.0,4.5981534640304744e-05
3584.0,-5.745905582443811e-05
3840.0,8.138751582009718e-05
4096.0,2.72287979896646e-05
4608.0,6.554561696248129e-05
5120.0,-0.00011545913002919406
5632.0,1.6353409591829404e-05
6144.0,4.689426350523718e-05
6656.0,1.7053937426680932e-06
7168.0,-5.200130181037821e-05
7680.0,-1.1048979104089085e-05
8192.0,9.613754809834063e-05
9216.0,2.0169425624771975e-05
10240.0,-3.677255881484598e-05
11264.0,8.983793122752104e-06
12288.0,1.542948666610755e-05
13312.0,-5.612530731013976e-05
14336.0,-3.6105495382798836e-05
end
