version,3.0
numOfCh,1
type,point
parent_name,1000-cuts
ch_type,1_1
kcount,1
numberNandB,1
brightnessNandB,1
carpet pos,0
pc,0
Time (ms),CH1 Auto-Correlation
1.0,0.025823194533586502
2.0,0.01984584704041481
3.0,0.015651151537895203
4.0,0.012552689760923386
5.0,0.009918893687427044
6.0,0.007912863977253437
7.0,0.006449198815971613
8.0,0.005204606335610151
9.0,0.004040330648422241
10.0,0.0032318851444870234
11.0,0.002461683703586459
12.0,0.0018356908112764359
13.0,0.0012706499546766281
14.0,0.0009569604881107807
15.0,0.0008214330882765353
16.0,0.000712440989445895
18.0,0.0008250880637206137
20.0,0.0008396438788622618
22.0,0.0004451918648555875
24.0,0.00010535361070651561
26.0,0.00010961770021822304
28.0,0.00029450232977978885
30.0,0.00037353974767029285
32.0,0.00044127085129730403
36.0,0.001187987974844873
40.0,0.0009603001526556909
44.0,0.00044424948282539845
48.0,2.974561539303977e-06
52.0,-0.00030049544875510037
56.0,-0.0003341336559969932
60.0,-0.00036043176078237593
64.0,-0.0004465907404664904
72.0,-0.0008290190598927438
80.0,-0.0003892990935128182
88.0,-3.0227171009755693e-05
96.0,0.00048350091674365103
104.0,-9.222700464306399e-05
112.0,-0.00064153439598158
120.0,-0.00014644434850197285
128.0,0.00027001413400284946
144.0,-0.00017072157061193138
160.0,-0.0002574317913968116
176.0,0.0003621233336161822
192.0,8.364339009858668e-05
208.0,-4.7459911002079025e-05
224.0,-6.069861774449237e-05
240.0,0.00016907214012462646
256.0,7.89776531746611e-05
288.0,0.00036646603257395327
320.0,0.00018935617117676884
352.0,-0.0004123985709156841
384.0,9.780655818758532e-05
416.0,0.000177023553987965
448.0,0.00020479527302086353
480.0,0.00010391382238594815
512.0,5.951528873993084e-05
576.0,0.00022290280321612954
640.0,-0.0004236364329699427
704.0,0.00021332548931241035
768.0,2.69150023086695e-05
832.0,-5.641861935146153e-05
896.0,0.00019538230844773352
960.0,4.629619070328772e-05
1024.0,0.0005023010307922959
1152.0,-8.551741484552622e-05
1280.0,-0.00025863011251203716
1408.0,-0.0004301058652345091
1536.0,-7.675540837226436e-05
1664.0,0.0001873983273981139
1792.0,-0.000404413731303066
1920.0,0.0002325647510588169
2048.0,-0.00028123019728809595
2304.0,8.620697190053761e-05
2560.0,-0.00017803422815632075
2816.0,7.603846461279318e-05
3072.0,-5.684082134393975e-05
3328.0,-3.509468660922721e-05
3584.0,-4.6058175939833745e-05
3840.0,0.00011802700464613736
4096.0,-0.0001390337129123509
4608.0,-8.475288632325828e-05
5120.0,-3.727110743056983e-05
5632.0,6.215574103407562e-05
6144.0,6.569706602022052e-05
6656.0,3.898651812050957e-06
7168.0,-1.949317447724752e-05
7680.0,5.158886779099703e-05
8192.0,1.2765469818987185e-06
9216.0,1.4821684999333229e-05
10240.0,-5.907244121772237e-05
11264.0,-2.171186679333914e-05
12288.0,-0.00014698918676003814
13312.0,-0.0003330460167489946
14336.0,0.0002472716150805354
end
