version,3.0
numOfCh,1
type,point
parent_name,1000-cuts
ch_type,1_1
kcount,1
numberNandB,1
brightnessNandB,1
carpet pos,0
pc,0
Time (ms),CH1 Auto-Correlation
1.0,0.015659213066101074
2.0,0.012250621803104877
3.0,0.0097743459045887
4.0,0.00791214406490326
5.0,0.006611242890357971
6.0,0.005501514300704002
7.0,0.004616808146238327
8.0,0.0038937092758715153
9.0,0.003438177751377225
10.0,0.0029975976794958115
11.0,0.0026060971431434155
12.0,0.002267339965328574
13.0,0.0021046141628175974
14.0,0.001976834377273917
15.0,0.0017885358538478613
16.0,0.0016865043435245752
18.0,0.0011742598144337535
20.0,0.0009703024406917393
22.0,0.000902863685041666
24.0,0.000976794632151723
26.0,0.0008222911274060607
28.0,0.00040126408566720784
30.0,7.101235678419471e-05
32.0,-0.00012784881982952356
36.0,-0.0001771463721524924
40.0,4.5561442675534636e-05
44.0,-2.0042656615260057e-05
48.0,-0.00013791440869681537
52.0,-0.00018455844838172197
56.0,-0.0002641490427777171
60.0,-0.0006188204861246049
64.0,-0.0009457055712118745
72.0,-0.0005281810881569982
80.0,-0.0005257168086245656
88.0,-4.4100528612034395e-05
96.0,0.0004019211628474295
104.0,-0.0001688033080426976
112.0,-0.00034704621066339314
120.0,-0.00041230343049392104
128.0,-0.000122703961096704
144.0,-0.00029958589584566653
160.0,0.00025827085482887924
176.0,0.0005194973782636225
192.0,0.000754812266677618
208.0,0.0002509583136998117
224.0,-0.0004280380380805582
240.0,-0.0008961518760770559
256.0,-0.0007288604974746704
288.0,0.00012262612290214747
320.0,-0.00012218140182085335
352.0,-9.310998575529084e-05
384.0,0.00010016980377258733
416.0,-0.0007018339238129556
448.0,-3.3851960324682295e-05
480.0,0.00029824834200553596
512.0,-0.0001369330275338143
576.0,-6.79782751831226e-05
640.0,0.00010302536975359544
704.0,-5.446773502626456e-05
768.0,-3.617772745201364e-05
832.0,2.5002302209031768e-05
896.0,4.7627105232095346e-05
960.0,0.00038691385998390615
1024.0,-8.359011553693563e-05
1152.0,5.719991236219357e-07
1280.0,4.117249045521021e-05
1408.0,-7.881984492996708e-05
1536.0,-3.629447292041732e-06
1664.0,8.116089156828821e-05
1792.0,-3.4787073673214763e-05
1920.0,2.8108055630582385e-05
2048.0,1.7420812582713552e-05
2304.0,7.981236558407545e-05
2560.0,-3.758144157472998e-05
2816.0,-3.911635940312408e-05
3072.0,6.112526170909405e-05
3328.0,-0.00010076050239149481
3584.0,-8.326243550982326e-05
3840.0,-4.451874701771885e-05
4096.0,3.105332507402636e-05
4608.0,5.7430865126661956e-05
5120.0,-2.9747550797765143e-05
5632.0,-3.648041229098453e-06
6144.0,1.106025229091756e-05
6656.0,9.57090287556639e-06
7168.0,3.717538129421882e-05
7680.0,-4.528107092482969e-05
8192.0,-5.084500662633218e-05
9216.0,3.928296791855246e-05
10240.0,-7.86691380199045e-05
11264.0,2.1468234990607016e-05
12288.0,6.668501737294719e-05
13312.0,-0.00011541232379386202
14336.0,2.4645746634632815e-06
end
