version,3.0
numOfCh,1
type,point
parent_name,1000-cuts
ch_type,1_1
kcount,1
numberNandB,1
brightnessNandB,1
carpet pos,0
pc,0
Time (ms),CH1 Auto-Correlation
1.0,0.01622377708554268
2.0,0.012600806541740894
3.0,0.010105961002409458
4.0,0.008356455713510513
5.0,0.0070257047191262245
6.0,0.005969315767288208
7.0,0.005244689527899027
8.0,0.004593029618263245
9.0,0.0038970550522208214
10.0,0.0033495693933218718
11.0,0.0028376621194183826
12.0,0.0024704078678041697
13.0,0.0021657913457602262
14.0,0.0019562861416488886
15.0,0.0017428616993129253
16.0,0.001652720500715077
18.0,0.001507617998868227
20.0,0.0013664360158145428
22.0,0.0011413735337555408
24.0,0.0010388948721811175
26.0,0.0007916782633401453
28.0,0.0006506909267045557
30.0,0.0005074484506621957
32.0,7.746716437395662e-05
36.0,-1.890338899102062e-05
40.0,0.00022511220595333725
44.0,0.00010867719538509846
48.0,-0.0001564935373608023
52.0,-0.0003866235783789307
56.0,-3.954956991947256e-05
60.0,0.00010913203004747629
64.0,0.0002994124370161444
72.0,0.00012502516619861126
80.0,-3.8407128158723935e-05
88.0,5.5528169468743727e-05
96.0,7.869521505199373e-05
104.0,4.084632018930279e-05
112.0,0.00015832242206670344
120.0,7.721675501670688e-05
128.0,1.9686774976435117e-05
144.0,0.00010437327728141099
160.0,-0.00016337219858542085
176.0,0.00029155059019103646
192.0,-1.326678648183588e-05
208.0,0.0001923736126627773
224.0,4.5249042159412056e-05
240.0,6.671778101008385e-05
256.0,-0.0003807733301073313
288.0,0.00016545310791116208
320.0,4.778568836627528e-05
352.0,0.00012670981232076883
384.0,-0.00018531961541157216
416.0,-0.00021013329387642443
448.0,-0.00014423936954699457
480.0,4.402838385431096e-05
512.0,4.520001311902888e-05
576.0,-0.00043491378892213106
640.0,-5.1456252549542114e-05
704.0,-0.00038243221933953464
768.0,-7.242950960062444e-05
832.0,-0.00019384668848942965
896.0,-0.00011153173545608297
960.0,0.0002933303767349571
1024.0,0.00015715077461209148
1152.0,2.4532997485948727e-05
1280.0,1.0586260401623804e-07
1408.0,3.024440047738608e-05
1536.0,-0.00010535470937611535
1664.0,-9.258622594643384e-05
1792.0,-0.0001740240550134331
1920.0,-0.00015459743735846132
2048.0,0.00019306490139570087
2304.0,3.7728350434917957e-05
2560.0,5.6472901633242145e-05
2816.0,0.00016334310930687934
3072.0,1.2894513020000886e-05
3328.0,6.581213528988883e-05
3584.0,-9.750125900609419e-05
3840.0,-3.416091203689575e-05
4096.0,-0.0002724716323427856
4608.0,-8.597298437962309e-05
5120.0,4.826040458283387e-05
5632.0,6.707023567287251e-05
6144.0,2.9653987439814955e-05
6656.0,1.3227811734850548e-08
7168.0,-0.00010076523903990164
7680.0,7.263610314112157e-05
8192.0,0.00011466557043604553
9216.0,-4.7494281716353726e-06
10240.0,7.065303293529723e-07
11264.0,-5.4507749155163765e-05
12288.0,-8.377281119464897e-06
13312.0,9.300086276198272e-06
14336.0,-0.0001428918185411021
end
