version,3.0
numOfCh,1
type,point
parent_name,1000-cuts
ch_type,1_1
kcount,1
numberNandB,1
brightnessNandB,1
carpet pos,0
pc,0
Time (ms),CH1 Auto-Correlation
1.0,0.027022400870919228
2.0,0.02140865847468376
3.0,0.017672758549451828
4.0,0.014852222055196762
5.0,0.012780379503965378
6.0,0.011008155532181263
7.0,0.009473596699535847
8.0,0.008213425055146217
9.0,0.0072649335488677025
10.0,0.006535405293107033
11.0,0.005914042238146067
12.0,0.005424259230494499
13.0,0.00502979289740324
14.0,0.004706777632236481
15.0,0.004270299803465605
16.0,0.003776421770453453
18.0,0.0032074644695967436
20.0,0.003179908264428377
22.0,0.0033163982443511486
24.0,0.002924154279753566
26.0,0.00262867147102952
28.0,0.001842076308093965
30.0,0.0009498036815784872
32.0,0.00041025126120075583
36.0,0.0002773909654933959
40.0,0.00032009699498303235
44.0,6.865702744107693e-05
48.0,-1.674498344073072e-05
52.0,-4.9835198296932504e-05
56.0,-0.0005819984362460673
60.0,-0.0005630918894894421
64.0,-0.00019013028941117227
72.0,-0.0004997850046493113
80.0,-0.0001462224026909098
88.0,0.0004191381740383804
96.0,0.001038511167280376
104.0,0.0009831279749050736
112.0,0.0007219467661343515
120.0,0.0002372858434682712
128.0,0.0009121482144109905
144.0,0.0001160932588391006
160.0,-0.00037143839290365577
176.0,-0.0006070738309063017
192.0,-0.00029995603836141527
208.0,-0.00042361431405879557
224.0,-1.4321646631287877e-05
240.0,-0.00029436653130687773
256.0,-0.0010821321047842503
288.0,7.1744951128494e-05
320.0,0.0001994330668821931
352.0,0.0003646703262347728
384.0,3.246089181629941e-05
416.0,0.00032631828798912466
448.0,5.533730654860847e-05
480.0,-0.00033644758514128625
512.0,-0.0006809121696278453
576.0,0.0005648626247420907
640.0,-0.0013099509524181485
704.0,-0.00010538847709540278
768.0,-0.000800170237198472
832.0,0.00022108512348495424
896.0,-7.838310557417572e-05
960.0,0.00018190898117609322
1024.0,0.00026201101718470454
1152.0,-0.00016503634105902165
1280.0,-0.00011960371193708852
1408.0,0.0003894257824867964
1536.0,4.478494156501256e-05
1664.0,-0.0002507706230971962
1792.0,1.9257851818110794e-05
1920.0,0.0006694845505990088
2048.0,0.00011157281551277265
2304.0,-0.00011892729526152834
2560.0,1.945486837939825e-05
2816.0,-0.0003644923272076994
3072.0,0.00012499754666350782
3328.0,5.263149068923667e-05
3584.0,-7.27375372662209e-05
3840.0,0.00018002334400080144
4096.0,0.00034419214352965355
4608.0,-0.0003079144807998091
5120.0,0.0001315114786848426
5632.0,-6.149750697659329e-05
6144.0,4.053492739330977e-05
6656.0,-0.00020343174401205033
7168.0,-4.9005375331034884e-05
7680.0,-0.0001743382163112983
8192.0,0.00011087982420576736
9216.0,-2.0992549252696335e-05
10240.0,7.42576673928852e-07
11264.0,-0.00025118168559856713
12288.0,-5.639314622385427e-06
13312.0,0.0001747814822010696
14336.0,9.302089165430516e-05
end
