version,3.0
numOfCh,1
type,point
parent_name,1000-cuts
ch_type,1_1
kcount,1
numberNandB,1
brightnessNandB,1
carpet pos,0
pc,0
Time (ms),CH1 Auto-Correlation
1.0,0.027313929051160812
2.0,0.021288754418492317
3.0,0.017250796779990196
4.0,0.014318885281682014
5.0,0.01226105447858572
6.0,0.010419157333672047
7.0,0.0090254545211792
8.0,0.00793825276196003
9.0,0.0068596540950238705
10.0,0.005789140705019236
11.0,0.00488688051700592
12.0,0.004224107135087252
13.0,0.00379778235219419
14.0,0.0035134281497448683
15.0,0.003240993246436119
16.0,0.002988007152453065
18.0,0.002360753482207656
20.0,0.0017726526129990816
22.0,0.0011699622264131904
24.0,0.0007088888087309897
26.0,0.0004103670653421432
28.0,0.00011186015763087198
30.0,2.2649490347248502e-05
32.0,7.536729390267283e-05
36.0,0.00026345017249695957
40.0,-9.539807797409594e-05
44.0,-0.0005600376753136516
48.0,-0.0004999936791136861
52.0,3.298879892099649e-05
56.0,0.000326454610330984
60.0,0.000492205610498786
64.0,0.0007256479584611952
72.0,0.0009311828762292862
80.0,0.0003962270566262305
88.0,0.00016867359227035195
96.0,0.00012149573740316555
104.0,0.0003532367409206927
112.0,0.00044731685193255544
120.0,0.00024368012964259833
128.0,0.00014306430239230394
144.0,-0.00034434767439961433
160.0,0.0003375063824933022
176.0,0.0007031467976048589
192.0,0.001290548825636506
208.0,-5.270207839203067e-05
224.0,-2.1812476916238666e-05
240.0,-4.9266025598626584e-05
256.0,-0.00054620869923383
288.0,0.00034073935239575803
320.0,6.385420192600577e-07
352.0,0.0004709468048531562
384.0,-0.0007598058436997235
416.0,2.043476160906721e-05
448.0,-0.0005402133683674037
480.0,-0.00020893033070024103
512.0,-0.0007454523001797497
576.0,-0.00010623192065395415
640.0,-0.00013778713764622808
704.0,0.0006988176028244197
768.0,-9.446539479540661e-05
832.0,0.00011973954678978771
896.0,0.0003397506079636514
960.0,0.0003507273504510522
1024.0,4.623752465704456e-05
1152.0,-0.0002904710127040744
1280.0,-0.00021856935927644372
1408.0,0.00010577413922874257
1536.0,0.00033525534672662616
1664.0,0.0004972030874341726
1792.0,4.991098467144184e-05
1920.0,-0.0002341151557629928
2048.0,-0.0002173796674469486
2304.0,2.8816259145969525e-05
2560.0,-0.00017409012070856988
2816.0,-0.00011012829781975597
3072.0,-3.4017219149973243e-05
3328.0,-1.2128014532208908e-05
3584.0,0.00010315461258869618
3840.0,-5.397211862145923e-05
4096.0,-0.0002985539904329926
4608.0,-0.00017649601795710623
5120.0,-3.201672370778397e-05
5632.0,0.00021297682542353868
6144.0,-9.893992682918906e-06
6656.0,9.140197653323412e-05
7168.0,-0.00018289349100086838
7680.0,0.0001039388298522681
8192.0,-0.0001845621591201052
9216.0,0.00014923771959729493
10240.0,-8.802644879324362e-05
11264.0,-6.384227162925526e-05
12288.0,-0.00028924489743076265
13312.0,-0.0004408972163219005
14336.0,5.031369437347166e-05
end
