version,3.0
numOfCh,1
type,point
parent_name,1000-cuts
ch_type,1_1
kcount,1
numberNandB,1
brightnessNandB,1
carpet pos,0
pc,0
Time (ms),CH1 Auto-Correlation
1.0,0.026537470519542694
2.0,0.020621078088879585
3.0,0.016423048451542854
4.0,0.013294308446347713
5.0,0.010954447090625763
6.0,0.008988994173705578
7.0,0.0073250713758170605
8.0,0.0060155270621180534
9.0,0.005095408298075199
10.0,0.004323165398091078
11.0,0.003681995440274477
12.0,0.003024832811206579
13.0,0.002560306340456009
14.0,0.0021840217523276806
15.0,0.001837223651818931
16.0,0.0016624463023617864
18.0,0.001513493130914867
20.0,0.001035261433571577
22.0,0.0008082188433036208
24.0,0.0006111371912993491
26.0,0.0005221625324338675
28.0,-8.560804417356849e-05
30.0,-0.0005587699124589562
32.0,-0.0006573666469193995
36.0,-0.000985321239568293
40.0,-0.0009711220627650619
44.0,-0.0007017844473011792
48.0,-0.00034107069950550795
52.0,1.3226802366261836e-05
56.0,0.000382435682695359
60.0,7.589383312733844e-05
64.0,0.00030047810287214816
72.0,0.0004199841641820967
80.0,0.0002802606322802603
88.0,4.798128065885976e-05
96.0,-2.914138531195931e-05
104.0,3.88389962608926e-05
112.0,-0.00017358000332023948
120.0,-0.0006740789394825697
128.0,-0.0007519748178310692
144.0,9.889631655823905e-06
160.0,0.0003668212448246777
176.0,0.00029816501773893833
192.0,0.0001666602329351008
208.0,0.0008774701855145395
224.0,0.0014055996434763074
240.0,0.0008746378007344902
256.0,-1.3234256357463892e-06
288.0,0.0003968657983932644
320.0,1.1291950613667723e-05
352.0,-0.00035212270449846983
384.0,7.425544936268125e-06
416.0,8.392552263103426e-05
448.0,-0.00042514866800047457
480.0,0.00015177532623056322
512.0,0.0003658733330667019
576.0,-7.712146907579154e-05
640.0,-0.0002338268095627427
704.0,-0.0006912868120707572
768.0,0.0001825946819735691
832.0,-0.0001436183083569631
896.0,-0.0003876523987855762
960.0,-0.00013815637794323266
1024.0,-3.310351894469932e-05
1152.0,1.7380768895236542e-06
1280.0,-0.00024030919303186238
1408.0,0.00012223074736539274
1536.0,-0.0001824319188017398
1664.0,0.0001031475403578952
1792.0,0.00019292693468742073
1920.0,0.00015684854588471353
2048.0,-1.524827803223161e-05
2304.0,3.297493458376266e-05
2560.0,1.6186324501177296e-05
2816.0,-0.00012080913438694552
3072.0,-0.00024117217981256545
3328.0,-0.00014538972754962742
3584.0,6.44727551843971e-05
3840.0,6.125752406660467e-05
4096.0,-9.161570051219314e-05
4608.0,-9.26181601244025e-05
5120.0,0.00012240125215612352
5632.0,-0.00012125664943596348
6144.0,4.162362529314123e-05
6656.0,-5.162032539374195e-05
7168.0,8.206482016248628e-05
7680.0,1.2630782748601632e-06
8192.0,-0.00022209847520571202
9216.0,5.091772982268594e-05
10240.0,3.138770625810139e-05
11264.0,7.795097917551175e-05
12288.0,2.1468651539180428e-05
13312.0,-4.335513949627057e-05
14336.0,-0.00024208318791352212
end
