version,3.0
numOfCh,1
type,point
parent_name,1000-cuts
ch_type,1_1
kcount,1
numberNandB,1
brightnessNandB,1
carpet pos,0
pc,0
Time (ms),CH1 Auto-Correlation
1.0,0.025840308517217636
2.0,0.01995881460607052
3.0,0.015809064731001854
4.0,0.01288123894482851
5.0,0.010760550387203693
6.0,0.008905000053346157
7.0,0.007563647348433733
8.0,0.0064711361192166805
9.0,0.005530321039259434
10.0,0.0045675234869122505
11.0,0.003978171851485968
12.0,0.003584912745282054
13.0,0.00338294031098485
14.0,0.0029279466252774
15.0,0.0027128218207508326
16.0,0.002764038974419236
18.0,0.002749696606770158
20.0,0.0023014035541564226
22.0,0.0018160509644076228
24.0,0.0018322290852665901
26.0,0.0016657003434374928
28.0,0.0012756928335875273
30.0,0.0014491778565570712
32.0,0.0017305811634287238
36.0,0.001614401931874454
40.0,0.0009628285770304501
44.0,0.0007054098532535136
48.0,4.8089590563904494e-05
52.0,-5.1202050599385984e-06
56.0,0.00019753370725084096
60.0,0.00018315175839234143
64.0,-4.024529062007787e-06
72.0,1.3138972462911624e-05
80.0,3.2980749438138446e-06
88.0,0.0002522019494790584
96.0,0.0004711498331744224
104.0,-0.00022769617498852313
112.0,7.328834908548743e-05
120.0,0.0001405993098160252
128.0,0.00025217729853466153
144.0,-0.00013976843911223114
160.0,-0.00011879808880621567
176.0,-0.0002760265488177538
192.0,-0.00041410198900848627
208.0,-0.00040966030792333186
224.0,-2.9026494303252548e-05
240.0,-0.00015606285887770355
256.0,-0.00045639308518730104
288.0,-5.706944648409262e-05
320.0,0.00019198709924239665
352.0,0.00014286060468293726
384.0,0.0003809278423432261
416.0,0.0007823338964954019
448.0,0.00039361848030239344
480.0,0.00010044073860626668
512.0,0.00015433365479111671
576.0,-0.00022415556304622442
640.0,-0.00020440162916202098
704.0,-5.0606373406481e-05
768.0,0.00027111798408441246
832.0,9.598296310286969e-05
896.0,-8.065163274295628e-05
960.0,-0.00032404280500486493
1024.0,-0.0006055553676560521
1152.0,2.5765337340999395e-05
1280.0,0.00040155337774194777
1408.0,4.136338611715473e-05
1536.0,0.00013315730029717088
1664.0,-6.298702646745369e-05
1792.0,0.0002339174970984459
1920.0,-0.00011327431275276467
2048.0,-7.43026685086079e-05
2304.0,-0.00015037886623758823
2560.0,0.00011748276301659644
2816.0,5.357678674045019e-06
3072.0,5.0343776820227504e-05
3328.0,-5.5636450269958004e-05
3584.0,4.967704808223061e-05
3840.0,0.00020235822012182325
4096.0,-3.9390750316670164e-05
4608.0,-9.35219504754059e-05
5120.0,-0.00014451652532443404
5632.0,-6.860100256744772e-05
6144.0,6.865564046165673e-06
6656.0,-9.108517406275496e-05
7168.0,-0.00010166550055146217
7680.0,-0.0002327040274394676
8192.0,-0.00033301752409897745
9216.0,0.0001687594485701993
10240.0,-0.00014647313219029456
11264.0,-0.0001595356734469533
12288.0,-8.587702905060723e-05
13312.0,0.0003258259384892881
14336.0,-0.00025667849695309997
end
