version,3.0
numOfCh,1
type,point
parent_name,1000-cuts
ch_type,1_1
kcount,1
numberNandB,1
brightnessNandB,1
carpet pos,0
pc,0
Time (ms),CH1 Auto-Correlation
1.0,0.015971502289175987
2.0,0.01246667094528675
3.0,0.010052217170596123
4.0,0.008340985514223576
5.0,0.007031382992863655
6.0,0.006022733170539141
7.0,0.005117176566272974
8.0,0.004364946857094765
9.0,0.0036745222751051188
10.0,0.003038746304810047
11.0,0.002542105270549655
12.0,0.0021693818271160126
13.0,0.0018095530103892088
14.0,0.0016298512928187847
15.0,0.0014359537744894624
16.0,0.0012554220156744123
18.0,0.0011148413177579641
20.0,0.0007138059008866549
22.0,0.00040377190453000367
24.0,0.00030940206488594413
26.0,0.00021703977836295962
28.0,0.0001740630978019908
30.0,0.00011871105380123481
32.0,0.0002389233122812584
36.0,0.0004399664467200637
40.0,0.0005098690744489431
44.0,0.00018524323240853846
48.0,-5.3420229960465804e-05
52.0,0.00010505669342819601
56.0,0.0003232410817872733
60.0,0.00015506826457567513
64.0,0.0001551460154587403
72.0,-0.0002213886909885332
80.0,-0.0002699856704566628
88.0,9.331737965112552e-05
96.0,0.0004676209355238825
104.0,0.00014007501886226237
112.0,-1.1650737178570125e-05
120.0,1.8546597857493907e-05
128.0,-0.00033743094536475837
144.0,0.0002501572307664901
160.0,0.00033069419441744685
176.0,-0.00021407398162409663
192.0,-0.0003231255104765296
208.0,6.659962673438713e-05
224.0,0.00011319221812300384
240.0,0.00015050866932142526
256.0,0.0003227934066671878
288.0,9.471272642258555e-05
320.0,0.0003158757172059268
352.0,-5.3553860198007897e-05
384.0,0.00022550980793312192
416.0,0.0003151379351038486
448.0,0.00034708910970948637
480.0,-0.00012505895574577153
512.0,-0.00018477963749319315
576.0,-0.0002280412445543334
640.0,-0.00016111772856675088
704.0,2.0520228645182215e-05
768.0,8.664564666105434e-05
832.0,-0.00010094681056216359
896.0,8.992802759166807e-05
960.0,3.320436007925309e-05
1024.0,-4.415069270180538e-05
1152.0,0.00015356829680968076
1280.0,-0.00011969498154940084
1408.0,-0.00029121313127689064
1536.0,-0.00015704185352660716
1664.0,-8.870770398061723e-05
1792.0,-0.00026698573492467403
1920.0,0.00020035808847751468
2048.0,0.00018201077182311565
2304.0,0.00025272718630731106
2560.0,8.672065450809896e-05
2816.0,-8.702238119440153e-06
3072.0,-6.80163866491057e-05
3328.0,-3.935404311050661e-05
3584.0,-0.00011788262781919912
3840.0,-7.885010563768446e-05
4096.0,8.689007518114522e-05
4608.0,6.974994903430343e-05
5120.0,-0.00012849658378399909
5632.0,-0.0001569705200381577
6144.0,-0.0002254449500469491
6656.0,7.262896542670205e-05
7168.0,3.1778628908796236e-05
7680.0,-5.783935193903744e-05
8192.0,-2.8777800253010355e-05
9216.0,7.977467612363398e-05
10240.0,-7.630842446815223e-05
11264.0,0.00018866614846047014
12288.0,-5.058562237536535e-05
13312.0,-8.101270941551775e-05
14336.0,0.0001618554670130834
end
