version,3.0
numOfCh,1
type,point
parent_name,1000-cuts
ch_type,1_1
kcount,1
numberNandB,1
brightnessNandB,1
carpet pos,0
pc,0
Time (ms),CH1 Auto-Correlation
1.0,0.02640601620078087
2.0,0.020566388964653015
3.0,0.016548793762922287
4.0,0.013711323030292988
5.0,0.011700383387506008
6.0,0.010179245844483376
7.0,0.008796322159469128
8.0,0.00786034855991602
9.0,0.006924022454768419
10.0,0.006055810488760471
11.0,0.005409655161201954
12.0,0.004976013675332069
13.0,0.004462925251573324
14.0,0.0038801420014351606
15.0,0.0032419986091554165
16.0,0.00271911290474236
18.0,0.00176980160176754
20.0,0.0014781191712245345
22.0,0.0014131207717582583
24.0,0.0009600953781045973
26.0,0.0005211218376643956
28.0,7.527456182288006e-05
30.0,-8.701437764102593e-05
32.0,-0.00024125124036800116
36.0,0.00023727149527985603
40.0,0.00012954339035786688
44.0,0.00035872141597792506
48.0,0.0003998717002104968
52.0,0.0005884929560124874
56.0,0.000564493122510612
60.0,0.0003372833307366818
64.0,9.901011799229309e-05
72.0,-0.00038682157173752785
80.0,-0.0005925045697949827
88.0,-0.0004242540162522346
96.0,0.0002597255224827677
104.0,-5.943273936281912e-05
112.0,-0.0004905805108137429
120.0,-0.00017294309509452432
128.0,0.00017976855451706797
144.0,0.000413228030083701
160.0,0.00036494797677733004
176.0,0.0004170549800619483
192.0,0.0007949541322886944
208.0,0.00042059444240294397
224.0,-0.0005345780518837273
240.0,-0.0005653328262269497
256.0,-0.0007877221214585006
288.0,-0.00025392434326931834
320.0,0.00016442418564110994
352.0,-6.866409967187792e-05
384.0,-0.0003219954378437251
416.0,0.000457532936707139
448.0,0.00012014107051072642
480.0,0.00016022901399992406
512.0,-0.00024295970797538757
576.0,-0.00042875317740254104
640.0,-0.0002373375609749928
704.0,-0.00024936729460023344
768.0,-0.00046126730740070343
832.0,-9.794059587875381e-05
896.0,0.0004672425566241145
960.0,-5.462603076011874e-05
1024.0,9.819907427299768e-05
1152.0,-0.00010322619345970452
1280.0,0.00024220782506745309
1408.0,-0.00018266058759763837
1536.0,-0.000632195791695267
1664.0,-0.00030872877687215805
1792.0,5.016199065721594e-05
1920.0,-2.4728849894017912e-05
2048.0,3.448693314567208e-05
2304.0,4.9153553845826536e-05
2560.0,-7.474056474165991e-05
2816.0,-9.927611972671002e-05
3072.0,0.00032514039776287973
3328.0,0.00011994507804047316
3584.0,0.00039564771577715874
3840.0,0.0001170103860204108
4096.0,-0.00013821542961522937
4608.0,-0.00011642500612651929
5120.0,-0.00034713459899649024
5632.0,-4.004740549135022e-05
6144.0,8.449400775134563e-05
6656.0,0.00035278749419376254
7168.0,-0.0002962823782581836
7680.0,0.00019889470422640443
8192.0,-0.00041881445213221014
9216.0,-0.00012259077630005777
10240.0,8.587850607000291e-05
11264.0,-1.5236327044476639e-06
12288.0,-3.0143077310640365e-05
13312.0,-8.924496796680614e-05
14336.0,-7.842401828384027e-05
end
