version,3.0
numOfCh,1
type,point
parent_name,1000-cuts
ch_type,1_1
kcount,1
numberNandB,1
brightnessNandB,1
carpet pos,0
pc,0
Time (ms),CH1 Auto-Correlation
1.0,0.02694798819720745
2.0,0.02103799767792225
3.0,0.016752198338508606
4.0,0.013712059706449509
5.0,0.01135244406759739
6.0,0.009207777678966522
7.0,0.007748769596219063
8.0,0.006494252942502499
9.0,0.005457483232021332
10.0,0.00466783856973052
11.0,0.004160553682595491
12.0,0.0036118628922849894
13.0,0.003271779976785183
14.0,0.0027847096789628267
15.0,0.0023275595158338547
16.0,0.0018777080113068223
18.0,0.0014484962448477745
20.0,0.0012200538767501712
22.0,0.001179018639959395
24.0,0.0008308493997901678
26.0,0.00039631157414987683
28.0,0.0006397939287126064
30.0,0.0007285616593435407
32.0,0.00110532040707767
36.0,0.0016939323395490646
40.0,0.0018887564074248075
44.0,0.0011190407676622272
48.0,0.00011544998415047303
52.0,0.00025943806394934654
56.0,0.0006790929473936558
60.0,0.0009918817086145282
64.0,0.001609611907042563
72.0,0.0009313049376942217
80.0,-9.090999083127826e-05
88.0,-0.0006721676327288151
96.0,5.1835188060067594e-05
104.0,-5.820054138894193e-05
112.0,0.00034205534029752016
120.0,-0.00046814163215458393
128.0,3.0863382562529296e-05
144.0,-0.0004914071760140359
160.0,-0.0002437119255773723
176.0,-0.0002941792190540582
192.0,0.0003661657392513007
208.0,0.0008360157371498644
224.0,0.0003788452304434031
240.0,-0.00021797316730953753
256.0,-7.003836071817204e-05
288.0,5.430732562672347e-05
320.0,0.00033750690636225045
352.0,2.8814441975555383e-05
384.0,-0.00026288555818609893
416.0,-0.00044596163206733763
448.0,-0.0003544077917467803
480.0,8.200044248951599e-05
512.0,0.0004769452498294413
576.0,-0.00033028353936970234
640.0,-3.924452903447673e-05
704.0,-6.38712735963054e-05
768.0,-0.0001395377330482006
832.0,-0.0002380930382059887
896.0,0.00013969314750283957
960.0,7.904791709734127e-05
1024.0,-8.016490755835548e-05
1152.0,3.883911267621443e-05
1280.0,-0.0003162524662911892
1408.0,0.0003963806666433811
1536.0,-0.00022735806123819202
1664.0,-0.00024255838070530444
1792.0,-0.00026281739701516926
1920.0,2.5803998141782358e-05
2048.0,-0.000324890308547765
2304.0,0.00012447878543753177
2560.0,0.00023348222021013498
2816.0,0.00024431743077002466
3072.0,8.454891940345988e-05
3328.0,0.00015997691662050784
3584.0,3.7458568840520456e-05
3840.0,1.1647905921563506e-05
4096.0,-0.000385189923690632
4608.0,-0.0001727723574731499
5120.0,-0.00024785372079350054
5632.0,-8.858612272888422e-05
6144.0,0.00018987276416737586
6656.0,-0.00010362311149947345
7168.0,2.7718193450709805e-05
7680.0,-0.0002611718373373151
8192.0,-0.00012676999904215336
9216.0,8.629071817267686e-05
10240.0,2.676829171832651e-05
11264.0,-8.012132457224652e-05
12288.0,8.519392576999962e-05
13312.0,6.768419780200929e-07
14336.0,-4.684663508669473e-05
end
