version,3.0
numOfCh,1
type,point
parent_name,1000-cuts
ch_type,1_1
kcount,1
numberNandB,1
brightnessNandB,1
carpet pos,0
pc,0
Time (ms),CH1 Auto-Correlation
1.0,0.01560218445956707
2.0,0.01208807248622179
3.0,0.00967929046601057
4.0,0.0079857362434268
5.0,0.006691888440400362
6.0,0.005733170080929995
7.0,0.005019988398998976
8.0,0.00427662068977952
9.0,0.0037195063196122646
10.0,0.0033330225851386786
11.0,0.0029918423388153315
12.0,0.002607905538752675
13.0,0.0023582479916512966
14.0,0.0020426050759851933
15.0,0.0017454002518206835
16.0,0.0015149065293371677
18.0,0.0012024245224893093
20.0,0.0009844658197835088
22.0,0.0007155553321354091
24.0,0.0003141891211271286
26.0,0.00023180410789791495
28.0,0.0004136541101615876
30.0,0.0006955558783374727
32.0,0.0007587168365716934
36.0,0.00039784834370948374
40.0,0.0002461924741510302
44.0,-7.205265865195543e-05
48.0,-0.00014405562251340598
52.0,0.00010790612577693537
56.0,0.0003815015952568501
60.0,0.00025111393188126385
64.0,0.00022946835088077933
72.0,0.00012342134141363204
80.0,0.0001755078847054392
88.0,-4.6673394535901025e-05
96.0,0.0003056587593164295
104.0,-0.00011247049405938014
112.0,-0.00013203131675254554
120.0,-0.00023003500245977193
128.0,0.0001691643410595134
144.0,4.026590977446176e-05
160.0,-5.5171076382976025e-05
176.0,-0.0003079223679378629
192.0,-0.00024998828303068876
208.0,6.462513556471094e-05
224.0,0.00013788676005788147
240.0,-9.182838402921334e-05
256.0,-1.2274942491785623e-05
288.0,0.00033918264671228826
320.0,0.00034495157888159156
352.0,0.00021346076391637325
384.0,0.00018356576038058847
416.0,-0.0002013433404499665
448.0,-0.0001551273453515023
480.0,-8.504830475430936e-05
512.0,-6.555510481121019e-05
576.0,-4.39399664173834e-05
640.0,0.00012919431901536882
704.0,2.7588295779423788e-05
768.0,-0.00020850184955634177
832.0,-0.0002142656740033999
896.0,-0.0001246867177542299
960.0,-0.00043347434257157147
1024.0,-0.00023213807435240597
1152.0,-5.2805571613134816e-05
1280.0,-0.0002928749308921397
1408.0,-0.00023509668244514614
1536.0,-0.00018082518363371491
1664.0,4.884636655333452e-05
1792.0,-7.228864706121385e-05
1920.0,0.0003558453172445297
2048.0,0.0002401054953224957
2304.0,-2.0228773792041466e-05
2560.0,0.00015828497998882085
2816.0,-7.32616608729586e-05
3072.0,-0.00011660226300591603
3328.0,-0.00016674435755703598
3584.0,1.1014715710189193e-05
3840.0,-5.269618486636318e-05
4096.0,0.00016455621516797692
4608.0,0.00013091741129755974
5120.0,-0.00011349593114573509
5632.0,-4.508313213591464e-05
6144.0,-3.176495374646038e-05
6656.0,0.0001957576023414731
7168.0,-3.832831862382591e-05
7680.0,-0.0001314762484980747
8192.0,5.353126107365824e-05
9216.0,-9.873447561403736e-05
10240.0,5.851139212609269e-05
11264.0,8.977071411209181e-05
12288.0,-0.00013570766896009445
13312.0,-9.921719902195036e-05
14336.0,6.831885548308492e-05
end
