version,3.0
numOfCh,1
type,point
parent_name,1000-cuts
ch_type,1_1
kcount,1
numberNandB,1
brightnessNandB,1
carpet pos,0
pc,0
Time (ms),CH1 Auto-Correlation
1.0,0.026297317817807198
2.0,0.02053404413163662
3.0,0.016415691003203392
4.0,0.01348947174847126
5.0,0.011168096214532852
6.0,0.009238289669156075
7.0,0.00791852455586195
8.0,0.006877749226987362
9.0,0.006139927543699741
10.0,0.005326852202415466
11.0,0.00460357591509819
12.0,0.004052628297358751
13.0,0.003566448111087084
14.0,0.003300347365438938
15.0,0.0030074671376496553
16.0,0.002761762822046876
18.0,0.0021609917748719454
20.0,0.0016521327197551727
22.0,0.0010537508642300963
24.0,0.0007677151588723063
26.0,0.0007796073332428932
28.0,0.0006067969370633364
30.0,0.0003474146651569754
32.0,0.00019849967793561518
36.0,-3.79717348550912e-05
40.0,-0.00016309021157212555
44.0,-0.0006377906538546085
48.0,-0.0008934323559515178
52.0,-0.0005350977298803627
56.0,-0.0004424598882906139
60.0,-0.0004906460526399314
64.0,-0.0008100012200884521
72.0,-0.0007339311996474862
80.0,-0.00046191425644792616
88.0,-0.00032228336203843355
96.0,-1.9917624740628526e-05
104.0,-0.0003289648157078773
112.0,0.0003267646243330091
120.0,0.0010937475599348545
128.0,0.0014388011768460274
144.0,0.0001917232875712216
160.0,-0.00048081291606649756
176.0,0.00015225201786961406
192.0,0.00020886847050860524
208.0,-6.584409857168794e-05
224.0,-0.0005303632351569831
240.0,3.379389681867906e-06
256.0,0.0006779836839996278
288.0,-0.000583269284106791
320.0,-0.00044977915240451694
352.0,-0.0003356426313985139
384.0,-0.0003703405091073364
416.0,-0.0005870979512110353
448.0,-0.0005218496080487967
480.0,0.0005856110947206616
512.0,-0.00012004376185359433
576.0,-0.00011929024913115427
640.0,4.434283255250193e-06
704.0,7.359423761954531e-05
768.0,0.00022943127260077745
832.0,-0.0006546073709614575
896.0,0.0004027040267828852
960.0,1.065081414708402e-05
1024.0,-0.0004142646212130785
1152.0,-0.00013220065739005804
1280.0,-0.00012035213148919865
1408.0,-9.055330883711576e-05
1536.0,-0.0001327416393905878
1664.0,0.00012020454596495256
1792.0,6.80766606819816e-05
1920.0,-8.017750224098563e-05
2048.0,5.090394552098587e-06
2304.0,-0.00011166137846885249
2560.0,0.00029935885686427355
2816.0,9.108725498663262e-05
3072.0,-7.639552495675161e-05
3328.0,0.0001907933474285528
3584.0,-0.0006214680033735931
3840.0,0.00011205534246983007
4096.0,0.00021707125415559858
4608.0,1.54745521285804e-05
5120.0,-3.171130174450809e-06
5632.0,0.00012024900206597522
6144.0,-0.000324374035699293
6656.0,5.920310286455788e-05
7168.0,0.00023828512348700315
7680.0,-0.00016194136696867645
8192.0,0.00016855369904078543
9216.0,-6.804054009990068e-06
10240.0,6.643706001341343e-05
11264.0,-4.025502494187094e-05
12288.0,9.706458513392136e-05
13312.0,-1.739572144288104e-05
14336.0,-4.400308898766525e-05
end
