version,3.0
numOfCh,1
type,point
parent_name,1000-cuts
ch_type,1_1
kcount,1
numberNandB,1
brightnessNandB,1
carpet pos,0
pc,0
Time (ms),CH1 Auto-Correlation
1.0,0.025565255433321
2.0,0.019654063507914543
3.0,0.015640864148736
4.0,0.01280917413532734
5.0,0.010690753348171711
6.0,0.008922805078327656
7.0,0.007724038325250149
8.0,0.006718955002725124
9.0,0.005945188924670219
10.0,0.0050700330175459385
11.0,0.0042213029228150845
12.0,0.0037388603668659925
13.0,0.0031969917472451925
14.0,0.0026935385540127754
15.0,0.0024960110895335674
16.0,0.0021738603245466948
18.0,0.001875840942375362
20.0,0.001474132644943893
22.0,0.00101307756267488
24.0,0.0008091985364444554
26.0,0.00044157684897072613
28.0,0.0005486055742949247
30.0,0.0005242903134785593
32.0,0.0006727257277816534
36.0,0.0003164949594065547
40.0,0.00029829866252839565
44.0,0.00014590745558962226
48.0,-0.0003096796863246709
52.0,-0.0005770240677520633
56.0,-0.000328436290146783
60.0,2.7571863029152155e-05
64.0,0.00017154001398012042
72.0,0.00044373521814122796
80.0,6.5366534727218095e-06
88.0,0.00013845799549017102
96.0,-0.00011826145782833919
104.0,-0.00038092443719506264
112.0,-0.00022103555966168642
120.0,-0.0007426085066981614
128.0,-0.0002400156226940453
144.0,-0.0006498037837445736
160.0,-0.0003557309682946652
176.0,-0.00020951787882950157
192.0,6.559315079357475e-05
208.0,0.00014098659448791295
224.0,-0.0007386528304778039
240.0,-0.00011258031008765101
256.0,0.0004123690305277705
288.0,0.0001455801393603906
320.0,-0.0003256934869568795
352.0,-0.0006552700651809573
384.0,-0.00021593338169623166
416.0,-0.0008382017840631306
448.0,-4.441116107045673e-05
480.0,0.0004613876808434725
512.0,-0.0004891601274721324
576.0,0.0003088704834226519
640.0,5.374323882278986e-05
704.0,-0.00024538947036489844
768.0,0.0004231481289025396
832.0,6.13545926171355e-05
896.0,0.00012842490104958415
960.0,-0.0001301667798543349
1024.0,-0.00039690910489298403
1152.0,-0.00022923096548765898
1280.0,-0.00010091596050187945
1408.0,0.0002494903455954045
1536.0,0.00031586195109412074
1664.0,-7.575806375825778e-05
1792.0,-5.94931589148473e-05
1920.0,-8.144768798956648e-05
2048.0,-5.34826576767955e-05
2304.0,0.00012641630019061267
2560.0,-0.00019920426711905748
2816.0,-0.0001650179037824273
3072.0,0.0001914226304506883
3328.0,-0.00030374262132681906
3584.0,-8.134519885061309e-05
3840.0,6.664702959824353e-05
4096.0,0.00010389465023763478
4608.0,2.1099473087815568e-05
5120.0,-2.7205383958062157e-05
5632.0,6.462301826104522e-05
6144.0,2.1764306438853964e-05
6656.0,-0.00011390206054784358
7168.0,7.980693044373766e-05
7680.0,-3.647095218184404e-05
8192.0,0.00012151857663411647
9216.0,6.192615546751767e-05
10240.0,-7.687757897656411e-05
11264.0,5.942902498645708e-05
12288.0,-0.0001516660413471982
13312.0,0.0001418098108842969
14336.0,0.00018262687081005424
end
