version,3.0
numOfCh,1
type,point
parent_name,1000-cuts
ch_type,1_1
kcount,1
numberNandB,1
brightnessNandB,1
carpet pos,0
pc,0
Time (ms),CH1 Auto-Correlation
1.0,0.024451907724142075
2.0,0.01874430477619171
3.0,0.014670535922050476
4.0,0.011778680607676506
5.0,0.009827636182308197
6.0,0.008395113982260227
7.0,0.007116304710507393
8.0,0.006217812653630972
9.0,0.005485771223902702
10.0,0.0047428966499865055
11.0,0.004340290557593107
12.0,0.004006039816886187
13.0,0.003611060557886958
14.0,0.0032096276991069317
15.0,0.0028466577641665936
16.0,0.00275039067491889
18.0,0.0022064184304326773
20.0,0.0015171592822298408
22.0,0.0011947457678616047
24.0,0.0011134290834888816
26.0,0.0010056626051664352
28.0,0.000928431807551533
30.0,0.0007469440461136401
32.0,0.0008935353835113347
36.0,0.00016610756574664265
40.0,-0.0005507306777872145
44.0,-0.0005828856956213713
48.0,-0.0005796083132736385
52.0,-0.0005481382831931114
56.0,-0.00020393992599565536
60.0,0.0005193983670324087
64.0,5.635459820041433e-05
72.0,-0.00027408802998252213
80.0,-0.0007317213458009064
88.0,-0.0004478839400690049
96.0,-0.0003614798479247838
104.0,-0.0004906536196358502
112.0,-0.0003977989836130291
120.0,-0.00011515140067785978
128.0,0.00018158365855924785
144.0,7.075186294969171e-05
160.0,-9.87654784694314e-05
176.0,0.00025975130847655237
192.0,-0.00021104616462253034
208.0,-0.0010887421667575836
224.0,-0.0007921615615487099
240.0,-0.0005460470565594733
256.0,-0.00024284710525535047
288.0,-0.0006508149090223014
320.0,0.00035032472806051373
352.0,0.0005182166351005435
384.0,-8.520062692696229e-05
416.0,0.00039124806062318385
448.0,0.00044345136848278344
480.0,-0.0005220394814386964
512.0,-0.00044330055243335664
576.0,-9.033121750690043e-05
640.0,-0.00024243019288405776
704.0,-0.00017342198407277465
768.0,0.0002322360669495538
832.0,0.00018131161050405353
896.0,-0.00031885792850516737
960.0,-0.00020912755280733109
1024.0,-8.079213330347557e-06
1152.0,-0.0003333540807943791
1280.0,-9.952489199349657e-05
1408.0,6.846657925052568e-05
1536.0,-0.0002529432240407914
1664.0,0.00011882490071002394
1792.0,-5.15454030391993e-06
1920.0,-0.00027429420151747763
2048.0,0.0003513146366458386
2304.0,7.729914068477228e-05
2560.0,7.63788484618999e-05
2816.0,7.913129957159981e-05
3072.0,0.00013549318828154355
3328.0,-0.00021932381787337363
3584.0,-0.0002103435981553048
3840.0,-0.0001002112912829034
4096.0,-3.413791273487732e-05
4608.0,-0.00011987288598902524
5120.0,0.00019116363546345383
5632.0,0.00011142771109007299
6144.0,-0.0001814953429857269
6656.0,-8.138115663314238e-05
7168.0,9.076076821656898e-05
7680.0,0.0001767675712471828
8192.0,9.250814764527604e-05
9216.0,-4.6464832848869264e-05
10240.0,-2.5010863282659557e-06
11264.0,-8.958853140939027e-05
12288.0,3.7846866689505987e-06
13312.0,-2.025435424002353e-05
14336.0,1.0613756785460282e-05
end
