version,3.0
numOfCh,1
type,point
parent_name,1000-cuts
ch_type,1_1
kcount,1
numberNandB,1
brightnessNandB,1
carpet pos,0
pc,0
Time (ms),CH1 Auto-Correlation
1.0,0.024723077192902565
2.0,0.018750403076410294
3.0,0.014969109557569027
4.0,0.012218175455927849
5.0,0.010142030194401741
6.0,0.008591540157794952
7.0,0.007347362115979195
8.0,0.006556359585374594
9.0,0.005813571158796549
10.0,0.005044886842370033
11.0,0.004356324207037687
12.0,0.0036427529994398355
13.0,0.0032915661577135324
14.0,0.003012638771906495
15.0,0.002519141184166074
16.0,0.0021106458734720945
18.0,0.002000372391194105
20.0,0.002029700204730034
22.0,0.0017972256755456328
24.0,0.0014601476723328233
26.0,0.0009433808154426515
28.0,0.0008646323112770915
30.0,0.0008292732527479529
32.0,0.0006047558854334056
36.0,-9.314099588664249e-05
40.0,-0.000505276897456497
44.0,-0.00024674105225130916
48.0,0.00023855145263951272
52.0,0.0009517182479612529
56.0,0.001228555804118514
60.0,0.001110367476940155
64.0,0.0007837737794034183
72.0,0.0005285990773700178
80.0,-6.5650233409542125e-06
88.0,-0.0001797285513021052
96.0,-0.0003743217675946653
104.0,-0.0006069652154110372
112.0,-0.00033332756720483303
120.0,-0.0003552535781636834
128.0,-0.0005078105023130774
144.0,9.53701528487727e-05
160.0,0.0002580000145826489
176.0,-7.655406989215408e-06
192.0,-0.00039687519893050194
208.0,-0.0004961340455338359
224.0,0.000282424152828753
240.0,0.00020589563064277172
256.0,-2.468003185640555e-05
288.0,0.00035380039480514824
320.0,0.00026080734096467495
352.0,-0.0005350976134650409
384.0,-0.00042713232687674463
416.0,-0.00046106515219435096
448.0,-0.00023066707944963127
480.0,-0.0008211453096009791
512.0,0.0003352101775817573
576.0,0.0003919729497283697
640.0,-0.0001265217288164422
704.0,0.000287349772406742
768.0,0.00030051160138100386
832.0,0.00012626538227777928
896.0,-0.00017277424922212958
960.0,-0.00017396682233083993
1024.0,0.00024437278625555336
1152.0,-0.0003390486817806959
1280.0,0.00018256892508361489
1408.0,-0.00042544674943201244
1536.0,9.086436330107972e-05
1664.0,-0.0002343408268643543
1792.0,-0.0005478070233948529
1920.0,-1.4636553714808542e-05
2048.0,-2.5726074454723857e-05
2304.0,8.961658750195056e-05
2560.0,-5.608514402410947e-05
2816.0,0.0001755978009896353
3072.0,5.2403422159841284e-05
3328.0,-0.00016607943689450622
3584.0,0.0003934136766474694
3840.0,8.253492705989629e-05
4096.0,-0.00013320663128979504
4608.0,-0.00012069291551597416
5120.0,-0.00023439423239324242
5632.0,-0.0002044347202172503
6144.0,0.00016470144328195602
6656.0,0.00015393256035167724
7168.0,-6.42373925074935e-05
7680.0,-6.262351962504908e-05
8192.0,-0.00016254464571829885
9216.0,0.00015623256331309676
10240.0,-5.1506885938579217e-05
11264.0,1.3800914530293085e-05
12288.0,-1.4537368770106696e-05
13312.0,9.304936247644946e-05
14336.0,-8.889594028005376e-05
end
