version,3.0
numOfCh,1
type,point
parent_name,1000-cuts
ch_type,1_1
kcount,1
numberNandB,1
brightnessNandB,1
carpet pos,0
pc,0
Time (ms),CH1 Auto-Correlation
1.0,0.01628044806420803
2.0,0.012694497592747211
3.0,0.010151118971407413
4.0,0.008351963013410568
5.0,0.006927803624421358
6.0,0.005874758120626211
7.0,0.005145783070474863
8.0,0.004668483976274729
9.0,0.004255695268511772
10.0,0.0039190989919006824
11.0,0.003462107153609395
12.0,0.003063480369746685
13.0,0.002884133718907833
14.0,0.0027199394535273314
15.0,0.0024513963144272566
16.0,0.002212190069258213
18.0,0.0016210832400247455
20.0,0.001277075964026153
22.0,0.0012090789387002587
24.0,0.0012235306203365326
26.0,0.0011965251760557294
28.0,0.001309532904997468
30.0,0.0011540055274963379
32.0,0.0009891445515677333
36.0,0.0005404510884545743
40.0,0.000536085048224777
44.0,0.0004880193737335503
48.0,0.0002889286552090198
52.0,0.00030809984309598804
56.0,0.0001036510439007543
60.0,0.0003294057969469577
64.0,0.00034860355663113296
72.0,0.0005359922652132809
80.0,0.0005460508982650936
88.0,0.00023821150534786284
96.0,4.568295844364911e-05
104.0,0.00028882193146273494
112.0,0.0003711576573550701
120.0,0.00010949651914415881
128.0,-0.0001249218767043203
144.0,-3.810135603998788e-05
160.0,-0.00020261450845282525
176.0,-0.00025741333956830204
192.0,-0.00021082341845612973
208.0,-0.00014244609337765723
224.0,0.00018805990112014115
240.0,0.0007318601128645241
256.0,0.0006434479728341103
288.0,0.00024194784054998308
320.0,0.00025302544236183167
352.0,0.0004516724729910493
384.0,0.00021045253379270434
416.0,8.49103817017749e-05
448.0,0.00019547491683624685
480.0,1.0836941328307148e-05
512.0,5.251577022136189e-05
576.0,0.00032863786327652633
640.0,0.00034175909240730107
704.0,-9.481162123847753e-06
768.0,-0.00017605777247808874
832.0,-0.00013021810445934534
896.0,0.0004836951557081193
960.0,0.000291107629891485
1024.0,2.983999002026394e-05
1152.0,9.175184095511213e-05
1280.0,-0.00022014390560798347
1408.0,0.0002780394279398024
1536.0,-0.0002409560838714242
1664.0,-0.00018059961439576
1792.0,-0.00015192650607787073
1920.0,-0.00017241151363123208
2048.0,0.0003667106793727726
2304.0,0.00011354460002621636
2560.0,-0.00014513074711430818
2816.0,-6.470928383350838e-06
3072.0,-2.0617631889763288e-05
3328.0,-2.7087226044386625e-05
3584.0,-6.183271761983633e-05
3840.0,-7.110825390554965e-05
4096.0,3.110934267169796e-05
4608.0,0.00019722621073015034
5120.0,7.37696755095385e-05
5632.0,7.04789490555413e-05
6144.0,-0.00023189335479401052
6656.0,-0.00011936084774788469
7168.0,-0.00027353098266758025
7680.0,3.4699583920883015e-05
8192.0,-9.241754014510661e-05
9216.0,-2.1825542717124335e-05
10240.0,2.1367073713918217e-05
11264.0,-0.00019099650671705604
12288.0,-0.00014546602324116975
13312.0,-0.00013595959171652794
14336.0,-4.081196675542742e-05
end
