version,3.0
numOfCh,1
type,point
parent_name,1000-cuts
ch_type,1_1
kcount,1
numberNandB,1
brightnessNandB,1
carpet pos,0
pc,0
Time (ms),CH1 Auto-Correlation
1.0,0.01385370921343565
2.0,0.010496891103684902
3.0,0.00827081874012947
4.0,0.006659724749624729
5.0,0.005611082538962364
6.0,0.004791028331965208
7.0,0.004007082432508469
8.0,0.003461032174527645
9.0,0.0030507908668369055
10.0,0.002695246133953333
11.0,0.002404765458777547
12.0,0.0021114260889589787
13.0,0.0018533910624682903
14.0,0.0016630481695756316
15.0,0.00152016116771847
16.0,0.0013658384559676051
18.0,0.00123238330706954
20.0,0.0010917424224317074
22.0,0.001040714094415307
24.0,0.0008657375001348555
26.0,0.0006905233021825552
28.0,0.00040244951378554106
30.0,0.0003130921977572143
32.0,0.00038956032949499786
36.0,0.00038639522972516716
40.0,0.0003044138429686427
44.0,0.00046887958887964487
48.0,0.0006347422022372484
52.0,0.0005995475221425295
56.0,0.0004796345892827958
60.0,0.0005363828968256712
64.0,0.0005257622106000781
72.0,0.000544728827662766
80.0,0.0005801949300803244
88.0,0.0005835197516717017
96.0,0.00019225943833589554
104.0,-8.59228748595342e-05
112.0,-0.00018031532817985862
120.0,-0.00017814947932492942
128.0,0.0001393267884850502
144.0,0.0002917004458140582
160.0,0.00018405479204375297
176.0,-1.0828600352397189e-05
192.0,-7.369304512394592e-05
208.0,1.4062919035495725e-05
224.0,-0.00010333132377127185
240.0,-0.0003205079410690814
256.0,-0.00011330617417115718
288.0,-8.95480188773945e-05
320.0,-0.0003176530299242586
352.0,-5.3459956689039245e-05
384.0,3.934892447432503e-06
416.0,-6.356170342769474e-05
448.0,-7.909412670414895e-05
480.0,0.00014538300456479192
512.0,0.0002872599579859525
576.0,0.00010006465890910476
640.0,0.0003999311593361199
704.0,2.7990285161649808e-05
768.0,-9.848734771367162e-05
832.0,-7.910171552794054e-05
896.0,-8.733454160392284e-05
960.0,-0.00029156330856494606
1024.0,-1.6629974197712727e-05
1152.0,3.470703086350113e-05
1280.0,9.296392818214372e-05
1408.0,9.796723361432669e-07
1536.0,-0.00020134671649429947
1664.0,0.00014156232646200806
1792.0,-1.2098457773390692e-05
1920.0,0.00013484277587849647
2048.0,9.59749668254517e-05
2304.0,2.259675966342911e-06
2560.0,4.547764910967089e-05
2816.0,-0.00014069188910070807
3072.0,-9.083885379368439e-05
3328.0,-0.00016740492719691247
3584.0,-0.00011472912592580542
3840.0,-7.38998205633834e-05
4096.0,-1.103460272133816e-05
4608.0,-7.329979416681454e-05
5120.0,-0.00011932107008760795
5632.0,-3.74719274987001e-05
6144.0,-0.00013757868146058172
6656.0,0.0001745373010635376
7168.0,-7.601193647133186e-05
7680.0,-4.822420669370331e-05
8192.0,0.00032854045275598764
9216.0,4.18517884099856e-05
10240.0,-7.059794006636366e-05
11264.0,-3.613354419940151e-05
12288.0,-6.969663081690669e-05
13312.0,0.00015482050366699696
14336.0,-0.0003047078207600862
end
