version,3.0
numOfCh,1
type,point
parent_name,1000-cuts
ch_type,1_1
kcount,1
numberNandB,1
brightnessNandB,1
carpet pos,0
pc,0
Time (ms),CH1 Auto-Correlation
1.0,0.016100119799375534
2.0,0.012311196886003017
3.0,0.009754552505910397
4.0,0.00793059915304184
5.0,0.006502382457256317
6.0,0.005476678721606731
7.0,0.004712019581347704
8.0,0.004054532386362553
9.0,0.0034974003210663795
10.0,0.0030310568399727345
11.0,0.002660134807229042
12.0,0.0023168111220002174
13.0,0.0021845533046871424
14.0,0.0021986914798617363
15.0,0.001957803266122937
16.0,0.0017965075094252825
18.0,0.0015617850003764033
20.0,0.0011457509826868773
22.0,0.0010525290854275227
24.0,0.0007894803420640528
26.0,0.0005662908661179245
28.0,0.0006889053038321435
30.0,0.0006555086001753807
32.0,0.0005653121625073254
36.0,0.0004317420534789562
40.0,0.000193495157873258
44.0,0.0002037505037151277
48.0,0.00021150977408979088
52.0,9.740483801579103e-05
56.0,0.00013493926962837577
60.0,-0.00010386740905232728
64.0,-8.571815851610154e-05
72.0,-7.192916382336989e-05
80.0,-0.00012546859215945005
88.0,-0.00041768603841774166
96.0,-0.0002740284544415772
104.0,0.0002237621374661103
112.0,-6.721260433550924e-05
120.0,-0.0002510400372557342
128.0,-0.00046097004087641835
144.0,-0.0002337214828003198
160.0,-9.155731822829694e-05
176.0,0.00012002459698123857
192.0,1.565424827276729e-05
208.0,4.022548455395736e-05
224.0,-0.0003496735298540443
240.0,-0.0005450593889690936
256.0,-0.00029493271722458303
288.0,0.00017849101277533919
320.0,9.070015948964283e-05
352.0,1.2913191085317521e-06
384.0,0.0005538865807466209
416.0,-0.00025369084323756397
448.0,-2.4870732886483893e-05
480.0,-0.00017507288430351764
512.0,-2.1626172383548692e-05
576.0,-1.0114828796758957e-07
640.0,-0.00010584028495941311
704.0,-8.678071753820404e-05
768.0,-1.344768770650262e-05
832.0,-7.000086043262854e-05
896.0,4.063614323968068e-05
960.0,-3.178227871103445e-06
1024.0,0.00021364643180277199
1152.0,2.0872432287433185e-05
1280.0,-4.530009391601197e-06
1408.0,0.00019387331849429756
1536.0,0.00022490987612400204
1664.0,0.00012309719750192016
1792.0,0.0002943346626125276
1920.0,9.937283175531775e-05
2048.0,-0.0004279072745703161
2304.0,-0.00010964165267068893
2560.0,-8.520678420609329e-06
2816.0,0.0001342597824987024
3072.0,2.609829607536085e-05
3328.0,7.69405160099268e-05
3584.0,-0.00014203453611116856
3840.0,-0.00020957528613507748
4096.0,1.7942556951311417e-05
4608.0,-7.637794624315575e-05
5120.0,-5.82929169468116e-05
5632.0,7.485722017008811e-05
6144.0,-7.967310375533998e-05
6656.0,2.1848412870895118e-05
7168.0,7.167451258283108e-05
7680.0,-0.00010110094444826245
8192.0,5.855016570421867e-05
9216.0,-7.4820127338171005e-06
10240.0,-5.056757072452456e-05
11264.0,-9.731953468872234e-05
12288.0,-8.811429870547727e-05
13312.0,-6.471081724157557e-05
14336.0,-7.471028948202729e-05
end
