version,3.0
numOfCh,1
type,point
parent_name,1000-cuts
ch_type,1_1
kcount,1
numberNandB,1
brightnessNandB,1
carpet pos,0
pc,0
Time (ms),CH1 Auto-Correlation
1.0,0.01442260667681694
2.0,0.011051477864384651
3.0,0.008576870895922184
4.0,0.0069457427598536015
5.0,0.00565753411501646
6.0,0.004773134831339121
7.0,0.004013139754533768
8.0,0.0034175135660916567
9.0,0.0028374961111694574
10.0,0.0023317027371376753
11.0,0.00199843174777925
12.0,0.001810536254197359
13.0,0.0015365754952654243
14.0,0.0012706068810075521
15.0,0.001043334836140275
16.0,0.0008118828409351408
18.0,0.0003851313958875835
20.0,6.083360858610831e-05
22.0,4.70464801765047e-05
24.0,0.00010316604311810806
26.0,0.00013571498857345432
28.0,0.00020519141980912536
30.0,0.00020990805933251977
32.0,0.00031213421607390046
36.0,0.0004465110250748694
40.0,0.00038589650648646057
44.0,-2.2640258976025507e-05
48.0,-0.0003287358849775046
52.0,2.1039062630734406e-05
56.0,0.00028028804808855057
60.0,0.00039282304351218045
64.0,0.00048048869939520955
72.0,4.280408757040277e-05
80.0,-0.000422067241743207
88.0,-0.00018118777370546013
96.0,-0.0001557754003442824
104.0,-0.0005116187385283411
112.0,-0.00032323485356755555
120.0,0.0003153995203319937
128.0,0.00029919229564256966
144.0,-0.00036392195033840835
160.0,-0.0002331889554625377
176.0,0.00014158101112116128
192.0,6.872028734505875e-06
208.0,0.0002569328062236309
224.0,-3.834124800050631e-05
240.0,-0.00021787114383187145
256.0,-0.00023605927708558738
288.0,0.00013218744425103068
320.0,-6.918621511431411e-05
352.0,0.00023362305364571512
384.0,3.7761246858281083e-06
416.0,-0.00026475352933630347
448.0,-4.445080412551761e-05
480.0,-0.00013316178228706121
512.0,-0.00013041944475844502
576.0,-0.0002489979669917375
640.0,5.7378292694920674e-05
704.0,0.00035636380198411644
768.0,4.6934244892327115e-05
832.0,-0.00026800675550475717
896.0,-8.242598414653912e-05
960.0,-0.000283297267742455
1024.0,-2.8666861908277497e-05
1152.0,-0.00010372849646955729
1280.0,-5.7542558351997286e-05
1408.0,2.5023424313985743e-05
1536.0,7.558793004136533e-05
1664.0,-0.00023154029622673988
1792.0,-9.72600028035231e-05
1920.0,2.717803727136925e-05
2048.0,-1.5089658518263604e-05
2304.0,-1.7538985048304312e-05
2560.0,1.185003657155903e-05
2816.0,-1.765962406352628e-05
3072.0,1.5531300959992222e-05
3328.0,0.0001406766241416335
3584.0,3.281664248788729e-05
3840.0,-0.00018650846322998405
4096.0,1.4203183127392549e-05
4608.0,7.882408681325614e-05
5120.0,5.5649234127486125e-05
5632.0,-6.130100246082293e-06
6144.0,-7.688549521844834e-05
6656.0,-2.2549118511960842e-05
7168.0,-2.710111039050389e-05
7680.0,4.5558343117590994e-05
8192.0,1.6912876162678003e-05
9216.0,3.338408350828104e-05
10240.0,-2.1060155631857924e-05
11264.0,-5.2813629736192524e-05
12288.0,7.555048796348274e-05
13312.0,-7.894181180745363e-06
14336.0,-5.389528087107465e-05
end
