version,3.0
numOfCh,1
type,point
parent_name,1000-cuts
ch_type,1_1
kcount,1
numberNandB,1
brightnessNandB,1
carpet pos,0
pc,0
Time (ms),CH1 Auto-Correlation
1.0,0.015777654945850372
2.0,0.012129071168601513
3.0,0.009630684740841389
4.0,0.007809377741068602
5.0,0.006508272606879473
6.0,0.0054716612212359905
7.0,0.0046838317066431046
8.0,0.004016696009784937
9.0,0.0035163634456694126
10.0,0.0029554676730185747
11.0,0.002595257479697466
12.0,0.0022986112162470818
13.0,0.00201060576364398
14.0,0.0018180105835199356
15.0,0.0016352541279047728
16.0,0.0014567921170964837
18.0,0.00130768574308604
20.0,0.0010534010361880064
22.0,0.0007360817980952561
24.0,0.0004603041452355683
26.0,0.0002956874086521566
28.0,0.0003646955010481179
30.0,0.0006050298688933253
32.0,0.0007018099422566593
36.0,0.0004079403297509998
40.0,0.00010735570685938001
44.0,-0.00011250064562773332
48.0,-0.00018822585116140544
52.0,-5.585033795796335e-05
56.0,0.0002861853572539985
60.0,0.0002926430606748909
64.0,0.00010407491208752617
72.0,-1.728565985104069e-05
80.0,-0.00024132986436598003
88.0,-9.129974205279723e-05
96.0,-0.00013841055624652654
104.0,-4.251232894603163e-05
112.0,3.82150983568863e-06
120.0,0.00024094077525660396
128.0,0.000545698159839958
144.0,0.0007193627534434199
160.0,0.0008327943505719304
176.0,0.0005132290534675121
192.0,0.0003837808035314083
208.0,0.00048620556481182575
224.0,0.00031594958272762597
240.0,6.077974467189051e-05
256.0,0.0002180962765123695
288.0,0.0003646882250905037
320.0,0.00010307652701158077
352.0,8.696319855516776e-05
384.0,9.338510426459834e-05
416.0,-0.00013526093971449882
448.0,0.00038817417225800455
480.0,-8.587425691075623e-05
512.0,0.00012308858276810497
576.0,-5.197197970119305e-05
640.0,-0.00012667237024288625
704.0,-5.734162186854519e-05
768.0,-0.00012738250370603055
832.0,-0.0001136860519181937
896.0,-0.00022296600218396634
960.0,0.00015432237705681473
1024.0,-0.0002814941690303385
1152.0,-0.00011492744670249522
1280.0,-0.00014952917990740389
1408.0,-8.158951095538214e-05
1536.0,-0.00017716351430863142
1664.0,-7.979765359777957e-05
1792.0,-8.728491957299411e-05
1920.0,-5.944585791439749e-05
2048.0,-0.0001664432347752154
2304.0,8.599606371717528e-05
2560.0,0.00024597987066954374
2816.0,3.425238901400007e-05
3072.0,5.045321449870244e-05
3328.0,-5.102183058625087e-05
3584.0,-0.000237602973356843
3840.0,-0.00020006060367450118
4096.0,-0.00019709160551428795
4608.0,-6.709799345117062e-05
5120.0,4.591508331941441e-05
5632.0,0.00012104186316719279
6144.0,-0.0002676472649909556
6656.0,4.6287117584142834e-05
7168.0,0.0001377142034471035
7680.0,0.00014704019122291356
8192.0,-1.3983624739921652e-05
9216.0,-9.338126983493567e-05
10240.0,0.0002645876375027001
11264.0,-0.00029906650888733566
12288.0,0.0001542749669170007
13312.0,0.0001617755915503949
14336.0,-0.0003571372653823346
end
