version,3.0
numOfCh,1
type,point
parent_name,0cd20_0dot069-1dot0
ch_type,1_1
kcount,1
numberNandB,1
brightnessNandB,1
carpet pos,0
pc,0
Time (ms),CH1 Auto-Correlation
1.0,0.08496347814798355
2.0,0.0840226411819458
3.0,0.08320779353380203
4.0,0.08246348053216934
5.0,0.08177348971366882
6.0,0.08118164539337158
7.0,0.08055874705314636
8.0,0.0799601599574089
9.0,0.07941395044326782
10.0,0.07886174321174622
11.0,0.07829553633928299
12.0,0.07776954770088196
13.0,0.07724343985319138
14.0,0.07669879496097565
15.0,0.07618661224842072
16.0,0.07567114382982254
18.0,0.07476596534252167
20.0,0.07393532991409302
22.0,0.07314086705446243
24.0,0.07235216349363327
26.0,0.07158485054969788
28.0,0.07086359709501266
30.0,0.07009676843881607
32.0,0.06934864073991776
36.0,0.06786004453897476
40.0,0.06641020625829697
44.0,0.06512961536645889
48.0,0.063896045088768
52.0,0.06274203211069107
56.0,0.06165340915322304
60.0,0.060490600764751434
64.0,0.05937323719263077
72.0,0.05743139609694481
80.0,0.05564294755458832
88.0,0.054006800055503845
96.0,0.05242449417710304
104.0,0.050878312438726425
112.0,0.04919898509979248
120.0,0.04748298227787018
128.0,0.046006008982658386
144.0,0.043395183980464935
160.0,0.041001904755830765
176.0,0.03881527855992317
192.0,0.03687943145632744
208.0,0.03451185300946236
224.0,0.032106880098581314
240.0,0.029935862869024277
256.0,0.0281619131565094
288.0,0.02455337718129158
320.0,0.021607423201203346
352.0,0.01884441263973713
384.0,0.01759500987827778
416.0,0.01619809679687023
448.0,0.014943862333893776
480.0,0.013467075303196907
512.0,0.012712037190794945
576.0,0.010374488309025764
640.0,0.007536663208156824
704.0,0.005217899102717638
768.0,0.003280938370153308
832.0,0.002644734922796488
896.0,0.00086543447105214
960.0,-0.0033020400442183018
1024.0,-0.008555620908737183
1152.0,-0.013639172539114952
1280.0,-0.011478428728878498
1408.0,-0.0026275503914803267
1536.0,-0.002837252337485552
1664.0,-0.004027967806905508
1792.0,-0.009767062962055206
1920.0,-0.007861272431910038
2048.0,-0.010516546666622162
2304.0,-0.01411193236708641
2560.0,-0.025689683854579926
2816.0,-0.025356177240610123
3072.0,-0.016583502292633057
3328.0,-0.011349898763000965
3584.0,0.0015573687851428986
3840.0,0.014754272997379303
4096.0,0.01992291584610939
4608.0,0.005352451931685209
5120.0,-0.0029542685952037573
5632.0,0.011176836676895618
6144.0,-0.0017889343434944749
6656.0,-0.02430754527449608
7168.0,-0.01880885288119316
7680.0,0.0007204816793091595
8192.0,0.012182431295514107
end
