version,3.0
numOfCh,1
type,point
parent_name,0cd20_0dot069-1dot0
ch_type,1_1
kcount,1
numberNandB,1
brightnessNandB,1
carpet pos,0
pc,0
Time (ms),CH1 Auto-Correlation
1.0,0.06199433282017708
2.0,0.06141785904765129
3.0,0.06089610233902931
4.0,0.06039171293377876
5.0,0.05990161746740341
6.0,0.05941725894808769
7.0,0.05895249545574188
8.0,0.05847632512450218
9.0,0.058023951947689056
10.0,0.05758509412407875
11.0,0.057152558118104935
12.0,0.05671443045139313
13.0,0.056282803416252136
14.0,0.055868182331323624
15.0,0.05544373393058777
16.0,0.055023640394210815
18.0,0.05418557673692703
20.0,0.05336172506213188
22.0,0.052564457058906555
24.0,0.05178331211209297
26.0,0.051021646708250046
28.0,0.05032385140657425
30.0,0.04966934770345688
32.0,0.04899275675415993
36.0,0.047728054225444794
40.0,0.046493928879499435
44.0,0.04527711495757103
48.0,0.04407705366611481
52.0,0.04292222112417221
56.0,0.04180711880326271
60.0,0.04068493843078613
64.0,0.039518628269433975
72.0,0.03716612234711647
80.0,0.034983277320861816
88.0,0.032906174659729004
96.0,0.030895335599780083
104.0,0.029123513028025627
112.0,0.027314333245158195
120.0,0.02555144391953945
128.0,0.023710567504167557
144.0,0.02011200413107872
160.0,0.016739562153816223
176.0,0.013573720119893551
192.0,0.010782857425510883
208.0,0.007799582555890083
224.0,0.004879286512732506
240.0,0.0022304437588900328
256.0,-0.00010195762297371402
288.0,-0.0028363047167658806
320.0,-0.0040251994505524635
352.0,-0.004089496564120054
384.0,-0.003796410048380494
416.0,-0.0019705472514033318
448.0,0.000662336649838835
480.0,0.0040361895225942135
512.0,0.00653052469715476
576.0,0.006211251951754093
640.0,0.004579013679176569
704.0,0.0009311979520134628
768.0,-0.0019781829323619604
832.0,-0.002269128570333123
896.0,-0.0010954895988106728
960.0,0.0011325189843773842
1024.0,0.003115392057225108
1152.0,0.001605505240149796
1280.0,-0.004346228204667568
1408.0,-0.007480129133909941
1536.0,-0.004487725906074047
1664.0,-0.0035003763623535633
1792.0,-0.008913818746805191
1920.0,-0.008652877993881702
2048.0,0.0015463106101378798
2304.0,-0.0017324715154245496
2560.0,-0.00028566326363943517
2816.0,0.002463211538270116
3072.0,0.0017586239846423268
3328.0,0.007418343797326088
3584.0,0.004040473606437445
3840.0,0.004766011610627174
4096.0,-0.002322863321751356
4608.0,-0.0046418774873018265
5120.0,-0.009723654016852379
5632.0,-0.004197427071630955
6144.0,0.006661156192421913
6656.0,0.002761485055088997
7168.0,0.0008231404353864491
7680.0,-0.004634660668671131
8192.0,-0.005692574195563793
end
