version,3.0
numOfCh,1
type,point
parent_name,0cd20_0dot069-1dot0
ch_type,1_1
kcount,1
numberNandB,1
brightnessNandB,1
carpet pos,0
pc,0
Time (ms),CH1 Auto-Correlation
1.0,0.07425094395875931
2.0,0.07343564182519913
3.0,0.0727279856801033
4.0,0.07211370021104813
5.0,0.07152126729488373
6.0,0.07087394595146179
7.0,0.07027438282966614
8.0,0.0696411207318306
9.0,0.06904226541519165
10.0,0.06846324354410172
11.0,0.0678858682513237
12.0,0.06728339195251465
13.0,0.06675413995981216
14.0,0.06621796637773514
15.0,0.06569663435220718
16.0,0.06514821201562881
18.0,0.06417160481214523
20.0,0.06313041597604752
22.0,0.0622229278087616
24.0,0.06135738641023636
26.0,0.060498882085084915
28.0,0.059633027762174606
30.0,0.058868564665317535
32.0,0.05809302255511284
36.0,0.05663983151316643
40.0,0.05528133362531662
44.0,0.05398871377110481
48.0,0.05275562405586243
52.0,0.05150973051786423
56.0,0.050310198217630386
60.0,0.04911690577864647
64.0,0.04799704626202583
72.0,0.045701682567596436
80.0,0.04343262314796448
88.0,0.041413307189941406
96.0,0.039808277040719986
104.0,0.03841031342744827
112.0,0.0369562953710556
120.0,0.035410597920417786
128.0,0.0338241383433342
144.0,0.03101389668881893
160.0,0.02863672561943531
176.0,0.02647922933101654
192.0,0.02500651404261589
208.0,0.02366216666996479
224.0,0.022174978628754616
240.0,0.021326877176761627
256.0,0.020539771765470505
288.0,0.019703717902302742
320.0,0.019764898344874382
352.0,0.019419005140662193
384.0,0.018962420523166656
416.0,0.01773121953010559
448.0,0.016354259103536606
480.0,0.015445247292518616
512.0,0.014287523925304413
576.0,0.011287104338407516
640.0,0.006518835201859474
704.0,0.004931138828396797
768.0,0.004848248325288296
832.0,0.006671967916190624
896.0,0.006901365704834461
960.0,0.001879352144896984
1024.0,-0.002070898190140724
1152.0,-0.002658083336427808
1280.0,-0.005143789108842611
1408.0,-0.010494974441826344
1536.0,-0.009741299785673618
1664.0,-0.011564086191356182
1792.0,-0.015229514800012112
1920.0,-0.01800140179693699
2048.0,-0.01120400708168745
2304.0,-0.007765181828290224
2560.0,-0.0073243132792413235
2816.0,-0.003513772739097476
3072.0,-0.006011153105646372
3328.0,-0.002176682697609067
3584.0,-0.005886344239115715
3840.0,-0.0068635051138699055
4096.0,-0.007866011932492256
4608.0,0.0005999297136440873
5120.0,0.004378124140202999
5632.0,0.0036411364562809467
6144.0,0.00010322708840249106
6656.0,0.0097995949909091
7168.0,0.010130718350410461
7680.0,0.013705382123589516
8192.0,-0.0008282483322545886
end
