version,3.0
numOfCh,1
type,point
parent_name,0cd20_0dot069-1dot0
ch_type,1_1
kcount,1
numberNandB,1
brightnessNandB,1
carpet pos,0
pc,0
Time (ms),CH1 Auto-Correlation
1.0,0.07932867854833603
2.0,0.07839155197143555
3.0,0.07748671621084213
4.0,0.07661132514476776
5.0,0.0757443830370903
6.0,0.07492297142744064
7.0,0.07407686859369278
8.0,0.07327915728092194
9.0,0.07251868396997452
10.0,0.0717894583940506
11.0,0.07106150686740875
12.0,0.07037720084190369
13.0,0.06966979801654816
14.0,0.06893910467624664
15.0,0.06819939613342285
16.0,0.06745220720767975
18.0,0.06597408652305603
20.0,0.06448439508676529
22.0,0.06303209811449051
24.0,0.06158394739031792
26.0,0.06019408628344536
28.0,0.05882508307695389
30.0,0.057527896016836166
32.0,0.05627594515681267
36.0,0.05373170226812363
40.0,0.05142683908343315
44.0,0.04926555976271629
48.0,0.04723884165287018
52.0,0.045474518090486526
56.0,0.04391328990459442
60.0,0.042548857629299164
64.0,0.041036609560251236
72.0,0.03839164599776268
80.0,0.03589323163032532
88.0,0.03349871188402176
96.0,0.031463976949453354
104.0,0.0294856745749712
112.0,0.027685310691595078
120.0,0.026149768382310867
128.0,0.024236125871539116
144.0,0.020791584625840187
160.0,0.018642572686076164
176.0,0.016624897718429565
192.0,0.014089751988649368
208.0,0.011337414383888245
224.0,0.008838538080453873
240.0,0.006359442602843046
256.0,0.0036788182333111763
288.0,-0.0014231394743546844
320.0,-0.005287989042699337
352.0,-0.007155788131058216
384.0,-0.006776920519769192
416.0,-0.0048743318766355515
448.0,-0.0032980716787278652
480.0,-0.0016965018585324287
512.0,-0.0017454170156270266
576.0,-0.0032341061159968376
640.0,-0.0024095417466014624
704.0,0.0014182868180796504
768.0,0.0021792345214635134
832.0,0.002122222213074565
896.0,0.005262985359877348
960.0,0.004247054923325777
1024.0,0.0032716887071728706
1152.0,-0.0021648176480084658
1280.0,0.0009769366588443518
1408.0,-0.0005944669828750193
1536.0,-0.009365811944007874
1664.0,-0.009545913897454739
1792.0,-0.008075948804616928
1920.0,-0.0077585321851074696
2048.0,-0.005542182829231024
2304.0,-0.00013856154691893607
2560.0,-0.0004994046175852418
2816.0,-0.0053369696252048016
3072.0,0.0020167450420558453
3328.0,0.002751261228695512
3584.0,0.0024849502369761467
3840.0,0.010285596363246441
4096.0,0.0026434685569256544
4608.0,0.0003977787564508617
5120.0,-0.002774240914732218
5632.0,-0.009599516168236732
6144.0,-0.008288796991109848
6656.0,0.0028855660930275917
7168.0,0.0007358525763265789
7680.0,0.005241973791271448
8192.0,0.0003026213962584734
end
