version,3.0
numOfCh,1
type,point
parent_name,0cd20_0dot069-1dot0
ch_type,1_1
kcount,1
numberNandB,1
brightnessNandB,1
carpet pos,0
pc,0
Time (ms),CH1 Auto-Correlation
1.0,0.06412573158740997
2.0,0.06347663700580597
3.0,0.06288471817970276
4.0,0.062332361936569214
5.0,0.06179952621459961
6.0,0.06128028780221939
7.0,0.0607571117579937
8.0,0.06022908538579941
9.0,0.05971786752343178
10.0,0.059241004288196564
11.0,0.058792002499103546
12.0,0.05834077671170235
13.0,0.057908158749341965
14.0,0.057482022792100906
15.0,0.057070713490247726
16.0,0.056654658168554306
18.0,0.05589145049452782
20.0,0.05516202747821808
22.0,0.05446365103125572
24.0,0.05381518229842186
26.0,0.05324042961001396
28.0,0.05268844962120056
30.0,0.05211445689201355
32.0,0.05156173184514046
36.0,0.050410475581884384
40.0,0.04926092177629471
44.0,0.04813692718744278
48.0,0.04699942469596863
52.0,0.04591516777873039
56.0,0.04488324001431465
60.0,0.04381468892097473
64.0,0.04273059591650963
72.0,0.04060794413089752
80.0,0.03838007152080536
88.0,0.036131542176008224
96.0,0.03417063131928444
104.0,0.03256693854928017
112.0,0.031063081696629524
120.0,0.02969955839216709
128.0,0.028459012508392334
144.0,0.026469221338629723
160.0,0.02447661943733692
176.0,0.022662153467535973
192.0,0.02116972766816616
208.0,0.01944095268845558
224.0,0.017949111759662628
240.0,0.016616210341453552
256.0,0.015508107841014862
288.0,0.01380848791450262
320.0,0.012742005288600922
352.0,0.011822356842458248
384.0,0.01141609251499176
416.0,0.010958611965179443
448.0,0.011020166799426079
480.0,0.010739602148532867
512.0,0.010857904329895973
576.0,0.013572311960160732
640.0,0.015873443335294724
704.0,0.016434015706181526
768.0,0.013340192846953869
832.0,0.009162377566099167
896.0,0.00408062944188714
960.0,0.0007484593079425395
1024.0,0.002019997453317046
1152.0,0.002103879814967513
1280.0,0.0043882038444280624
1408.0,0.007421847432851791
1536.0,0.007101480383425951
1664.0,-0.001602326286956668
1792.0,-0.0077119548805058
1920.0,-0.010037554427981377
2048.0,-0.003333305474370718
2304.0,0.004553718958050013
2560.0,0.0010993803152814507
2816.0,0.003644537413492799
3072.0,-0.0016287328908219934
3328.0,-0.005844371393322945
3584.0,0.004255275242030621
3840.0,0.009237045422196388
4096.0,0.0004798138979822397
4608.0,-0.004674200434237719
5120.0,-0.005587355233728886
5632.0,-0.01302461139857769
6144.0,-0.009664696641266346
6656.0,-0.01571621373295784
7168.0,-0.019660931080579758
7680.0,-0.00816286075860262
8192.0,-0.011109238490462303
end
