version,3.0
numOfCh,1
type,point
parent_name,0cd20_0dot069-1dot0
ch_type,1_1
kcount,1
numberNandB,1
brightnessNandB,1
carpet pos,0
pc,0
Time (ms),CH1 Auto-Correlation
1.0,0.09597668796777725
2.0,0.09527446329593658
3.0,0.09467177093029022
4.0,0.09410034120082855
5.0,0.09352001547813416
6.0,0.0929735004901886
7.0,0.09243691712617874
8.0,0.09190617501735687
9.0,0.09134843200445175
10.0,0.09080490469932556
11.0,0.09029583632946014
12.0,0.08980529755353928
13.0,0.08930124342441559
14.0,0.08883335441350937
15.0,0.08834554255008698
16.0,0.08784808963537216
18.0,0.08690952509641647
20.0,0.08598888665437698
22.0,0.08507195115089417
24.0,0.08419948071241379
26.0,0.083321213722229
28.0,0.0824606865644455
30.0,0.0816211923956871
32.0,0.08082635700702667
36.0,0.07927574217319489
40.0,0.07781561464071274
44.0,0.07636241614818573
48.0,0.07490131258964539
52.0,0.07346977293491364
56.0,0.07215800881385803
60.0,0.0709693506360054
64.0,0.06986010074615479
72.0,0.0675361379981041
80.0,0.06503438204526901
88.0,0.06242414191365242
96.0,0.059839677065610886
104.0,0.05767589434981346
112.0,0.05602230876684189
120.0,0.05461607873439789
128.0,0.053281862288713455
144.0,0.05058304965496063
160.0,0.04771016910672188
176.0,0.04459327086806297
192.0,0.04232369363307953
208.0,0.040509212762117386
224.0,0.038650862872600555
240.0,0.03650573268532753
256.0,0.034841373562812805
288.0,0.03403220698237419
320.0,0.033225592225790024
352.0,0.0321752168238163
384.0,0.03171095997095108
416.0,0.03170892596244812
448.0,0.030840236693620682
480.0,0.02726294845342636
512.0,0.021018151193857193
576.0,0.013934390619397163
640.0,0.010762694291770458
704.0,0.010008512064814568
768.0,0.009844080545008183
832.0,0.009201095439493656
896.0,0.009558320045471191
960.0,0.005490706767886877
1024.0,-0.00022919554612599313
1152.0,-0.002101812046021223
1280.0,0.0001792695402400568
1408.0,-0.0032245367765426636
1536.0,-0.006439660210162401
1664.0,-0.002784061711281538
1792.0,0.00408119847998023
1920.0,0.010576672852039337
2048.0,0.015508980490267277
2304.0,0.012337030842900276
2560.0,0.013313012197613716
2816.0,0.007268033921718597
3072.0,0.006661496590822935
3328.0,-0.0033725767862051725
3584.0,-0.013594544492661953
3840.0,-0.011497422121465206
4096.0,-0.0031842561438679695
4608.0,0.00965382531285286
5120.0,0.013496801257133484
5632.0,-0.02182193100452423
6144.0,-0.02600044198334217
6656.0,-0.03838200494647026
7168.0,-0.008851773105561733
7680.0,-0.003674952080473304
8192.0,-0.009714635089039803
end
