version,3.0
numOfCh,1
type,point
parent_name,0cd20_0dot069-1dot0
ch_type,1_1
kcount,1
numberNandB,1
brightnessNandB,1
carpet pos,0
pc,0
Time (ms),CH1 Auto-Correlation
1.0,0.06677274405956268
2.0,0.06617587804794312
3.0,0.06563173234462738
4.0,0.06510800868272781
5.0,0.06460703909397125
6.0,0.06413038820028305
7.0,0.06365817040205002
8.0,0.06322900205850601
9.0,0.06278836727142334
10.0,0.062371622771024704
11.0,0.06196095421910286
12.0,0.061553169041872025
13.0,0.061120230704545975
14.0,0.06067492440342903
15.0,0.06023520603775978
16.0,0.05982668325304985
18.0,0.05902126431465149
20.0,0.058238398283720016
22.0,0.05749685317277908
24.0,0.05676724389195442
26.0,0.05606134608387947
28.0,0.055339545011520386
30.0,0.054635871201753616
32.0,0.053969670087099075
36.0,0.052640464156866074
40.0,0.05140442028641701
44.0,0.05020328238606453
48.0,0.048906706273555756
52.0,0.047627925872802734
56.0,0.04640856385231018
60.0,0.045248523354530334
64.0,0.04408935829997063
72.0,0.041903186589479446
80.0,0.039875637739896774
88.0,0.038034915924072266
96.0,0.036375485360622406
104.0,0.034902289509773254
112.0,0.0334252305328846
120.0,0.032005198299884796
128.0,0.03067786619067192
144.0,0.028228232637047768
160.0,0.025671962648630142
176.0,0.02307341806590557
192.0,0.020640267059206963
208.0,0.01803303137421608
224.0,0.015636442229151726
240.0,0.013611684553325176
256.0,0.011737068183720112
288.0,0.008968262001872063
320.0,0.007763824425637722
352.0,0.006824408192187548
384.0,0.006089014001190662
416.0,0.00642582681030035
448.0,0.006441041361540556
480.0,0.0047867195680737495
512.0,0.001534723094664514
576.0,-0.0017084736609831452
640.0,-0.00319490022957325
704.0,-0.0030568265356123447
768.0,-0.0025352230295538902
832.0,-0.002698993543162942
896.0,-0.001835825853049755
960.0,-0.0032010443974286318
1024.0,-0.00459598284214735
1152.0,-0.0002592366945464164
1280.0,-0.0006457877461798489
1408.0,-0.004852058831602335
1536.0,-0.0037022659089416265
1664.0,-0.004030838143080473
1792.0,-0.0028023577760905027
1920.0,0.0010517570190131664
2048.0,0.00541839050129056
2304.0,0.0002742627984844148
2560.0,-0.00357751059345901
2816.0,-0.006145616061985493
3072.0,0.0029135276563465595
3328.0,0.00543829333037138
3584.0,-0.00117723667062819
3840.0,-0.0007460015476681292
4096.0,0.0063094343058764935
4608.0,0.007782768923789263
5120.0,-0.008365404792129993
5632.0,-0.011106446385383606
6144.0,-0.013681133277714252
6656.0,-0.0035507280845195055
7168.0,0.001373250619508326
7680.0,0.0022307592444121838
8192.0,-0.007538928184658289
end
