version,3.0
numOfCh,1
type,point
parent_name,0cd20_0dot069-1dot0
ch_type,1_1
kcount,1
numberNandB,1
brightnessNandB,1
carpet pos,0
pc,0
Time (ms),CH1 Auto-Correlation
1.0,0.10453245043754578
2.0,0.10374869406223297
3.0,0.1030435711145401
4.0,0.10242348909378052
5.0,0.10184777528047562
6.0,0.10126283019781113
7.0,0.10065475851297379
8.0,0.10011222213506699
9.0,0.09957929700613022
10.0,0.09909164905548096
11.0,0.09856615960597992
12.0,0.09814374893903732
13.0,0.09770277887582779
14.0,0.09729135781526566
15.0,0.09686581790447235
16.0,0.09643176943063736
18.0,0.09555595368146896
20.0,0.09476397931575775
22.0,0.09400992840528488
24.0,0.09323494881391525
26.0,0.09248148649930954
28.0,0.09167659282684326
30.0,0.09093628078699112
32.0,0.09029003977775574
36.0,0.08911017328500748
40.0,0.08803948760032654
44.0,0.08705207705497742
48.0,0.08594930917024612
52.0,0.08493765443563461
56.0,0.08397375792264938
60.0,0.08310141414403915
64.0,0.08231586217880249
72.0,0.08070947974920273
80.0,0.07904988527297974
88.0,0.07752321660518646
96.0,0.07608957588672638
104.0,0.07481206208467484
112.0,0.07350487262010574
120.0,0.07223663479089737
128.0,0.0709218755364418
144.0,0.06850860267877579
160.0,0.0659334659576416
176.0,0.06379874050617218
192.0,0.0615808442234993
208.0,0.05939365550875664
224.0,0.057619206607341766
240.0,0.05604489520192146
256.0,0.05445290729403496
288.0,0.05239662900567055
320.0,0.04969649389386177
352.0,0.04691668972373009
384.0,0.0459929034113884
416.0,0.04610150679945946
448.0,0.044357892125844955
480.0,0.0411485880613327
512.0,0.0376017689704895
576.0,0.034171149134635925
640.0,0.03233467414975166
704.0,0.02714986726641655
768.0,0.02154732681810856
832.0,0.019033920019865036
896.0,0.020438572391867638
960.0,0.0210366640239954
1024.0,0.02372772991657257
1152.0,0.023706888779997826
1280.0,0.02234116569161415
1408.0,0.018899939954280853
1536.0,0.01739819161593914
1664.0,0.01593862473964691
1792.0,0.010650909505784512
1920.0,0.009863154031336308
2048.0,0.006707928609102964
2304.0,0.003236888675019145
2560.0,0.001971352379769087
2816.0,0.001600007526576519
3072.0,-0.0010030919220298529
3328.0,-0.008644705638289452
3584.0,-0.011830287985503674
3840.0,-0.010797780938446522
4096.0,-0.008955874480307102
4608.0,-0.001899693044833839
5120.0,-0.0031360189896076918
5632.0,-0.009775558486580849
6144.0,-0.013134600594639778
6656.0,-0.01556859165430069
7168.0,-0.017977382987737656
7680.0,-0.03845560550689697
8192.0,-0.06942637264728546
end
