version,3.0
numOfCh,1
type,point
parent_name,0cd20_0dot069-1dot0
ch_type,1_1
kcount,1
numberNandB,1
brightnessNandB,1
carpet pos,0
pc,0
Time (ms),CH1 Auto-Correlation
1.0,0.11544950306415558
2.0,0.11445466428995132
3.0,0.11360567808151245
4.0,0.11276960372924805
5.0,0.11199118942022324
6.0,0.11126583814620972
7.0,0.11052536964416504
8.0,0.10975457727909088
9.0,0.10902822762727737
10.0,0.10830597579479218
11.0,0.10764021426439285
12.0,0.106984943151474
13.0,0.10629624873399734
14.0,0.10562998801469803
15.0,0.10494235903024673
16.0,0.10428600758314133
18.0,0.10288230329751968
20.0,0.10158170014619827
22.0,0.100275918841362
24.0,0.09900174289941788
26.0,0.09768950194120407
28.0,0.09640860557556152
30.0,0.0951346755027771
32.0,0.0937916487455368
36.0,0.09134645760059357
40.0,0.08912526071071625
44.0,0.08718162029981613
48.0,0.08545967191457748
52.0,0.08392543345689774
56.0,0.08248615264892578
60.0,0.08122608810663223
64.0,0.07994294166564941
72.0,0.0775185376405716
80.0,0.07544533908367157
88.0,0.07327773422002792
96.0,0.07114327698945999
104.0,0.0689391940832138
112.0,0.06659744679927826
120.0,0.06429560482501984
128.0,0.06223009154200554
144.0,0.059145376086235046
160.0,0.056831855326890945
176.0,0.054556168615818024
192.0,0.052635449916124344
208.0,0.05041413754224777
224.0,0.04774709418416023
240.0,0.045335739850997925
256.0,0.043793581426143646
288.0,0.04372173547744751
320.0,0.043677013367414474
352.0,0.04301048442721367
384.0,0.042523980140686035
416.0,0.03927832469344139
448.0,0.03635650500655174
480.0,0.03390251845121384
512.0,0.02987547405064106
576.0,0.023769913241267204
640.0,0.023143935948610306
704.0,0.026740290224552155
768.0,0.03085216134786606
832.0,0.03286270424723625
896.0,0.033771220594644547
960.0,0.03413023054599762
1024.0,0.038544271141290665
1152.0,0.03757151588797569
1280.0,0.029940733686089516
1408.0,0.015067503787577152
1536.0,0.007515559904277325
1664.0,0.008770461194217205
1792.0,0.007712299935519695
1920.0,0.006984338629990816
2048.0,0.014552823267877102
2304.0,0.01159723475575447
2560.0,0.0009420401765964925
2816.0,-0.012250134721398354
3072.0,-0.015560240484774113
3328.0,-0.015176702290773392
3584.0,-0.016675587743520737
3840.0,-0.022476499900221825
4096.0,-0.02464604191482067
4608.0,-0.027308376505970955
5120.0,-0.03094211034476757
5632.0,-0.02966802567243576
6144.0,-0.025541916489601135
6656.0,-0.02364162914454937
7168.0,-0.012202766723930836
7680.0,-0.0004652685602195561
8192.0,0.018025187775492668
end
