version,3.0
numOfCh,1
type,point
parent_name,0cd20_0dot069-1dot0
ch_type,1_1
kcount,1
numberNandB,1
brightnessNandB,1
carpet pos,0
pc,0
Time (ms),CH1 Auto-Correlation
1.0,0.06913182139396667
2.0,0.06845410913228989
3.0,0.06784568727016449
4.0,0.06724520027637482
5.0,0.06666841357946396
6.0,0.06616123020648956
7.0,0.06563597917556763
8.0,0.0651315301656723
9.0,0.06464394181966782
10.0,0.06416305154561996
11.0,0.0636957436800003
12.0,0.0632457435131073
13.0,0.06280019134283066
14.0,0.06234704330563545
15.0,0.06191102787852287
16.0,0.06145486608147621
18.0,0.060581985861063004
20.0,0.0596810057759285
22.0,0.05876625329256058
24.0,0.05790361016988754
26.0,0.05704614520072937
28.0,0.05618319287896156
30.0,0.05534286051988602
32.0,0.05455929785966873
36.0,0.052975889295339584
40.0,0.05149811506271362
44.0,0.05013647675514221
48.0,0.04884488880634308
52.0,0.047613196074962616
56.0,0.04636729881167412
60.0,0.04525135084986687
64.0,0.044215429574251175
72.0,0.04219525307416916
80.0,0.03998047113418579
88.0,0.03762318566441536
96.0,0.03555557131767273
104.0,0.033932384103536606
112.0,0.03253065422177315
120.0,0.031131716445088387
128.0,0.029888737946748734
144.0,0.028126629069447517
160.0,0.02651316300034523
176.0,0.025255953893065453
192.0,0.023263316601514816
208.0,0.020869942381978035
224.0,0.018927356228232384
240.0,0.017226330935955048
256.0,0.01593679189682007
288.0,0.01410492043942213
320.0,0.01336868666112423
352.0,0.011807242408394814
384.0,0.009818695485591888
416.0,0.008580983616411686
448.0,0.007338329218327999
480.0,0.006025651004165411
512.0,0.004400275647640228
576.0,0.001520658261142671
640.0,0.001023379503749311
704.0,0.0011374452151358128
768.0,-0.0005176269332878292
832.0,-0.0004626594018191099
896.0,-0.001226412714459002
960.0,-0.0019307004986330867
1024.0,-0.0012617588508874178
1152.0,0.0008952146745286882
1280.0,-0.00844417605549097
1408.0,-0.013339847326278687
1536.0,-0.010641122236847878
1664.0,-0.008399125188589096
1792.0,-0.001269275788217783
1920.0,0.005830652546137571
2048.0,0.0056594121269881725
2304.0,0.006531454157084227
2560.0,0.005109759047627449
2816.0,0.003682717913761735
3072.0,0.008761776611208916
3328.0,-0.0021075275726616383
3584.0,-0.011783733032643795
3840.0,-0.0022598006762564182
4096.0,0.002252408070489764
4608.0,-0.00012182637874502689
5120.0,-0.0018584281206130981
5632.0,-0.009549026377499104
6144.0,-0.007250738795846701
6656.0,-0.006589880678802729
7168.0,0.008795141242444515
7680.0,-0.0042121196165680885
8192.0,-0.010320511646568775
end
