version,3.0
numOfCh,1
type,point
parent_name,0cd20_0dot069-1dot0
ch_type,1_1
kcount,1
numberNandB,1
brightnessNandB,1
carpet pos,0
pc,0
Time (ms),CH1 Auto-Correlation
1.0,0.10792862623929977
2.0,0.10688337683677673
3.0,0.10594896972179413
4.0,0.10511711239814758
5.0,0.10433445870876312
6.0,0.10362936556339264
7.0,0.10298244655132294
8.0,0.10229457914829254
9.0,0.1015860065817833
10.0,0.10096943378448486
11.0,0.10039331763982773
12.0,0.0997486487030983
13.0,0.09914721548557281
14.0,0.09857294708490372
15.0,0.09805868566036224
16.0,0.09745821356773376
18.0,0.09646624326705933
20.0,0.09546954929828644
22.0,0.09443144500255585
24.0,0.09338440001010895
26.0,0.0924181267619133
28.0,0.09147424250841141
30.0,0.09059431403875351
32.0,0.08976966887712479
36.0,0.08809961378574371
40.0,0.08657271414995193
44.0,0.0851108729839325
48.0,0.0836140587925911
52.0,0.08210399746894836
56.0,0.08065246045589447
60.0,0.0795339047908783
64.0,0.07841689139604568
72.0,0.07619920372962952
80.0,0.07385683804750443
88.0,0.07144243270158768
96.0,0.06916040927171707
104.0,0.06722848117351532
112.0,0.06541939824819565
120.0,0.0637812539935112
128.0,0.06211007013916969
144.0,0.05769966542720795
160.0,0.053374771028757095
176.0,0.049122679978609085
192.0,0.04600585624575615
208.0,0.043082308024168015
224.0,0.039771996438503265
240.0,0.03724374994635582
256.0,0.03495973348617554
288.0,0.031943485140800476
320.0,0.028532959520816803
352.0,0.02545185387134552
384.0,0.022923504933714867
416.0,0.022459933534264565
448.0,0.02174340933561325
480.0,0.019622597843408585
512.0,0.017418336123228073
576.0,0.016301710158586502
640.0,0.01574668101966381
704.0,0.01614857278764248
768.0,0.016398878768086433
832.0,0.013638696633279324
896.0,0.010478504933416843
960.0,0.008752720430493355
1024.0,0.011450659483671188
1152.0,0.01037577260285616
1280.0,0.0003913822292815894
1408.0,-0.009918557479977608
1536.0,-0.014943359419703484
1664.0,-0.01702152192592621
1792.0,-0.01452246867120266
1920.0,-0.017452888190746307
2048.0,-0.01927732303738594
2304.0,-0.014324872754514217
2560.0,-0.009490462951362133
2816.0,0.0014550862833857536
3072.0,0.0006506170029751956
3328.0,-0.004835780244320631
3584.0,-0.002417789539322257
3840.0,0.007386986166238785
4096.0,0.021466845646500587
4608.0,0.003282987978309393
5120.0,0.0003192309523001313
5632.0,-0.0053831348195672035
6144.0,-0.006377556826919317
6656.0,0.01667446456849575
7168.0,0.010511740110814571
7680.0,-0.014494359493255615
8192.0,-0.03208331763744354
end
