version,3.0
numOfCh,1
type,point
parent_name,0cd20_0dot069-1dot0
ch_type,1_1
kcount,1
numberNandB,1
brightnessNandB,1
carpet pos,0
pc,0
Time (ms),CH1 Auto-Correlation
1.0,0.10754706710577011
2.0,0.10594333708286285
3.0,0.10471608489751816
4.0,0.10367242991924286
5.0,0.10271987318992615
6.0,0.10180965065956116
7.0,0.1010226458311081
8.0,0.10030320286750793
9.0,0.09966002404689789
10.0,0.09904080629348755
11.0,0.09839834272861481
12.0,0.09772372990846634
13.0,0.0970463678240776
14.0,0.09645022451877594
15.0,0.09584495425224304
16.0,0.09529580175876617
18.0,0.0943051427602768
20.0,0.09344468265771866
22.0,0.09256501495838165
24.0,0.09175258129835129
26.0,0.0908949226140976
28.0,0.09000551700592041
30.0,0.08915508538484573
32.0,0.08819626271724701
36.0,0.0864223837852478
40.0,0.08452434837818146
44.0,0.08298152685165405
48.0,0.08150581270456314
52.0,0.08005863428115845
56.0,0.07856737822294235
60.0,0.07725933939218521
64.0,0.07599261403083801
72.0,0.07345341145992279
80.0,0.07075127959251404
88.0,0.06775625050067902
96.0,0.06520447134971619
104.0,0.062458183616399765
112.0,0.059808023273944855
120.0,0.05738302692770958
128.0,0.05480353161692619
144.0,0.050132349133491516
160.0,0.04582861438393593
176.0,0.04104029759764671
192.0,0.03664381057024002
208.0,0.03319646418094635
224.0,0.03033321723341942
240.0,0.02821599878370762
256.0,0.02555716037750244
288.0,0.01992250606417656
320.0,0.013784163631498814
352.0,0.008125324733555317
384.0,0.00351007585413754
416.0,0.0008166673360392451
448.0,-7.99673653091304e-05
480.0,-0.0011561571154743433
512.0,-0.002746233716607094
576.0,-0.003550359047949314
640.0,-0.005674048792570829
704.0,-0.006798041518777609
768.0,-0.008024733513593674
832.0,-0.009954418055713177
896.0,-0.008222982287406921
960.0,-0.004801637027412653
1024.0,0.0002583345049060881
1152.0,0.0003044233890250325
1280.0,-0.00946741085499525
1408.0,-0.015782430768013
1536.0,-0.017659850418567657
1664.0,-0.012799604795873165
1792.0,-0.008724892511963844
1920.0,-0.007038535550236702
2048.0,0.00024228918482549489
2304.0,-0.004796026740223169
2560.0,-0.012231511995196342
2816.0,-0.015033162198960781
3072.0,-0.009615154005587101
3328.0,-0.007861433550715446
3584.0,0.0027593057602643967
3840.0,0.010044901631772518
4096.0,0.012071484699845314
4608.0,0.006879002321511507
5120.0,0.01265233289450407
5632.0,-0.009917431510984898
6144.0,-0.004052169620990753
6656.0,-0.008937282487750053
7168.0,-0.01356979925185442
7680.0,0.0010623064590618014
8192.0,0.019385533407330513
end
