version,3.0
numOfCh,1
type,point
parent_name,0cd20_0dot069-1dot0
ch_type,1_1
kcount,1
numberNandB,1
brightnessNandB,1
carpet pos,0
pc,0
Time (ms),CH1 Auto-Correlation
1.0,0.10611070692539215
2.0,0.10517080873250961
3.0,0.10425043851137161
4.0,0.10342766344547272
5.0,0.10259765386581421
6.0,0.10181732475757599
7.0,0.10106512159109116
8.0,0.1003628596663475
9.0,0.09972723573446274
10.0,0.09911981970071793
11.0,0.09849414229393005
12.0,0.09789863228797913
13.0,0.09729659557342529
14.0,0.09666495025157928
15.0,0.09608076512813568
16.0,0.09547070413827896
18.0,0.09437249600887299
20.0,0.09339670836925507
22.0,0.0925162062048912
24.0,0.09160789847373962
26.0,0.09080861508846283
28.0,0.08991947025060654
30.0,0.0890560895204544
32.0,0.0881657525897026
36.0,0.08636565506458282
40.0,0.08467767387628555
44.0,0.08308641612529755
48.0,0.08147943764925003
52.0,0.07986210286617279
56.0,0.07837477326393127
60.0,0.07696842402219772
64.0,0.0756583958864212
72.0,0.07339756935834885
80.0,0.07118687778711319
88.0,0.06917493045330048
96.0,0.06702221930027008
104.0,0.06503590196371078
112.0,0.063356414437294
120.0,0.06179351359605789
128.0,0.06029310077428818
144.0,0.057387031614780426
160.0,0.05484024062752724
176.0,0.052684057503938675
192.0,0.05052961781620979
208.0,0.04796365275979042
224.0,0.04559965431690216
240.0,0.04350654408335686
256.0,0.04182736203074455
288.0,0.04168889671564102
320.0,0.042300209403038025
352.0,0.03994443640112877
384.0,0.035243138670921326
416.0,0.031701620668172836
448.0,0.027224920690059662
480.0,0.023100070655345917
512.0,0.021487334743142128
576.0,0.01872611790895462
640.0,0.017839187756180763
704.0,0.018515491858124733
768.0,0.017105624079704285
832.0,0.015356957912445068
896.0,0.01718049682676792
960.0,0.013393587432801723
1024.0,0.01079707033932209
1152.0,0.0007045039092190564
1280.0,-0.00032313819974660873
1408.0,-0.0036348903086036444
1536.0,-0.011267861351370811
1664.0,-0.014301779679954052
1792.0,-0.020473051816225052
1920.0,-0.03148478642106056
2048.0,-0.0366397462785244
2304.0,-0.030179990455508232
2560.0,-0.02425786480307579
2816.0,-0.023994408547878265
3072.0,-0.012644224800169468
3328.0,0.003794950433075428
3584.0,0.003639339003711939
3840.0,0.003889265237376094
4096.0,0.013346274383366108
4608.0,0.011382930912077427
5120.0,-0.0023182134609669447
5632.0,-0.0253184475004673
6144.0,-0.0264824777841568
6656.0,-0.023966001346707344
7168.0,-0.00839605275541544
7680.0,0.0030639360193163157
8192.0,0.012256362475454807
end
