version,3.0
numOfCh,1
type,point
parent_name,0cd20_0dot069-1dot0
ch_type,1_1
kcount,1
numberNandB,1
brightnessNandB,1
carpet pos,0
pc,0
Time (ms),CH1 Auto-Correlation
1.0,0.09145009517669678
2.0,0.09073226153850555
3.0,0.09002736955881119
4.0,0.08936724811792374
5.0,0.08871378749608994
6.0,0.08812382072210312
7.0,0.08751656115055084
8.0,0.08693777024745941
9.0,0.08634353429079056
10.0,0.08573953062295914
11.0,0.08518200367689133
12.0,0.08465038239955902
13.0,0.08413457125425339
14.0,0.08359499275684357
15.0,0.08307522535324097
16.0,0.08256079256534576
18.0,0.08157690614461899
20.0,0.08061203360557556
22.0,0.0796579122543335
24.0,0.07872767746448517
26.0,0.0778379887342453
28.0,0.07694932073354721
30.0,0.07607823610305786
32.0,0.07522295415401459
36.0,0.07352571189403534
40.0,0.07193397730588913
44.0,0.07046110183000565
48.0,0.06912968307733536
52.0,0.06781990826129913
56.0,0.06650105863809586
60.0,0.06521526724100113
64.0,0.06391207873821259
72.0,0.06143777072429657
80.0,0.05902099609375
88.0,0.0567864365875721
96.0,0.054659221321344376
104.0,0.05267701297998428
112.0,0.05087149515748024
120.0,0.04906104505062103
128.0,0.04747738316655159
144.0,0.044505417346954346
160.0,0.041575442999601364
176.0,0.038935836404561996
192.0,0.03693551942706108
208.0,0.03522755950689316
224.0,0.03364942967891693
240.0,0.03224531561136246
256.0,0.03135312348604202
288.0,0.02916732430458069
320.0,0.027213692665100098
352.0,0.025646548718214035
384.0,0.023779502138495445
416.0,0.022130774334073067
448.0,0.0220077745616436
480.0,0.021649789065122604
512.0,0.021219447255134583
576.0,0.01976933516561985
640.0,0.017590118572115898
704.0,0.013982105068862438
768.0,0.010763447731733322
832.0,0.008037055842578411
896.0,0.008230150677263737
960.0,0.010429052636027336
1024.0,0.013340313918888569
1152.0,0.01310422457754612
1280.0,0.008553899824619293
1408.0,0.004610263742506504
1536.0,0.0015193348517641425
1664.0,0.0068741184659302235
1792.0,0.008288348093628883
1920.0,0.006405591033399105
2048.0,0.004252937622368336
2304.0,-0.0014157892437651753
2560.0,-0.008023736998438835
2816.0,-0.011255176737904549
3072.0,-0.00958482176065445
3328.0,-0.002237081527709961
3584.0,-0.000978481606580317
3840.0,-0.015073386952280998
4096.0,-0.02020455151796341
4608.0,-0.015700556337833405
5120.0,-0.010863239876925945
5632.0,-0.002113904571160674
6144.0,-0.007396832574158907
6656.0,0.006247116252779961
7168.0,0.015866314992308617
7680.0,0.006643232423812151
8192.0,0.01151780504733324
end
