version,3.0
numOfCh,1
type,point
parent_name,0cd20_0dot069-1dot0
ch_type,1_1
kcount,1
numberNandB,1
brightnessNandB,1
carpet pos,0
pc,0
Time (ms),CH1 Auto-Correlation
1.0,0.09825792163610458
2.0,0.0974017083644867
3.0,0.09662839770317078
4.0,0.09589258581399918
5.0,0.09524527192115784
6.0,0.09458189457654953
7.0,0.09390311688184738
8.0,0.09329493343830109
9.0,0.09264934062957764
10.0,0.09206420928239822
11.0,0.09147955477237701
12.0,0.09089993685483932
13.0,0.09040495753288269
14.0,0.08983076363801956
15.0,0.08928055316209793
16.0,0.08872119337320328
18.0,0.08766143023967743
20.0,0.08654968440532684
22.0,0.08547504991292953
24.0,0.08451496809720993
26.0,0.08359421044588089
28.0,0.0827319473028183
30.0,0.08187250792980194
32.0,0.0810307115316391
36.0,0.07936704903841019
40.0,0.07755549252033234
44.0,0.07597796618938446
48.0,0.07456319779157639
52.0,0.07325582206249237
56.0,0.07191868871450424
60.0,0.07041487097740173
64.0,0.06901723146438599
72.0,0.06659480929374695
80.0,0.06423120945692062
88.0,0.06199492886662483
96.0,0.059956490993499756
104.0,0.05797356739640236
112.0,0.056117285043001175
120.0,0.05407418683171272
128.0,0.05196484550833702
144.0,0.048513539135456085
160.0,0.04551364481449127
176.0,0.04240904375910759
192.0,0.04004935175180435
208.0,0.037881117314100266
224.0,0.03557015582919121
240.0,0.03397384658455849
256.0,0.03288829326629639
288.0,0.03140801563858986
320.0,0.02980346418917179
352.0,0.02759929932653904
384.0,0.0250529907643795
416.0,0.02144337072968483
448.0,0.017036112025380135
480.0,0.013953897170722485
512.0,0.012379730120301247
576.0,0.010822704993188381
640.0,0.0078646931797266
704.0,0.002043067244812846
768.0,-0.002730464795604348
832.0,-0.0049010589718818665
896.0,-0.004601458553224802
960.0,-0.004011976066976786
1024.0,-0.0035510233137756586
1152.0,0.0038601269479840994
1280.0,0.0077890558168292046
1408.0,0.010858945548534393
1536.0,0.01284952275454998
1664.0,0.00990398321300745
1792.0,0.008770447224378586
1920.0,0.0028165497351437807
2048.0,-0.003174831857904792
2304.0,-0.009044244885444641
2560.0,-0.01048239041119814
2816.0,-0.00754127511754632
3072.0,-0.008747877553105354
3328.0,-0.02061994932591915
3584.0,-0.031257741153240204
3840.0,-0.03637697547674179
4096.0,-0.024110140278935432
4608.0,-0.006111313588917255
5120.0,-0.003320435993373394
5632.0,-0.020272614434361458
6144.0,-0.007519514765590429
6656.0,0.010800039395689964
7168.0,0.015469148755073547
7680.0,0.018951376900076866
8192.0,0.02169962413609028
end
