version,3.0
numOfCh,1
type,point
parent_name,0cd20_0dot2-0dot1
ch_type,1_1
kcount,1
numberNandB,1
brightnessNandB,1
carpet pos,0
pc,0
Time (ms),CH1 Auto-Correlation
1.0,0.08215025812387466
2.0,0.08023876696825027
3.0,0.07835305482149124
4.0,0.07658370584249496
5.0,0.0748266950249672
6.0,0.07312964648008347
7.0,0.07158422470092773
8.0,0.07007823139429092
9.0,0.06859990954399109
10.0,0.06710081547498703
11.0,0.06578323245048523
12.0,0.06466272473335266
13.0,0.0636395588517189
14.0,0.06258076429367065
15.0,0.061644840985536575
16.0,0.0608506016433239
18.0,0.05924026668071747
20.0,0.05769273638725281
22.0,0.05606016889214516
24.0,0.05412619188427925
26.0,0.051945410668849945
28.0,0.04968351125717163
30.0,0.04756059870123863
32.0,0.04568079486489296
36.0,0.042376987636089325
40.0,0.039319440722465515
44.0,0.03712058067321777
48.0,0.035166267305612564
52.0,0.03353126719594002
56.0,0.03190334513783455
60.0,0.030639244243502617
64.0,0.029404232278466225
72.0,0.027378806844353676
80.0,0.024121111258864403
88.0,0.021408874541521072
96.0,0.019461465999484062
104.0,0.017778947949409485
112.0,0.016479553654789925
120.0,0.015810655429959297
128.0,0.01532092597335577
144.0,0.013182702474296093
160.0,0.010852783918380737
176.0,0.008378786966204643
192.0,0.006134326104074717
208.0,0.004428493790328503
224.0,0.0034114853478968143
240.0,0.0027392387855798006
256.0,0.0015912031522020698
288.0,-0.002213339786976576
320.0,-0.0034681838005781174
352.0,-0.004873898811638355
384.0,-0.005339407362043858
416.0,-0.007520492188632488
448.0,-0.006896224804222584
480.0,-0.006728691048920155
512.0,-0.008032241836190224
576.0,-0.004935074131935835
640.0,-0.0034351968206465244
704.0,0.002050412353128195
768.0,0.005749541334807873
832.0,0.0013263615546748042
896.0,-0.0019148902501910925
960.0,-0.005217281170189381
1024.0,-0.006486091297119856
1152.0,-0.002964439569041133
1280.0,-0.0010409762617200613
1408.0,-0.0036965671461075544
1536.0,0.00511088315397501
1664.0,0.004655868746340275
1792.0,0.0003208679845556617
1920.0,0.002816603984683752
2048.0,-0.0022085646633058786
2304.0,-0.0001309785875491798
2560.0,-0.0009033833630383015
2816.0,-0.0006143031059764326
3072.0,-0.003135618520900607
3328.0,-0.001243844162672758
3584.0,2.728510844463017e-05
3840.0,-0.0020481927786022425
4096.0,0.0009022478479892015
4608.0,-0.00034164346288889647
5120.0,0.007019652519375086
5632.0,-0.0030639665201306343
6144.0,-0.004501486197113991
6656.0,-0.006761579774320126
7168.0,0.003702944377437234
7680.0,0.0009021228179335594
8192.0,-0.005478924140334129
end
