version,3.0
numOfCh,1
type,point
parent_name,0cd20_0dot2-0dot1
ch_type,1_1
kcount,1
numberNandB,1
brightnessNandB,1
carpet pos,0
pc,0
Time (ms),CH1 Auto-Correlation
1.0,0.09024845063686371
2.0,0.0878608301281929
3.0,0.08554373681545258
4.0,0.08297327905893326
5.0,0.08158979564905167
6.0,0.08038449287414551
7.0,0.07931104302406311
8.0,0.07819662243127823
9.0,0.07715745270252228
10.0,0.07614971697330475
11.0,0.07515828311443329
12.0,0.07400157302618027
13.0,0.07290127873420715
14.0,0.07191314548254013
15.0,0.07096412032842636
16.0,0.07016071677207947
18.0,0.06856220960617065
20.0,0.06701349467039108
22.0,0.06553136557340622
24.0,0.06408121436834335
26.0,0.06288579106330872
28.0,0.061792485415935516
30.0,0.06062872335314751
32.0,0.059578292071819305
36.0,0.0578654445707798
40.0,0.056109342724084854
44.0,0.054413024336099625
48.0,0.05271880328655243
52.0,0.0509527251124382
56.0,0.04911188781261444
60.0,0.04745517298579216
64.0,0.045613229274749756
72.0,0.04273459315299988
80.0,0.04066891595721245
88.0,0.03909720480442047
96.0,0.03752532973885536
104.0,0.03600011020898819
112.0,0.03493804112076759
120.0,0.03355242311954498
128.0,0.03250906243920326
144.0,0.031677111983299255
160.0,0.03128695860505104
176.0,0.030363861471414566
192.0,0.028675086796283722
208.0,0.026911316439509392
224.0,0.024327976629137993
240.0,0.02239231951534748
256.0,0.020592475309967995
288.0,0.01964181661605835
320.0,0.01908092573285103
352.0,0.017003916203975677
384.0,0.01617714948952198
416.0,0.015160532668232918
448.0,0.014871981926262379
480.0,0.013863179832696915
512.0,0.012764513492584229
576.0,0.008488805964589119
640.0,0.0049365670420229435
704.0,0.006836281158030033
768.0,0.00652537913993001
832.0,0.007979237474501133
896.0,0.010070744901895523
960.0,0.004101679194718599
1024.0,0.0028980993665754795
1152.0,0.0029843105003237724
1280.0,0.00653980765491724
1408.0,0.007477982901036739
1536.0,0.008641131222248077
1664.0,0.011807833798229694
1792.0,0.01645970530807972
1920.0,0.01550887618213892
2048.0,0.00918943714350462
2304.0,0.006128900684416294
2560.0,0.0017592867370694876
2816.0,0.008047166280448437
3072.0,0.011041502468287945
3328.0,5.829135261592455e-05
3584.0,-0.0028289465699344873
3840.0,0.003961869515478611
4096.0,-0.004485328681766987
4608.0,-0.0036381164100021124
5120.0,-0.007624541409313679
5632.0,-0.01623360998928547
6144.0,-0.014938842505216599
6656.0,-0.01995905116200447
7168.0,-0.017557624727487564
7680.0,-0.01791086420416832
8192.0,-0.007837522774934769
end
