version,3.0
numOfCh,1
type,point
parent_name,0cd20_0dot2-0dot1
ch_type,1_1
kcount,1
numberNandB,1
brightnessNandB,1
carpet pos,0
pc,0
Time (ms),CH1 Auto-Correlation
1.0,0.09212195128202438
2.0,0.08991689234972
3.0,0.08808650821447372
4.0,0.08632897585630417
5.0,0.08459050953388214
6.0,0.08300414681434631
7.0,0.08150618523359299
8.0,0.07990474998950958
9.0,0.07832947373390198
10.0,0.0769396424293518
11.0,0.07585088163614273
12.0,0.07498521357774734
13.0,0.07409148663282394
14.0,0.07315564155578613
15.0,0.07222740352153778
16.0,0.07128012925386429
18.0,0.06916061788797379
20.0,0.06693178415298462
22.0,0.0649786964058876
24.0,0.06280914694070816
26.0,0.06096767261624336
28.0,0.059429265558719635
30.0,0.05826868116855621
32.0,0.05697433277964592
36.0,0.05471139773726463
40.0,0.05228890851140022
44.0,0.0498272068798542
48.0,0.04753579944372177
52.0,0.045303959399461746
56.0,0.042993176728487015
60.0,0.04118288680911064
64.0,0.03994142636656761
72.0,0.03716656193137169
80.0,0.034517839550971985
88.0,0.03247106820344925
96.0,0.030535923317074776
104.0,0.029056621715426445
112.0,0.026492422446608543
120.0,0.024872781708836555
128.0,0.02321496419608593
144.0,0.01982630416750908
160.0,0.014709655195474625
176.0,0.011791701428592205
192.0,0.008298248052597046
208.0,0.0054787988774478436
224.0,0.0037597152404487133
240.0,0.00310712237842381
256.0,0.0036514231469482183
288.0,0.003056298242881894
320.0,0.001784299616701901
352.0,0.0005588273052126169
384.0,0.00030244127265177667
416.0,0.0016023714561015368
448.0,0.0009747740114107728
480.0,-0.0004362108593340963
512.0,0.0010228872997686267
576.0,0.004086434841156006
640.0,-0.00014353026926983148
704.0,-0.005374112632125616
768.0,-0.007650450337678194
832.0,-0.0015259223291650414
896.0,-0.00020058389054611325
960.0,0.002801277907565236
1024.0,0.002249353099614382
1152.0,0.002079978119581938
1280.0,0.0012795631773769855
1408.0,0.003150712698698044
1536.0,-0.0028250094037503004
1664.0,-0.011915561743080616
1792.0,-0.01157546229660511
1920.0,-0.0088537922129035
2048.0,-0.0012075155973434448
2304.0,-0.0030591869726777077
2560.0,-0.0033183488994836807
2816.0,-0.00658361567184329
3072.0,-0.003752524731680751
3328.0,0.002943609142675996
3584.0,0.0029932253528386354
3840.0,-0.0003737797960639
4096.0,-0.005764763802289963
4608.0,-0.0046797990798950195
5120.0,-0.001539671327918768
5632.0,-0.0009505099733360112
6144.0,0.0004890718264505267
6656.0,0.004557488020509481
7168.0,0.004605831112712622
7680.0,0.001507773413322866
8192.0,-0.004364285618066788
end
