version,3.0
numOfCh,1
type,point
parent_name,0cd20_0dot2-0dot1
ch_type,1_1
kcount,1
numberNandB,1
brightnessNandB,1
carpet pos,0
pc,0
Time (ms),CH1 Auto-Correlation
1.0,0.10063735395669937
2.0,0.09888272732496262
3.0,0.0972241759300232
4.0,0.09562519192695618
5.0,0.09419023990631104
6.0,0.09294039756059647
7.0,0.09182470291852951
8.0,0.0907987505197525
9.0,0.08974561095237732
10.0,0.08859936892986298
11.0,0.0875004455447197
12.0,0.08647704124450684
13.0,0.08561812341213226
14.0,0.08478722721338272
15.0,0.08396929502487183
16.0,0.08314239978790283
18.0,0.08135940879583359
20.0,0.07934367656707764
22.0,0.07732214033603668
24.0,0.07555549591779709
26.0,0.07380109280347824
28.0,0.07206544280052185
30.0,0.07066843658685684
32.0,0.0695093497633934
36.0,0.06666374206542969
40.0,0.06391900777816772
44.0,0.06174832955002785
48.0,0.0598689429461956
52.0,0.05857931822538376
56.0,0.057416826486587524
60.0,0.056472163647413254
64.0,0.055315300822257996
72.0,0.05321638286113739
80.0,0.0514981709420681
88.0,0.049942679703235626
96.0,0.0487951785326004
104.0,0.047820430248975754
112.0,0.04701906442642212
120.0,0.04615581035614014
128.0,0.04566264897584915
144.0,0.044386886060237885
160.0,0.04286608099937439
176.0,0.04299559071660042
192.0,0.043573759496212006
208.0,0.04253073409199715
224.0,0.04092210903763771
240.0,0.038246165961027145
256.0,0.03490016236901283
288.0,0.02869691699743271
320.0,0.025051068514585495
352.0,0.021831097081303596
384.0,0.02011096477508545
416.0,0.01951483264565468
448.0,0.017878524959087372
480.0,0.015358906239271164
512.0,0.014203430153429508
576.0,0.014785206876695156
640.0,0.017963774502277374
704.0,0.012311468832194805
768.0,0.008279027417302132
832.0,0.008302113972604275
896.0,0.005539447069168091
960.0,0.004747180733829737
1024.0,0.0016296579269692302
1152.0,-0.0034833380486816168
1280.0,-0.006946015637367964
1408.0,-0.014484958723187447
1536.0,-0.020100153982639313
1664.0,-0.02166060544550419
1792.0,-0.016942624002695084
1920.0,-0.01078093983232975
2048.0,-0.013154552318155766
2304.0,-0.01669628731906414
2560.0,-0.008606410585343838
2816.0,-0.005584646016359329
3072.0,-0.0009824922308325768
3328.0,0.009442559443414211
3584.0,0.011175235733389854
3840.0,0.014352415688335896
4096.0,0.01668916828930378
4608.0,0.009283911436796188
5120.0,-0.004695982206612825
5632.0,-0.01055486686527729
6144.0,-0.01983913965523243
6656.0,-0.0028452149126678705
7168.0,-0.005676940083503723
7680.0,0.009338104166090488
8192.0,0.015338068827986717
end
