version,3.0
numOfCh,1
type,point
parent_name,0cd20_0dot2-0dot1
ch_type,1_1
kcount,1
numberNandB,1
brightnessNandB,1
carpet pos,0
pc,0
Time (ms),CH1 Auto-Correlation
1.0,0.08456093072891235
2.0,0.08294227719306946
3.0,0.0813991129398346
4.0,0.07991781085729599
5.0,0.07852192968130112
6.0,0.07723324000835419
7.0,0.07608944922685623
8.0,0.07509511709213257
9.0,0.07411625981330872
10.0,0.07314036041498184
11.0,0.07220835983753204
12.0,0.07133626192808151
13.0,0.0704990103840828
14.0,0.06966865062713623
15.0,0.06883200258016586
16.0,0.06795930862426758
18.0,0.06614822149276733
20.0,0.0642845407128334
22.0,0.06257747113704681
24.0,0.060979895293712616
26.0,0.05931731313467026
28.0,0.057756125926971436
30.0,0.056309737265110016
32.0,0.05490444228053093
36.0,0.05228191241621971
40.0,0.050002265721559525
44.0,0.04767661541700363
48.0,0.04554564878344536
52.0,0.043583743274211884
56.0,0.041596394032239914
60.0,0.03947751224040985
64.0,0.03762777894735336
72.0,0.034941259771585464
80.0,0.032810360193252563
88.0,0.03156556934118271
96.0,0.030099578201770782
104.0,0.02857094816863537
112.0,0.027007829397916794
120.0,0.026051413267850876
128.0,0.025443952530622482
144.0,0.025150032714009285
160.0,0.02487754076719284
176.0,0.023360297083854675
192.0,0.021085254848003387
208.0,0.01933753490447998
224.0,0.018082885071635246
240.0,0.018587695434689522
256.0,0.019479898735880852
288.0,0.01771150529384613
320.0,0.016592424362897873
352.0,0.015311709605157375
384.0,0.013406292535364628
416.0,0.011309724301099777
448.0,0.009792759083211422
480.0,0.0095937829464674
512.0,0.01151544600725174
576.0,0.014369330368936062
640.0,0.009684924967586994
704.0,0.008159616030752659
768.0,0.003779608989134431
832.0,0.0013910878915339708
896.0,0.002594594843685627
960.0,0.0034656140487641096
1024.0,0.002952795708552003
1152.0,0.0009261408704333007
1280.0,-0.0024557425640523434
1408.0,-0.006058800499886274
1536.0,-0.005245761014521122
1664.0,-0.003985704854130745
1792.0,-0.002049535047262907
1920.0,-0.003999072592705488
2048.0,-0.0020412320736795664
2304.0,0.0018963057082146406
2560.0,0.008578316308557987
2816.0,0.012742933817207813
3072.0,0.009479491040110588
3328.0,0.0065866559743881226
3584.0,-0.003062830539420247
3840.0,-0.009463818743824959
4096.0,-0.012396772392094135
4608.0,-0.016755321994423866
5120.0,-0.008438178338110447
5632.0,0.0009287407156080008
6144.0,0.0062028029933571815
6656.0,-0.003389546647667885
7168.0,-0.013017583638429642
7680.0,-0.01570446789264679
8192.0,0.0015021052677184343
end
