version,3.0
numOfCh,1
type,point
parent_name,0cd20_0dot2-0dot1
ch_type,1_1
kcount,1
numberNandB,1
brightnessNandB,1
carpet pos,0
pc,0
Time (ms),CH1 Auto-Correlation
1.0,0.06477268785238266
2.0,0.06347992271184921
3.0,0.062234777957201004
4.0,0.06105484813451767
5.0,0.059945251792669296
6.0,0.05889376997947693
7.0,0.05790507420897484
8.0,0.05700986087322235
9.0,0.05608055740594864
10.0,0.055210258811712265
11.0,0.05435952916741371
12.0,0.05350649729371071
13.0,0.052677713334560394
14.0,0.051903095096349716
15.0,0.05112292990088463
16.0,0.050390616059303284
18.0,0.04905463010072708
20.0,0.04777564853429794
22.0,0.04649573564529419
24.0,0.04530387744307518
26.0,0.044157642871141434
28.0,0.04306808114051819
30.0,0.04198563098907471
32.0,0.04093232750892639
36.0,0.03893870860338211
40.0,0.03705915808677673
44.0,0.03513543680310249
48.0,0.03332814574241638
52.0,0.03164541721343994
56.0,0.030071498826146126
60.0,0.028550313785672188
64.0,0.027081120759248734
72.0,0.024778975173830986
80.0,0.022811315953731537
88.0,0.02116413787007332
96.0,0.019499707967042923
104.0,0.017841612920165062
112.0,0.016134019941091537
120.0,0.014601102098822594
128.0,0.013692425563931465
144.0,0.01142164971679449
160.0,0.009719915688037872
176.0,0.008682937361299992
192.0,0.008274459280073643
208.0,0.007337450981140137
224.0,0.006426758132874966
240.0,0.005257194396108389
256.0,0.0043006883934140205
288.0,0.002937908982858062
320.0,0.0031412900425493717
352.0,0.0037602526135742664
384.0,0.0038471382576972246
416.0,0.005552283953875303
448.0,0.007825590670108795
480.0,0.010228189639747143
512.0,0.011692575179040432
576.0,0.009769289754331112
640.0,0.004015772603452206
704.0,0.0007151528843678534
768.0,-0.0008417748613283038
832.0,-0.0038458320777863264
896.0,-0.0001267147745238617
960.0,0.0025356647092849016
1024.0,0.005290275439620018
1152.0,-0.002785393502563238
1280.0,-0.0034874549601227045
1408.0,-0.0026881808880716562
1536.0,0.00206930935382843
1664.0,-0.001375205465592444
1792.0,0.002856372157111764
1920.0,0.0070172324776649475
2048.0,0.004975081421434879
2304.0,0.0022881010081619024
2560.0,0.007222776301205158
2816.0,0.0030433828942477703
3072.0,0.008443768136203289
3328.0,0.0024558082222938538
3584.0,-0.002935216762125492
3840.0,0.0010944829555228353
4096.0,-0.0061438861303031445
4608.0,0.001664944807998836
5120.0,0.002451235195621848
5632.0,0.0006999525357969105
6144.0,-0.0016337457345798612
6656.0,0.0018013674998655915
7168.0,-0.004769738297909498
7680.0,-0.006041893735527992
8192.0,-0.007495421916246414
end
