version,3.0
numOfCh,1
type,point
parent_name,0cd20_0dot2-0dot1
ch_type,1_1
kcount,1
numberNandB,1
brightnessNandB,1
carpet pos,0
pc,0
Time (ms),CH1 Auto-Correlation
1.0,0.055433981120586395
2.0,0.05434461310505867
3.0,0.053260475397109985
4.0,0.05214627459645271
5.0,0.051163654774427414
6.0,0.05017158016562462
7.0,0.049249157309532166
8.0,0.048339564353227615
9.0,0.047470126301050186
10.0,0.04656704142689705
11.0,0.045684564858675
12.0,0.04481540247797966
13.0,0.044061850756406784
14.0,0.043319594115018845
15.0,0.04254753887653351
16.0,0.0417831726372242
18.0,0.04025503247976303
20.0,0.038792163133621216
22.0,0.037448037415742874
24.0,0.03622899949550629
26.0,0.03509959951043129
28.0,0.03405484929680824
30.0,0.03306547552347183
32.0,0.03219454362988472
36.0,0.03095821850001812
40.0,0.029577357694506645
44.0,0.028238141909241676
48.0,0.02705921046435833
52.0,0.026146238669753075
56.0,0.025456763803958893
60.0,0.02482372336089611
64.0,0.02419908158481121
72.0,0.022769145667552948
80.0,0.02151584066450596
88.0,0.02047889493405819
96.0,0.019565798342227936
104.0,0.018730459734797478
112.0,0.018350519239902496
120.0,0.018028656020760536
128.0,0.01785281114280224
144.0,0.016903266310691833
160.0,0.015452761203050613
176.0,0.01461701188236475
192.0,0.013752519153058529
208.0,0.012848851270973682
224.0,0.012210310436785221
240.0,0.012409389950335026
256.0,0.011815663427114487
288.0,0.009303809143602848
320.0,0.009214809164404869
352.0,0.008075340650975704
384.0,0.0051154764369130135
416.0,0.0021829111501574516
448.0,-0.00013191021571401507
480.0,-0.0014569609193131328
512.0,-0.002053485717624426
576.0,-0.003112291218712926
640.0,-0.004984329454600811
704.0,-0.004131861962378025
768.0,-0.0032495157793164253
832.0,-0.006246976088732481
896.0,-0.0037591138388961554
960.0,-0.003817819058895111
1024.0,-0.0006182314828038216
1152.0,0.0011376013280823827
1280.0,0.004800600465387106
1408.0,0.006162591278553009
1536.0,0.005658073350787163
1664.0,0.0039985161274671555
1792.0,0.001659814384765923
1920.0,0.0013703297590836883
2048.0,-0.003703414462506771
2304.0,-0.000176079454831779
2560.0,0.00104395707603544
2816.0,0.0035887628328055143
3072.0,0.0021664462983608246
3328.0,-0.00011999235721305013
3584.0,-0.00711818179115653
3840.0,-0.007892314344644547
4096.0,-0.0038733184337615967
4608.0,0.00026088766753673553
5120.0,-0.001430858625099063
5632.0,0.000585179019253701
6144.0,-0.009578719735145569
6656.0,0.0008391723968088627
7168.0,-0.00023502475232817233
7680.0,-0.01216883771121502
8192.0,0.005893448833376169
end
