version,3.0
numOfCh,1
type,point
parent_name,0cd20_0dot2-0dot1
ch_type,1_1
kcount,1
numberNandB,1
brightnessNandB,1
carpet pos,0
pc,0
Time (ms),CH1 Auto-Correlation
1.0,0.07895839959383011
2.0,0.07733330875635147
3.0,0.07569856196641922
4.0,0.07427836209535599
5.0,0.07303888350725174
6.0,0.07186722010374069
7.0,0.07072600722312927
8.0,0.06960931420326233
9.0,0.06844572722911835
10.0,0.06741537153720856
11.0,0.06660757958889008
12.0,0.06563116610050201
13.0,0.06477835029363632
14.0,0.06397244334220886
15.0,0.06338340789079666
16.0,0.06249595433473587
18.0,0.06065841391682625
20.0,0.059036191552877426
22.0,0.0575210340321064
24.0,0.0560310035943985
26.0,0.0545877106487751
28.0,0.05317336320877075
30.0,0.051900025457143784
32.0,0.05074029043316841
36.0,0.048449937254190445
40.0,0.046070396900177
44.0,0.04382104426622391
48.0,0.04175809770822525
52.0,0.03974372148513794
56.0,0.03768584132194519
60.0,0.035698965191841125
64.0,0.033762089908123016
72.0,0.030520273372530937
80.0,0.027634819969534874
88.0,0.024836046621203423
96.0,0.022390155121684074
104.0,0.020066160708665848
112.0,0.018301591277122498
120.0,0.0169362872838974
128.0,0.01566178910434246
144.0,0.014462624676525593
160.0,0.013876483775675297
176.0,0.013645537197589874
192.0,0.013316117227077484
208.0,0.01252956222742796
224.0,0.010790136642754078
240.0,0.007258982863277197
256.0,0.0048103188164532185
288.0,0.0007176161161623895
320.0,0.00018188143440056592
352.0,-0.0004036905593238771
384.0,-0.002569810952991247
416.0,-0.0029381518252193928
448.0,-0.0037381446454674006
480.0,-0.0019628191366791725
512.0,7.373572589131072e-05
576.0,-0.00102364388294518
640.0,0.0008045503636822104
704.0,0.003840321209281683
768.0,0.00025757792172953486
832.0,-0.0012355651706457138
896.0,0.0013582500396296382
960.0,-0.0003172348951920867
1024.0,-0.0008847054559737444
1152.0,0.0008742967620491982
1280.0,-0.0029298632871359587
1408.0,-0.005305103957653046
1536.0,0.0024395915679633617
1664.0,0.004355969838798046
1792.0,0.004335038363933563
1920.0,0.0022746885661035776
2048.0,0.001557552139274776
2304.0,-0.0010423657950013876
2560.0,-0.010232743807137012
2816.0,0.0027351498138159513
3072.0,0.007140880450606346
3328.0,0.0002255006693303585
3584.0,-0.010408325120806694
3840.0,-0.005749654024839401
4096.0,-0.005051079206168652
4608.0,-0.0006938817095942795
5120.0,0.004805237986147404
5632.0,-0.0030331702437251806
6144.0,-0.004839083645492792
6656.0,0.0038984271232038736
7168.0,0.0033877950627356768
7680.0,0.006264226045459509
8192.0,0.008154799230396748
end
