version,3.0
numOfCh,1
type,point
parent_name,0cd20_0dot2-0dot1
ch_type,1_1
kcount,1
numberNandB,1
brightnessNandB,1
carpet pos,0
pc,0
Time (ms),CH1 Auto-Correlation
1.0,0.05816629156470299
2.0,0.057051148265600204
3.0,0.0560036264359951
4.0,0.055019546300172806
5.0,0.0540800467133522
6.0,0.05317404121160507
7.0,0.05227656662464142
8.0,0.05139704421162605
9.0,0.05050978437066078
10.0,0.04971122741699219
11.0,0.048913195729255676
12.0,0.048170290887355804
13.0,0.047435659915208817
14.0,0.046717364341020584
15.0,0.04600192606449127
16.0,0.045296840369701385
18.0,0.044019829481840134
20.0,0.04281983524560928
22.0,0.041710250079631805
24.0,0.0406954400241375
26.0,0.03974161297082901
28.0,0.038822710514068604
30.0,0.037868205457925797
32.0,0.03696594387292862
36.0,0.035124897956848145
40.0,0.033287812024354935
44.0,0.03160950541496277
48.0,0.0301088597625494
52.0,0.02871847152709961
56.0,0.02737465687096119
60.0,0.0261808130890131
64.0,0.02500591240823269
72.0,0.022813856601715088
80.0,0.020863285288214684
88.0,0.019307881593704224
96.0,0.017851771786808968
104.0,0.016824671998620033
112.0,0.015738828107714653
120.0,0.014452573843300343
128.0,0.012837960384786129
144.0,0.01062043197453022
160.0,0.009576442651450634
176.0,0.009341408498585224
192.0,0.009046172723174095
208.0,0.008581666275858879
224.0,0.007545147091150284
240.0,0.007067646365612745
256.0,0.007076641544699669
288.0,0.006137363612651825
320.0,0.004024450201541185
352.0,0.002140132710337639
384.0,-0.000299749372061342
416.0,-0.0011680000461637974
448.0,0.0003662954841274768
480.0,0.0017032417235895991
512.0,0.0023843853268772364
576.0,0.0030334002804011106
640.0,0.001996581442654133
704.0,0.0004807943769264966
768.0,0.002703589852899313
832.0,0.0033031220082193613
896.0,0.00029491863097064197
960.0,0.0016339640133082867
1024.0,0.004807845689356327
1152.0,0.003449413226917386
1280.0,0.006457123905420303
1408.0,0.005543661769479513
1536.0,0.006148594431579113
1664.0,0.006728140637278557
1792.0,0.001925978227518499
1920.0,-0.0002433173212921247
2048.0,-0.0038529832381755114
2304.0,-0.0017856602789834142
2560.0,-0.006538840942084789
2816.0,-0.0005293497815728188
3072.0,-0.0001567991857882589
3328.0,-0.011096546426415443
3584.0,-0.008212830871343613
3840.0,-0.003017717506736517
4096.0,-0.00022538576740771532
4608.0,-0.0034111044369637966
5120.0,-0.003228075336664915
5632.0,0.003755885874852538
6144.0,0.0013183123664930463
6656.0,0.001288760220631957
7168.0,0.008825396187603474
7680.0,-0.003807793604210019
8192.0,0.00030290253926068544
end
