version,3.0
numOfCh,1
type,point
parent_name,0cd20_0dot2-0dot1
ch_type,1_1
kcount,1
numberNandB,1
brightnessNandB,1
carpet pos,0
pc,0
Time (ms),CH1 Auto-Correlation
1.0,0.06312234699726105
2.0,0.06172315776348114
3.0,0.060312867164611816
4.0,0.059009600430727005
5.0,0.05776175484061241
6.0,0.05663495883345604
7.0,0.05558249354362488
8.0,0.054633330553770065
9.0,0.05371784046292305
10.0,0.05278829485177994
11.0,0.0519021712243557
12.0,0.05106807500123978
13.0,0.05024580657482147
14.0,0.04942052438855171
15.0,0.04865698143839836
16.0,0.047952163964509964
18.0,0.046538420021533966
20.0,0.045127905905246735
22.0,0.04377681016921997
24.0,0.04250885918736458
26.0,0.04121464118361473
28.0,0.03985433280467987
30.0,0.03860047087073326
32.0,0.037547990679740906
36.0,0.035600967705249786
40.0,0.03363478183746338
44.0,0.03156574070453644
48.0,0.029723752290010452
52.0,0.02805902808904648
56.0,0.02649853192269802
60.0,0.02514306642115116
64.0,0.023858990520238876
72.0,0.02227078564465046
80.0,0.021166479215025902
88.0,0.020232075825333595
96.0,0.019431577995419502
104.0,0.018662050366401672
112.0,0.018608618527650833
120.0,0.01790476031601429
128.0,0.016646139323711395
144.0,0.013712185434997082
160.0,0.011627512983977795
176.0,0.009840329177677631
192.0,0.009117037057876587
208.0,0.009147862903773785
224.0,0.009204051457345486
240.0,0.00949309952557087
256.0,0.009261737577617168
288.0,0.01087902020663023
320.0,0.012412690557539463
352.0,0.012005915865302086
384.0,0.009086686186492443
416.0,0.006897688843309879
448.0,0.006745475810021162
480.0,0.004123000893741846
512.0,0.0017108959145843983
576.0,0.0021995175629854202
640.0,0.002585526555776596
704.0,0.0019340188009664416
768.0,0.004730056971311569
832.0,0.002524011302739382
896.0,-0.0009448908385820687
960.0,-0.006604085676372051
1024.0,-0.005885617341846228
1152.0,-0.0045003886334598064
1280.0,-0.007740364875644445
1408.0,-0.0101535115391016
1536.0,-0.012167353183031082
1664.0,-0.011448860168457031
1792.0,-0.007632041350007057
1920.0,-0.00384461204521358
2048.0,-0.00439322367310524
2304.0,-0.0034832265228033066
2560.0,-0.0006053858669474721
2816.0,8.934208744904026e-05
3072.0,0.0015970427775755525
3328.0,0.0039406418800354
3584.0,0.003415723331272602
3840.0,0.004401225596666336
4096.0,-0.0012079215375706553
4608.0,-0.010877197608351707
5120.0,-0.01131588127464056
5632.0,0.003954657353460789
6144.0,0.014000977389514446
6656.0,0.0080210380256176
7168.0,0.00015008643094915897
7680.0,-0.0011593424715101719
8192.0,-0.004522559233009815
end
