version,3.0
numOfCh,1
type,point
parent_name,0cd20_0dot2-0dot1
ch_type,1_1
kcount,1
numberNandB,1
brightnessNandB,1
carpet pos,0
pc,0
Time (ms),CH1 Auto-Correlation
1.0,0.07903876900672913
2.0,0.07771702855825424
3.0,0.07647575438022614
4.0,0.07529262453317642
5.0,0.07408583164215088
6.0,0.07291797548532486
7.0,0.07175541669130325
8.0,0.07065165787935257
9.0,0.06963115930557251
10.0,0.06864482909440994
11.0,0.06768614798784256
12.0,0.0667891651391983
13.0,0.06593671441078186
14.0,0.06512420624494553
15.0,0.06428958475589752
16.0,0.06347347795963287
18.0,0.06201368197798729
20.0,0.06069403141736984
22.0,0.05944226309657097
24.0,0.05821998417377472
26.0,0.05694427341222763
28.0,0.05571700632572174
30.0,0.054625004529953
32.0,0.05352116376161575
36.0,0.05127713829278946
40.0,0.0492657832801342
44.0,0.047538403421640396
48.0,0.04589185118675232
52.0,0.04425503686070442
56.0,0.04258629307150841
60.0,0.040985286235809326
64.0,0.03968215733766556
72.0,0.03781783953309059
80.0,0.036167506128549576
88.0,0.034458473324775696
96.0,0.032645389437675476
104.0,0.031138472259044647
112.0,0.029506448656320572
120.0,0.028306996449828148
128.0,0.026819352060556412
144.0,0.0230827946215868
160.0,0.0201457180082798
176.0,0.017130237072706223
192.0,0.014483404345810413
208.0,0.013255329802632332
224.0,0.012555565685033798
240.0,0.010829288512468338
256.0,0.009242075495421886
288.0,0.008886816911399364
320.0,0.010674545541405678
352.0,0.011164003051817417
384.0,0.011831321753561497
416.0,0.012583313509821892
448.0,0.013146494515240192
480.0,0.01420136820524931
512.0,0.013728301972150803
576.0,0.007591708097606897
640.0,0.0020422828383743763
704.0,0.001710770302452147
768.0,0.003072283696383238
832.0,0.004805233329534531
896.0,0.004150341730564833
960.0,0.001812777016311884
1024.0,-0.00030340399825945497
1152.0,0.0003587681276258081
1280.0,0.001040699309669435
1408.0,0.004132829140871763
1536.0,0.002852256875485182
1664.0,0.003669423284009099
1792.0,-0.0016677200328558683
1920.0,-0.007798969745635986
2048.0,-0.009227940812706947
2304.0,-0.012355967424809933
2560.0,-0.008708428591489792
2816.0,-0.008168595843017101
3072.0,-0.010979161597788334
3328.0,-0.003599622519686818
3584.0,0.0008861186797730625
3840.0,-0.004954488482326269
4096.0,0.0023566733580082655
4608.0,0.0066268835216760635
5120.0,0.01848108135163784
5632.0,3.138459214824252e-05
6144.0,0.0016926254611462355
6656.0,-0.000805937044788152
7168.0,-0.0213005430996418
7680.0,-0.0043685887940227985
8192.0,-0.011115606874227524
end
