version,3.0
numOfCh,1
type,point
parent_name,0cd20_0dot2-0dot1
ch_type,1_1
kcount,1
numberNandB,1
brightnessNandB,1
carpet pos,0
pc,0
Time (ms),CH1 Auto-Correlation
1.0,0.05193497985601425
2.0,0.05077458545565605
3.0,0.04964562505483627
4.0,0.048558514565229416
5.0,0.047510575503110886
6.0,0.04650767892599106
7.0,0.04555873945355415
8.0,0.04460862651467323
9.0,0.04373491182923317
10.0,0.04289966821670532
11.0,0.042045775800943375
12.0,0.04122830182313919
13.0,0.04041135311126709
14.0,0.03963269293308258
15.0,0.03887265548110008
16.0,0.03817003220319748
18.0,0.03689833730459213
20.0,0.03573109954595566
22.0,0.03461020812392235
24.0,0.033526547253131866
26.0,0.032469358295202255
28.0,0.03142114356160164
30.0,0.03041461668908596
32.0,0.02948947437107563
36.0,0.027824800461530685
40.0,0.026277175173163414
44.0,0.024996746331453323
48.0,0.023818591609597206
52.0,0.022548586130142212
56.0,0.02124607376754284
60.0,0.019946765154600143
64.0,0.01886151172220707
72.0,0.01705758646130562
80.0,0.015044080093502998
88.0,0.012861300259828568
96.0,0.011051282286643982
104.0,0.009854842908680439
112.0,0.009004953317344189
120.0,0.008378398604691029
128.0,0.007635847199708223
144.0,0.006567113567143679
160.0,0.005625815596431494
176.0,0.00467512896284461
192.0,0.004332678858190775
208.0,0.004538267385214567
224.0,0.005014188587665558
240.0,0.005272303242236376
256.0,0.00570226414129138
288.0,0.0054284268990159035
320.0,0.004638723563402891
352.0,0.00413820194080472
384.0,0.00373587803915143
416.0,0.0035686271730810404
448.0,0.0019306878093630075
480.0,0.00034277865779586136
512.0,-8.9840477812686e-06
576.0,-0.00013123417738825083
640.0,0.00011764353985199705
704.0,-0.0001923417585203424
768.0,-0.0006527415825985372
832.0,0.0006979129975661635
896.0,-6.416333781089634e-05
960.0,-0.001686176867224276
1024.0,8.237196311711159e-07
1152.0,-0.0011332720750942826
1280.0,-0.003805972868576646
1408.0,-0.004956645425409079
1536.0,-0.0009874207898974419
1664.0,0.001076779793947935
1792.0,-0.0018918273271992803
1920.0,-6.090994429541752e-05
2048.0,-0.000858195882756263
2304.0,-0.0022555668838322163
2560.0,-0.0013040951453149319
2816.0,-0.004531079437583685
3072.0,-0.005350225605070591
3328.0,-0.003007019404321909
3584.0,-0.0004360110033303499
3840.0,-0.0009933819528669119
4096.0,-0.0008078425307758152
4608.0,0.0007862511556595564
5120.0,0.0019223272101953626
5632.0,0.0014126382302492857
6144.0,0.0010561899980530143
6656.0,0.005323176272213459
7168.0,0.0026183079462498426
7680.0,-0.0007657667738385499
8192.0,-0.006310953758656979
end
