version,3.0
numOfCh,1
type,point
parent_name,0cd20_0dot2-0dot1
ch_type,1_1
kcount,1
numberNandB,1
brightnessNandB,1
carpet pos,0
pc,0
Time (ms),CH1 Auto-Correlation
1.0,0.10086246579885483
2.0,0.09801805019378662
3.0,0.0953645408153534
4.0,0.09310535341501236
5.0,0.0909590795636177
6.0,0.08875692635774612
7.0,0.0869087353348732
8.0,0.08509807288646698
9.0,0.08327633887529373
10.0,0.08154205232858658
11.0,0.079820416867733
12.0,0.07795698195695877
13.0,0.07618163526058197
14.0,0.07424717396497726
15.0,0.07251761853694916
16.0,0.07082974165678024
18.0,0.06719792634248734
20.0,0.06438619643449783
22.0,0.06184077635407448
24.0,0.0595504567027092
26.0,0.057630110532045364
28.0,0.05568644404411316
30.0,0.05403326079249382
32.0,0.05253128334879875
36.0,0.04967540502548218
40.0,0.04706624895334244
44.0,0.045240603387355804
48.0,0.04421868547797203
52.0,0.043097227811813354
56.0,0.042060256004333496
60.0,0.040910981595516205
64.0,0.04003363102674484
72.0,0.0383223332464695
80.0,0.03719111159443855
88.0,0.03536532074213028
96.0,0.03247123584151268
104.0,0.029533058404922485
112.0,0.026872962713241577
120.0,0.026286832988262177
128.0,0.025645757094025612
144.0,0.023709414526820183
160.0,0.02409009076654911
176.0,0.02262646146118641
192.0,0.025011910125613213
208.0,0.028094058856368065
224.0,0.027132179588079453
240.0,0.022582314908504486
256.0,0.02376115322113037
288.0,0.019399266690015793
320.0,0.008218342438340187
352.0,0.008451739326119423
384.0,0.007288907654583454
416.0,0.00860566645860672
448.0,0.012896194122731686
480.0,0.014399846084415913
512.0,0.013830321840941906
576.0,0.008111966773867607
640.0,0.007005759514868259
704.0,0.009224912151694298
768.0,0.010382117703557014
832.0,0.009002012200653553
896.0,0.00895098689943552
960.0,0.007937557995319366
1024.0,0.008086290210485458
1152.0,0.0036394221242517233
1280.0,0.001077500288374722
1408.0,-0.0013101794756948948
1536.0,-0.0017132560024037957
1664.0,-0.0010642653796821833
1792.0,-0.0035252876114100218
1920.0,-0.009215915575623512
2048.0,-0.009859353303909302
2304.0,-0.006837476510554552
2560.0,-0.006868420168757439
2816.0,-0.014089277014136314
3072.0,-0.006718466989696026
3328.0,-0.0019101848592981696
3584.0,-0.00942913442850113
3840.0,-0.014333427883684635
4096.0,-0.009789347648620605
4608.0,-0.011128461919724941
5120.0,-0.0033288910053670406
5632.0,0.005469418130815029
6144.0,0.0068343691527843475
6656.0,0.0026609967462718487
7168.0,0.006014482583850622
7680.0,-0.006235925946384668
8192.0,0.008808635175228119
end
