version,3.0
numOfCh,1
type,point
parent_name,0cd20_0dot2-0dot1
ch_type,1_1
kcount,1
numberNandB,1
brightnessNandB,1
carpet pos,0
pc,0
Time (ms),CH1 Auto-Correlation
1.0,0.06917127966880798
2.0,0.06774485111236572
3.0,0.0663810521364212
4.0,0.06497195363044739
5.0,0.06368017941713333
6.0,0.06243181601166725
7.0,0.061132121831178665
8.0,0.05988314375281334
9.0,0.05862843990325928
10.0,0.057424165308475494
11.0,0.05631214380264282
12.0,0.05522378161549568
13.0,0.05411875993013382
14.0,0.05310000851750374
15.0,0.05209670960903168
16.0,0.051113311201334
18.0,0.04910285398364067
20.0,0.04714086651802063
22.0,0.04535331577062607
24.0,0.04373477026820183
26.0,0.042250216007232666
28.0,0.04092252999544144
30.0,0.0397849977016449
32.0,0.03867325186729431
36.0,0.03647451102733612
40.0,0.03437066078186035
44.0,0.032618891447782516
48.0,0.0310960803180933
52.0,0.030027609318494797
56.0,0.029162973165512085
60.0,0.028171461075544357
64.0,0.027313848957419395
72.0,0.02578689157962799
80.0,0.023677272722125053
88.0,0.021922500804066658
96.0,0.020575828850269318
104.0,0.01939960941672325
112.0,0.018357547000050545
120.0,0.017589233815670013
128.0,0.01730065979063511
144.0,0.017565857619047165
160.0,0.01670219749212265
176.0,0.015139658935368061
192.0,0.01436751987785101
208.0,0.014922657050192356
224.0,0.015159277245402336
240.0,0.014173257164657116
256.0,0.013677528128027916
288.0,0.011839066632091999
320.0,0.010956143029034138
352.0,0.010453074239194393
384.0,0.009849749505519867
416.0,0.008477228693664074
448.0,0.006517666857689619
480.0,0.006098760757595301
512.0,0.005380653310567141
576.0,0.007482700981199741
640.0,0.006866384297609329
704.0,0.006489271763712168
768.0,0.003726172260940075
832.0,0.004171213135123253
896.0,-0.001086258445866406
960.0,-0.004192611668258905
1024.0,-0.004806374199688435
1152.0,-0.004342910833656788
1280.0,-0.004437859170138836
1408.0,-0.0008296475862152874
1536.0,-0.0023137188982218504
1664.0,0.0012092600809410214
1792.0,0.0027883900329470634
1920.0,0.004651043564081192
2048.0,0.0031688676681369543
2304.0,0.0011684925993904471
2560.0,0.0010082103544846177
2816.0,-0.0027025758754462004
3072.0,-0.0018662306247279048
3328.0,-0.0032825663220137358
3584.0,-0.004403247497975826
3840.0,-0.003439490683376789
4096.0,-0.005139324348419905
4608.0,-0.009610719978809357
5120.0,-0.007663747761398554
5632.0,-0.004479176830500364
6144.0,-0.005509297829121351
6656.0,-0.008362484164536
7168.0,0.0010459877084940672
7680.0,0.009766417555510998
8192.0,0.006357769947499037
end
