version,3.0
numOfCh,1
type,point
parent_name,0cd20_0dot2-0dot1
ch_type,1_1
kcount,1
numberNandB,1
brightnessNandB,1
carpet pos,0
pc,0
Time (ms),CH1 Auto-Correlation
1.0,0.06444887816905975
2.0,0.06314847618341446
3.0,0.061895955353975296
4.0,0.060679953545331955
5.0,0.05953574925661087
6.0,0.058412373065948486
7.0,0.05735533684492111
8.0,0.05634516105055809
9.0,0.05540404096245766
10.0,0.054482683539390564
11.0,0.05359148606657982
12.0,0.052726637572050095
13.0,0.05191745609045029
14.0,0.05113133043050766
15.0,0.050372280180454254
16.0,0.04961121454834938
18.0,0.04817678779363632
20.0,0.0467534177005291
22.0,0.045432474464178085
24.0,0.04422575235366821
26.0,0.043054502457380295
28.0,0.041881710290908813
30.0,0.04070551320910454
32.0,0.03951951488852501
36.0,0.03733556717634201
40.0,0.03526894375681877
44.0,0.03338804841041565
48.0,0.03162222355604172
52.0,0.029987990856170654
56.0,0.028465446084737778
60.0,0.026935391128063202
64.0,0.025491222739219666
72.0,0.02292267419397831
80.0,0.020653072744607925
88.0,0.018722789362072945
96.0,0.01724579744040966
104.0,0.015917973592877388
112.0,0.014550067484378815
120.0,0.01346761267632246
128.0,0.012586579658091068
144.0,0.010484201833605766
160.0,0.009551758877933025
176.0,0.009385814890265465
192.0,0.00901795830577612
208.0,0.008200552314519882
224.0,0.006000467110425234
240.0,0.004320741165429354
256.0,0.0029231365770101547
288.0,0.00179686164483428
320.0,0.0006698589422740042
352.0,-0.0006220570066943765
384.0,-0.001427731942385435
416.0,-0.0028103829827159643
448.0,-0.002371646463871002
480.0,-0.0013152111787348986
512.0,-0.0004209380713291466
576.0,-0.0010692434152588248
640.0,-0.002920237835496664
704.0,-0.003999647684395313
768.0,-0.0012857945403084159
832.0,0.00040972646092996
896.0,-0.0003228035639040172
960.0,-0.0045285155065357685
1024.0,-0.005758292973041534
1152.0,-0.004622243344783783
1280.0,-0.001510186237283051
1408.0,0.005362316966056824
1536.0,0.004559946712106466
1664.0,0.004296688362956047
1792.0,0.00635931920260191
1920.0,0.0006932129617780447
2048.0,0.001094899489544332
2304.0,2.859496271412354e-05
2560.0,0.0002726036182139069
2816.0,-0.004783031530678272
3072.0,-0.004460698459297419
3328.0,-0.0016593235777691007
3584.0,-0.0010093329474329948
3840.0,-0.001220289384946227
4096.0,0.0032529975287616253
4608.0,-0.00700644263997674
5120.0,0.0013831721153110266
5632.0,0.0016056053573265672
6144.0,-0.0007486298563890159
6656.0,-0.0009508569492027164
7168.0,-0.0020233404356986284
7680.0,0.0017268451629206538
8192.0,0.0004050061688758433
end
