version,3.0
numOfCh,1
type,point
parent_name,0cd20_0dot2-0dot1
ch_type,1_1
kcount,1
numberNandB,1
brightnessNandB,1
carpet pos,0
pc,0
Time (ms),CH1 Auto-Correlation
1.0,0.12983998656272888
2.0,0.1252942681312561
3.0,0.12093529105186462
4.0,0.11708381026983261
5.0,0.11328226327896118
6.0,0.10953282564878464
7.0,0.10565849393606186
8.0,0.10187891125679016
9.0,0.09850794821977615
10.0,0.09544233977794647
11.0,0.09212279319763184
12.0,0.08856245130300522
13.0,0.08498898148536682
14.0,0.0815400704741478
15.0,0.07986248284578323
16.0,0.07828333228826523
18.0,0.07448209822177887
20.0,0.07141007483005524
22.0,0.06880973279476166
24.0,0.06638925522565842
26.0,0.06397836655378342
28.0,0.061942972242832184
30.0,0.059991318732500076
32.0,0.05783917382359505
36.0,0.053005851805210114
40.0,0.048836395144462585
44.0,0.045500800013542175
48.0,0.04265841841697693
52.0,0.040237896144390106
56.0,0.03822432830929756
60.0,0.036095838993787766
64.0,0.03320495784282684
72.0,0.02864120341837406
80.0,0.026586472988128662
88.0,0.025784553959965706
96.0,0.02674098126590252
104.0,0.03111071139574051
112.0,0.03725821152329445
120.0,0.03792140632867813
128.0,0.03161366283893585
144.0,0.02481774613261223
160.0,0.015582834370434284
176.0,0.013062581419944763
192.0,0.012264352291822433
208.0,0.013060826808214188
224.0,0.01277958694845438
240.0,0.00987976137548685
256.0,0.009104380384087563
288.0,0.007180684246122837
320.0,0.009954482316970825
352.0,0.00973373744636774
384.0,0.005930840503424406
416.0,0.0043653808534145355
448.0,0.004160069394856691
480.0,0.00472545251250267
512.0,0.01146184466779232
576.0,0.015130988322198391
640.0,0.010370886884629726
704.0,0.004979127086699009
768.0,-0.0026135153602808714
832.0,-0.004877953324466944
896.0,-0.004280198365449905
960.0,-0.006638823077082634
1024.0,-0.007168906275182962
1152.0,-0.007092768792062998
1280.0,-0.009413708932697773
1408.0,-0.008256649598479271
1536.0,-0.005897608119994402
1664.0,-0.008073796518146992
1792.0,-0.010610660538077354
1920.0,-0.005494074895977974
2048.0,0.0017748071113601327
2304.0,0.001813448267057538
2560.0,0.010997208766639233
2816.0,0.0028583661187440157
3072.0,0.00810309313237667
3328.0,-0.00013110891450196505
3584.0,-0.008778557181358337
3840.0,-0.021383384242653847
4096.0,-0.018871871754527092
4608.0,-0.0038243650924414396
5120.0,0.004193057771772146
5632.0,0.007537707220762968
6144.0,-0.002896158490329981
6656.0,-0.012542413547635078
7168.0,-0.0040489062666893005
7680.0,0.006598691456019878
8192.0,0.00043491131509654224
end
