version,3.0
numOfCh,1
type,point
parent_name,0cd20_0dot2-0dot1
ch_type,1_1
kcount,1
numberNandB,1
brightnessNandB,1
carpet pos,0
pc,0
Time (ms),CH1 Auto-Correlation
1.0,0.07939425855875015
2.0,0.07804280519485474
3.0,0.07681242376565933
4.0,0.07564380019903183
5.0,0.07443901896476746
6.0,0.07327279448509216
7.0,0.07215713709592819
8.0,0.07102496176958084
9.0,0.06988482922315598
10.0,0.06882265210151672
11.0,0.0677681639790535
12.0,0.06674107909202576
13.0,0.06573929637670517
14.0,0.06485952436923981
15.0,0.0639922097325325
16.0,0.06308343261480331
18.0,0.06127431243658066
20.0,0.059515178203582764
22.0,0.05783914029598236
24.0,0.056281737983226776
26.0,0.05481858551502228
28.0,0.05337374284863472
30.0,0.051903218030929565
32.0,0.05048452317714691
36.0,0.04787195473909378
40.0,0.045456383377313614
44.0,0.04336116462945938
48.0,0.04155418649315834
52.0,0.039897773414850235
56.0,0.03835729509592056
60.0,0.036905426532030106
64.0,0.035607222467660904
72.0,0.03324964642524719
80.0,0.031871967017650604
88.0,0.03128886967897415
96.0,0.030893662944436073
104.0,0.03024483658373356
112.0,0.029667142778635025
120.0,0.029140882194042206
128.0,0.02796759642660618
144.0,0.025340424850583076
160.0,0.022674866020679474
176.0,0.020368773490190506
192.0,0.01774725131690502
208.0,0.015840301290154457
224.0,0.015428410843014717
240.0,0.014361397363245487
256.0,0.012984045781195164
288.0,0.012723113410174847
320.0,0.012226810678839684
352.0,0.009304518811404705
384.0,0.007641929667443037
416.0,0.008481904864311218
448.0,0.007143056485801935
480.0,0.003941234201192856
512.0,0.0013793192338198423
576.0,0.0001219850018969737
640.0,0.0007307601626962423
704.0,-0.00010497959010535851
768.0,-0.003466725116595626
832.0,-0.006551083642989397
896.0,-0.011567240580916405
960.0,-0.009822907857596874
1024.0,-0.008418181911110878
1152.0,-0.009542993269860744
1280.0,-0.012093067169189453
1408.0,-0.013545374386012554
1536.0,-0.011123737320303917
1664.0,-0.012607155367732048
1792.0,-0.012031983584165573
1920.0,-0.010487421415746212
2048.0,-0.004853517282754183
2304.0,0.0036888576578348875
2560.0,0.010845654644072056
2816.0,0.0079972418025136
3072.0,-0.001348339719697833
3328.0,-0.004131551831960678
3584.0,0.0035355808213353157
3840.0,0.003264043014496565
4096.0,0.003908454440534115
4608.0,0.0034679861273616552
5120.0,0.004152608569711447
5632.0,-0.01179405115544796
6144.0,-0.009336312301456928
6656.0,-0.010414243675768375
7168.0,0.005481347441673279
7680.0,0.010704721324145794
8192.0,0.0008707455708645284
end
