version,3.0
numOfCh,1
type,point
parent_name,0cd20_0dot2-0dot1
ch_type,1_1
kcount,1
numberNandB,1
brightnessNandB,1
carpet pos,0
pc,0
Time (ms),CH1 Auto-Correlation
1.0,0.06726487725973129
2.0,0.06605467200279236
3.0,0.06489763408899307
4.0,0.06377150118350983
5.0,0.06268218904733658
6.0,0.061667826026678085
7.0,0.06068842113018036
8.0,0.05977630987763405
9.0,0.058840785175561905
10.0,0.05796121433377266
11.0,0.057099565863609314
12.0,0.056293319910764694
13.0,0.05548010393977165
14.0,0.054676298052072525
15.0,0.053901996463537216
16.0,0.05313770845532417
18.0,0.05161980167031288
20.0,0.050146397203207016
22.0,0.04873884096741676
24.0,0.04737961292266846
26.0,0.04601174220442772
28.0,0.04472941532731056
30.0,0.04349467530846596
32.0,0.042344532907009125
36.0,0.04019613564014435
40.0,0.03813309222459793
44.0,0.03619273751974106
48.0,0.03428882360458374
52.0,0.0325004979968071
56.0,0.030969105660915375
60.0,0.029592424631118774
64.0,0.028214626014232635
72.0,0.02584749087691307
80.0,0.023860616609454155
88.0,0.02248319238424301
96.0,0.021491125226020813
104.0,0.020647840574383736
112.0,0.019610503688454628
120.0,0.01849147491157055
128.0,0.018116682767868042
144.0,0.017887402325868607
160.0,0.01776234246790409
176.0,0.017571520060300827
192.0,0.01699112169444561
208.0,0.01615721546113491
224.0,0.01603734865784645
240.0,0.015871107578277588
256.0,0.01652649976313114
288.0,0.01728326454758644
320.0,0.016216279938817024
352.0,0.013689819723367691
384.0,0.012303105555474758
416.0,0.010796972550451756
448.0,0.0071324496529996395
480.0,0.005548533052206039
512.0,0.008458725176751614
576.0,0.011748485267162323
640.0,0.00983065739274025
704.0,0.005777325015515089
768.0,0.005867475643754005
832.0,0.003729356685653329
896.0,0.0029997017700225115
960.0,0.002185781253501773
1024.0,-0.0006946739158593118
1152.0,-0.0017271325923502445
1280.0,0.004340778104960918
1408.0,0.004496616777032614
1536.0,0.0012452523224055767
1664.0,-0.0021149206440895796
1792.0,-0.00385504262521863
1920.0,-0.001010532258078456
2048.0,0.001218970282934606
2304.0,-0.003040807321667671
2560.0,-0.006299127824604511
2816.0,-0.008522208780050278
3072.0,-0.012526750564575195
3328.0,-0.00844419002532959
3584.0,-0.0026109828613698483
3840.0,-0.006071062758564949
4096.0,-0.0031343267764896154
4608.0,-0.00013375090202316642
5120.0,-0.001825354527682066
5632.0,-0.0046224952675402164
6144.0,-0.0015921680023893714
6656.0,-0.0026291024405509233
7168.0,0.006732204928994179
7680.0,0.006238458212465048
8192.0,-0.00019734774832613766
end
