version,3.0
numOfCh,1
type,point
parent_name,0cd20_0dot2-0dot1
ch_type,1_1
kcount,1
numberNandB,1
brightnessNandB,1
carpet pos,0
pc,0
Time (ms),CH1 Auto-Correlation
1.0,0.07282082736492157
2.0,0.07127378135919571
3.0,0.06984078884124756
4.0,0.06849908083677292
5.0,0.06717002391815186
6.0,0.0658765435218811
7.0,0.06456983834505081
8.0,0.0633484423160553
9.0,0.062179889529943466
10.0,0.06102854385972023
11.0,0.059952858835458755
12.0,0.05894169956445694
13.0,0.057970527559518814
14.0,0.057084232568740845
15.0,0.05622805655002594
16.0,0.055440064519643784
18.0,0.05374714359641075
20.0,0.052018292248249054
22.0,0.050396304577589035
24.0,0.04890122264623642
26.0,0.047488607466220856
28.0,0.04616900533437729
30.0,0.044905975461006165
32.0,0.04365192726254463
36.0,0.04118897765874863
40.0,0.038846805691719055
44.0,0.036532122641801834
48.0,0.03417758643627167
52.0,0.03208291530609131
56.0,0.030294492840766907
60.0,0.028614366427063942
64.0,0.027108455076813698
72.0,0.024243615567684174
80.0,0.02203788422048092
88.0,0.020754173398017883
96.0,0.019775904715061188
104.0,0.018954725936055183
112.0,0.017818281427025795
120.0,0.017039624974131584
128.0,0.016167987138032913
144.0,0.014935052022337914
160.0,0.014602182433009148
176.0,0.015028920024633408
192.0,0.01390959694981575
208.0,0.011530136689543724
224.0,0.01047706138342619
240.0,0.00818548072129488
256.0,0.005919239949434996
288.0,0.002375143812969327
320.0,-0.0004107359563931823
352.0,-0.0028233728371560574
384.0,-0.004535750951617956
416.0,-0.0070575871504843235
448.0,-0.007499916013330221
480.0,-0.007402628660202026
512.0,-0.008568982593715191
576.0,-0.008627258241176605
640.0,-0.005668347701430321
704.0,-0.002709289314225316
768.0,-0.0005946917808614671
832.0,0.0009292706963606179
896.0,0.006473853252828121
960.0,0.004981021862477064
1024.0,0.001494930125772953
1152.0,0.0023439396172761917
1280.0,-0.0030242863576859236
1408.0,-0.004986944142729044
1536.0,-0.00403779000043869
1664.0,-0.0024381433613598347
1792.0,-0.001182539970614016
1920.0,-0.005420812871307135
2048.0,-0.003178046317771077
2304.0,0.003879484487697482
2560.0,-0.0014363409718498588
2816.0,-0.006489109247922897
3072.0,-0.0021227893885225058
3328.0,-0.0018299039220437407
3584.0,-0.0070854234509170055
3840.0,-0.005265298765152693
4096.0,0.000343512452673167
4608.0,0.0048107788898050785
5120.0,-0.0068663740530610085
5632.0,0.000990809639915824
6144.0,-0.004290295299142599
6656.0,0.00892020296305418
7168.0,0.001413550809957087
7680.0,0.004292313475161791
8192.0,0.004620483610779047
end
