version,3.0
numOfCh,1
type,point
parent_name,0cd20_0dot2-0dot1
ch_type,1_1
kcount,1
numberNandB,1
brightnessNandB,1
carpet pos,0
pc,0
Time (ms),CH1 Auto-Correlation
1.0,0.0798104926943779
2.0,0.0784020870923996
3.0,0.07705961167812347
4.0,0.07575913518667221
5.0,0.07452285289764404
6.0,0.07335139811038971
7.0,0.07222690433263779
8.0,0.07111120223999023
9.0,0.07002291083335876
10.0,0.06894521415233612
11.0,0.0679333359003067
12.0,0.0669792965054512
13.0,0.06609543412923813
14.0,0.06528507173061371
15.0,0.06448902189731598
16.0,0.06371046602725983
18.0,0.062288518995046616
20.0,0.06097674369812012
22.0,0.05973897501826286
24.0,0.05856931209564209
26.0,0.057420700788497925
28.0,0.05635615065693855
30.0,0.0553128644824028
32.0,0.05425074324011803
36.0,0.052419498562812805
40.0,0.05071481689810753
44.0,0.04909820854663849
48.0,0.04760250076651573
52.0,0.04600478708744049
56.0,0.04430265724658966
60.0,0.04264138638973236
64.0,0.04110300540924072
72.0,0.03844769671559334
80.0,0.035639405250549316
88.0,0.032845817506313324
96.0,0.030559031292796135
104.0,0.02908427268266678
112.0,0.02818242646753788
120.0,0.027412783354520798
128.0,0.02659117989242077
144.0,0.02460162527859211
160.0,0.022020572796463966
176.0,0.018204716965556145
192.0,0.014638124033808708
208.0,0.012111722491681576
224.0,0.010739975608885288
240.0,0.010300520807504654
256.0,0.009379634633660316
288.0,0.008551294915378094
320.0,0.008002951741218567
352.0,0.008121591061353683
384.0,0.008353241719305515
416.0,0.008930057287216187
448.0,0.00969342328608036
480.0,0.01010126806795597
512.0,0.007388889789581299
576.0,0.004345674533396959
640.0,-0.0018181044142693281
704.0,-0.0033391169272363186
768.0,-0.0069182263687253
832.0,-0.010020366869866848
896.0,-0.007810787297785282
960.0,-0.005384679418057203
1024.0,-0.004829294979572296
1152.0,-0.007427186705172062
1280.0,-0.0055167656391859055
1408.0,0.001497690100222826
1536.0,0.0070881410501897335
1664.0,0.006385751999914646
1792.0,0.0028028683736920357
1920.0,-0.0014735771110281348
2048.0,0.004539722576737404
2304.0,0.004343979060649872
2560.0,0.0020574626978486776
2816.0,-0.0038158243987709284
3072.0,-0.0031653675250709057
3328.0,-0.007586170919239521
3584.0,-0.0035507793072611094
3840.0,0.007389073260128498
4096.0,0.0062646507285535336
4608.0,-0.0072578503750264645
5120.0,-0.010532615706324577
5632.0,0.0017808007542043924
6144.0,-0.0045150890946388245
6656.0,-0.003485568333417177
7168.0,0.0031550875864923
7680.0,0.0032448801212012768
8192.0,-0.004132101312279701
end
