version,3.0
numOfCh,1
type,point
parent_name,714af_0dot08-0dot01
ch_type,1_1
kcount,1
numberNandB,1
brightnessNandB,1
carpet pos,0
pc,0
Time (ms),CH1 Auto-Correlation
1.0,0.03160997852683067
2.0,0.03133334591984749
3.0,0.031055854633450508
4.0,0.03077472373843193
5.0,0.030498657375574112
6.0,0.030224764719605446
7.0,0.029950719326734543
8.0,0.029684780165553093
9.0,0.029416732490062714
10.0,0.029145434498786926
11.0,0.028876982629299164
12.0,0.028612056747078896
13.0,0.028351353481411934
14.0,0.028094835579395294
15.0,0.027845392003655434
16.0,0.027601035311818123
18.0,0.027119256556034088
20.0,0.02664157934486866
22.0,0.026175031438469887
24.0,0.025720853358507156
26.0,0.025295112282037735
28.0,0.024890700355172157
30.0,0.024495793506503105
32.0,0.02412225492298603
36.0,0.023390114307403564
40.0,0.022675709798932076
44.0,0.021999016404151917
48.0,0.02137862518429756
52.0,0.020848311483860016
56.0,0.02040003426373005
60.0,0.02004195936024189
64.0,0.019773807376623154
72.0,0.019351422786712646
80.0,0.01894547790288925
88.0,0.018560366705060005
96.0,0.01809469610452652
104.0,0.017653508111834526
112.0,0.01721544936299324
120.0,0.016699926927685738
128.0,0.01621645875275135
144.0,0.015289128758013248
160.0,0.014496419578790665
176.0,0.013644028455018997
192.0,0.012768511660397053
208.0,0.012129810638725758
224.0,0.011546078138053417
240.0,0.011029936373233795
256.0,0.010645804926753044
288.0,0.009579299949109554
320.0,0.009063617326319218
352.0,0.008894940838217735
384.0,0.008493908680975437
416.0,0.008204976096749306
448.0,0.0076849558390676975
480.0,0.0073228636756539345
512.0,0.007495461963117123
576.0,0.0077848671935498714
640.0,0.006577230989933014
704.0,0.006485803984105587
768.0,0.006957103498280048
832.0,0.005945991724729538
896.0,0.006251516751945019
960.0,0.006861885078251362
1024.0,0.00568174896761775
1152.0,0.0033031830098479986
1280.0,-0.00020328356185927987
1408.0,-3.237900818930939e-05
1536.0,-0.0006261091330088675
1664.0,-0.0017452107276767492
1792.0,0.0007710876525379717
1920.0,0.0021021475549787283
2048.0,0.0018005984602496028
2304.0,-0.004212076310068369
2560.0,-0.003687941702082753
2816.0,-3.879337600665167e-05
3072.0,-0.001964228693395853
3328.0,-0.005089001264423132
3584.0,-0.0019319229759275913
3840.0,0.0008158708806149662
4096.0,0.0006094676209613681
4608.0,0.0012990434188395739
5120.0,-0.001096896012313664
5632.0,-0.001775743905454874
6144.0,-0.0016954378224909306
6656.0,-0.006700672209262848
7168.0,-0.008313830941915512
7680.0,-0.008397191762924194
8192.0,0.0007313796668313444
end
