version,3.0
numOfCh,1
type,point
parent_name,714af_0dot08-0dot01
ch_type,1_1
kcount,1
numberNandB,1
brightnessNandB,1
carpet pos,0
pc,0
Time (ms),CH1 Auto-Correlation
1.0,0.07730401307344437
2.0,0.07424653321504593
3.0,0.07121078670024872
4.0,0.06806179881095886
5.0,0.06495753675699234
6.0,0.0617542639374733
7.0,0.05854569375514984
8.0,0.055306799709796906
9.0,0.05206368863582611
10.0,0.04884542152285576
11.0,0.04563640430569649
12.0,0.042562518268823624
13.0,0.03945353627204895
14.0,0.03647454455494881
15.0,0.03349947929382324
16.0,0.030474472790956497
18.0,0.030083753168582916
20.0,0.029808975756168365
22.0,0.02953539974987507
24.0,0.029200473800301552
26.0,0.028870657086372375
28.0,0.02849177084863186
30.0,0.028138775378465652
32.0,0.027801306918263435
36.0,0.026976725086569786
40.0,0.026139702647924423
44.0,0.025354869663715363
48.0,0.02454094961285591
52.0,0.023930087685585022
56.0,0.023394854739308357
60.0,0.02287871576845646
64.0,0.02230880968272686
72.0,0.021388545632362366
80.0,0.02082637883722782
88.0,0.020310888066887856
96.0,0.019801069051027298
104.0,0.019588492810726166
112.0,0.01938464678823948
120.0,0.01835193671286106
128.0,0.016684023663401604
144.0,0.014380102045834064
160.0,0.01306777261197567
176.0,0.012298192828893661
192.0,0.011003196239471436
208.0,0.00998077541589737
224.0,0.010896735824644566
240.0,0.010956133715808392
256.0,0.010079270228743553
288.0,0.009273817762732506
320.0,0.007019736338406801
352.0,0.005431897006928921
384.0,0.003827835200354457
416.0,0.0035717738792300224
448.0,0.0027228198014199734
480.0,0.003793591633439064
512.0,0.004771920386701822
576.0,0.004061602987349033
640.0,0.0023763205390423536
704.0,0.00022113524028100073
768.0,-0.00026310034445486963
832.0,3.3617892768234015e-05
896.0,-0.0003143949725199491
960.0,-0.0005598586285486817
1024.0,-0.0006876509287394583
1152.0,-0.0034442362375557423
1280.0,-0.005116820335388184
1408.0,-0.004780484829097986
1536.0,-0.0032162778079509735
1664.0,-0.003935234621167183
1792.0,-0.004757995251566172
1920.0,-0.0024562592152506113
2048.0,-0.0006887546041980386
2304.0,0.0012556036235764623
2560.0,0.004486464895308018
2816.0,0.0059228199534118176
3072.0,0.0044805146753787994
3328.0,0.003657721681520343
3584.0,0.003824792103841901
3840.0,0.002892065793275833
4096.0,0.0012784498976543546
4608.0,-0.0041537475772202015
5120.0,-0.01106791477650404
5632.0,-0.00846470519900322
6144.0,0.00032669713255017996
6656.0,0.005583304911851883
7168.0,0.004588804207742214
7680.0,-0.012201204895973206
8192.0,-0.007058624643832445
end
