version,3.0
numOfCh,1
type,point
parent_name,714af_0dot08-0dot01
ch_type,1_1
kcount,1
numberNandB,1
brightnessNandB,1
carpet pos,0
pc,0
Time (ms),CH1 Auto-Correlation
1.0,0.03836851194500923
2.0,0.03809232637286186
3.0,0.03781594708561897
4.0,0.03754156082868576
5.0,0.03726113960146904
6.0,0.036987777799367905
7.0,0.0367279089987278
8.0,0.03647257387638092
9.0,0.03622328117489815
10.0,0.0359773114323616
11.0,0.035735100507736206
12.0,0.03549852967262268
13.0,0.03525993227958679
14.0,0.0350305438041687
15.0,0.03480513021349907
16.0,0.0345868244767189
18.0,0.034155942499637604
20.0,0.03375532850623131
22.0,0.03337618336081505
24.0,0.032994482666254044
26.0,0.0326116569340229
28.0,0.032224975526332855
30.0,0.03184131160378456
32.0,0.03144371882081032
36.0,0.030668562278151512
40.0,0.029888654127717018
44.0,0.029136275872588158
48.0,0.02845640666782856
52.0,0.027783555909991264
56.0,0.027149299159646034
60.0,0.02653707005083561
64.0,0.025962941348552704
72.0,0.024861516430974007
80.0,0.02377694472670555
88.0,0.022791968658566475
96.0,0.02185816504061222
104.0,0.020984236150979996
112.0,0.020110897719860077
120.0,0.019219065085053444
128.0,0.018406126648187637
144.0,0.016885580494999886
160.0,0.015630383044481277
176.0,0.014545292593538761
192.0,0.013598626479506493
208.0,0.012535789050161839
224.0,0.011419449932873249
240.0,0.010193843394517899
256.0,0.0089532770216465
288.0,0.006664672866463661
320.0,0.0051406798884272575
352.0,0.004657141864299774
384.0,0.003869218984618783
416.0,0.0031732781790196896
448.0,0.0023017139174044132
480.0,0.0017578109400346875
512.0,0.0013698746915906668
576.0,0.0002864302368834615
640.0,3.605488745961338e-05
704.0,0.0017008440336212516
768.0,0.002347339875996113
832.0,0.001566121238283813
896.0,0.0003555163857527077
960.0,-0.0012734114425256848
1024.0,-0.001793079194612801
1152.0,-0.0029713590629398823
1280.0,-0.0020685868803411722
1408.0,-0.0006857594125904143
1536.0,0.00014642755559179932
1664.0,-0.0015685309190303087
1792.0,-0.0006886627525091171
1920.0,-0.0007516522891819477
2048.0,0.0005453244666568935
2304.0,0.0013127727434039116
2560.0,-0.005598749499768019
2816.0,-0.006223009899258614
3072.0,-0.005087065976113081
3328.0,-0.010369004681706429
3584.0,-0.007960664108395576
3840.0,-0.004439902026206255
4096.0,-0.008781105279922485
4608.0,-0.0013337202835828066
5120.0,0.004045599140226841
5632.0,-6.944977940293029e-05
6144.0,0.0050186943262815475
6656.0,0.005571874789893627
7168.0,0.004925201181322336
7680.0,0.010286152362823486
8192.0,0.0041898866184055805
end
