version,3.0
numOfCh,1
type,point
parent_name,714af_0dot08-0dot01
ch_type,1_1
kcount,1
numberNandB,1
brightnessNandB,1
carpet pos,0
pc,0
Time (ms),CH1 Auto-Correlation
1.0,0.029974618926644325
2.0,0.0296853706240654
3.0,0.029395125806331635
4.0,0.029112601652741432
5.0,0.0288477074354887
6.0,0.028582191094756126
7.0,0.02831261418759823
8.0,0.028040820732712746
9.0,0.027765825390815735
10.0,0.027486970648169518
11.0,0.02720792405307293
12.0,0.026932181790471077
13.0,0.026658520102500916
14.0,0.02638545259833336
15.0,0.026111885905265808
16.0,0.02583940513432026
18.0,0.025322267785668373
20.0,0.02483171597123146
22.0,0.024346940219402313
24.0,0.023879846557974815
26.0,0.02344265580177307
28.0,0.023045388981699944
30.0,0.022680582478642464
32.0,0.0223274827003479
36.0,0.021681707352399826
40.0,0.021086858585476875
44.0,0.02054382860660553
48.0,0.02002234198153019
52.0,0.019526509568095207
56.0,0.019064687192440033
60.0,0.018673516809940338
64.0,0.018315525725483894
72.0,0.017535028979182243
80.0,0.01673102378845215
88.0,0.015912828966975212
96.0,0.015202704817056656
104.0,0.01466143038123846
112.0,0.014146176166832447
120.0,0.013513309881091118
128.0,0.012844222597777843
144.0,0.011690945364534855
160.0,0.010841398499906063
176.0,0.010240856558084488
192.0,0.009530257433652878
208.0,0.008613296784460545
224.0,0.007957753725349903
240.0,0.007734951097518206
256.0,0.0075987558811903
288.0,0.00684716971591115
320.0,0.0069181183353066444
352.0,0.007255137898027897
384.0,0.007093428168445826
416.0,0.006231603678315878
448.0,0.00513200368732214
480.0,0.003794267773628235
512.0,0.0021193292923271656
576.0,-3.307196675450541e-05
640.0,-0.0014209398068487644
704.0,-0.0011516680242493749
768.0,-0.0011800782522186637
832.0,-0.000854282290674746
896.0,-0.0009402635041624308
960.0,-0.0010257381945848465
1024.0,-0.0017890309682115912
1152.0,-0.0015532292891293764
1280.0,-0.0015438636764883995
1408.0,-0.0026045378763228655
1536.0,-0.0018202890641987324
1664.0,-0.003576454007998109
1792.0,-0.004964916966855526
1920.0,-0.005116458050906658
2048.0,-0.004832701291888952
2304.0,-0.00250182393938303
2560.0,-0.00208832323551178
2816.0,-0.0041458564810454845
3072.0,-0.0045503880828619
3328.0,-0.0010547153651714325
3584.0,0.0026516944635659456
3840.0,0.005186639726161957
4096.0,0.008687845431268215
4608.0,0.0030939781572669744
5120.0,0.0025582576636224985
5632.0,0.0018322243122383952
6144.0,-0.0037141828797757626
6656.0,-0.004680854268372059
7168.0,-0.010101585648953915
7680.0,-0.002502283314242959
8192.0,0.0087613919749856
end
