version,3.0
numOfCh,1
type,point
parent_name,714af_0dot08-0dot01
ch_type,1_1
kcount,1
numberNandB,1
brightnessNandB,1
carpet pos,0
pc,0
Time (ms),CH1 Auto-Correlation
1.0,0.04137802869081497
2.0,0.04109550267457962
3.0,0.04082093387842178
4.0,0.04055100306868553
5.0,0.04028607904911041
6.0,0.04002043604850769
7.0,0.03975946083664894
8.0,0.039497725665569305
9.0,0.03925097733736038
10.0,0.03900529816746712
11.0,0.038760580122470856
12.0,0.03851453959941864
13.0,0.03827664256095886
14.0,0.038037512451410294
15.0,0.03779858723282814
16.0,0.037551917135715485
18.0,0.03707224875688553
20.0,0.03661773353815079
22.0,0.036189038306474686
24.0,0.03576879948377609
26.0,0.03537590429186821
28.0,0.03498803824186325
30.0,0.03459378331899643
32.0,0.03423319756984711
36.0,0.03356944024562836
40.0,0.032966405153274536
44.0,0.03240478038787842
48.0,0.031883109360933304
52.0,0.03136925771832466
56.0,0.030864574015140533
60.0,0.030389806255698204
64.0,0.029980599880218506
72.0,0.029314879328012466
80.0,0.028640413656830788
88.0,0.027911033481359482
96.0,0.027080515399575233
104.0,0.026187097653746605
112.0,0.025297218933701515
120.0,0.02448023110628128
128.0,0.023672087118029594
144.0,0.022367393597960472
160.0,0.021662689745426178
176.0,0.02106870710849762
192.0,0.02034330554306507
208.0,0.019534965977072716
224.0,0.018923956900835037
240.0,0.018377218395471573
256.0,0.017709234729409218
288.0,0.01655101217329502
320.0,0.015556015074253082
352.0,0.014803199097514153
384.0,0.014233366586267948
416.0,0.013797369785606861
448.0,0.012869511730968952
480.0,0.011664560064673424
512.0,0.01183296274393797
576.0,0.012031794525682926
640.0,0.0122871994972229
704.0,0.012394712306559086
768.0,0.011943741701543331
832.0,0.010144124738872051
896.0,0.008235514163970947
960.0,0.00626336270943284
1024.0,0.004058557096868753
1152.0,-0.0011814393801614642
1280.0,-0.006028126925230026
1408.0,-0.007698824163526297
1536.0,-0.008647815324366093
1664.0,-0.010293322615325451
1792.0,-0.01067377720028162
1920.0,-0.012805371545255184
2048.0,-0.012507000006735325
2304.0,-0.007933073677122593
2560.0,-0.002477348782122135
2816.0,0.0011901771649718285
3072.0,0.005215040408074856
3328.0,0.010923221707344055
3584.0,0.010141737759113312
3840.0,0.008067204616963863
4096.0,0.008641672320663929
4608.0,-0.0037128766998648643
5120.0,-0.009027635678648949
5632.0,-0.011388997547328472
6144.0,-0.008603710681200027
6656.0,-0.006505228579044342
7168.0,-0.005828519351780415
7680.0,-0.006161340046674013
8192.0,-0.007407363969832659
end
