version,3.0
numOfCh,1
type,point
parent_name,714af_0dot08-0dot01
ch_type,1_1
kcount,1
numberNandB,1
brightnessNandB,1
carpet pos,0
pc,0
Time (ms),CH1 Auto-Correlation
1.0,0.028591269627213478
2.0,0.02831309475004673
3.0,0.028035158291459084
4.0,0.02776259370148182
5.0,0.027490289881825447
6.0,0.02722081169486046
7.0,0.026952873915433884
8.0,0.02669154666364193
9.0,0.026435043662786484
10.0,0.026177480816841125
11.0,0.02592991106212139
12.0,0.025684218853712082
13.0,0.025440489873290062
14.0,0.02520434744656086
15.0,0.024973077699542046
16.0,0.02473914809525013
18.0,0.024297218769788742
20.0,0.02386816404759884
22.0,0.02346506156027317
24.0,0.023073790594935417
26.0,0.022669976577162743
28.0,0.022269437089562416
30.0,0.021884050220251083
32.0,0.021505335345864296
36.0,0.02081240713596344
40.0,0.020186681300401688
44.0,0.019593052566051483
48.0,0.01900816336274147
52.0,0.01843453198671341
56.0,0.017902959138154984
60.0,0.01742313802242279
64.0,0.01696942374110222
72.0,0.016113251447677612
80.0,0.0153327826410532
88.0,0.014665440656244755
96.0,0.01408905629068613
104.0,0.013633490540087223
112.0,0.01316574215888977
120.0,0.012641885317862034
128.0,0.012054799124598503
144.0,0.010916213504970074
160.0,0.00991947203874588
176.0,0.009162516333162785
192.0,0.008496148511767387
208.0,0.007818194106221199
224.0,0.007062813267111778
240.0,0.0064524575136601925
256.0,0.005775120109319687
288.0,0.0039595142006874084
320.0,0.002899619983509183
352.0,0.0027050881180912256
384.0,0.0028569779824465513
416.0,0.003296748036518693
448.0,0.0034870230592787266
480.0,0.003680806839838624
512.0,0.003538965480402112
576.0,0.00327383354306221
640.0,0.0023954706266522408
704.0,5.4173258831724524e-05
768.0,-0.0019872328266501427
832.0,-0.003478401806205511
896.0,-0.00428153807297349
960.0,-0.00403232267126441
1024.0,-0.0038461063522845507
1152.0,-0.001937909983098507
1280.0,-0.00032798812026157975
1408.0,-0.001312935957685113
1536.0,-0.001856532646343112
1664.0,-0.00020282692275941372
1792.0,0.002427776111289859
1920.0,0.005202470347285271
2048.0,0.005096001550555229
2304.0,0.005848498083651066
2560.0,0.0019792260136455297
2816.0,-0.0002869715099222958
3072.0,-0.0041104890406131744
3328.0,-0.0036246953532099724
3584.0,-0.0036859808024019003
3840.0,-0.0039509437046945095
4096.0,0.0010145229753106833
4608.0,0.0015277735656127334
5120.0,0.0005977776017971337
5632.0,-0.0015342842089012265
6144.0,0.000523270748089999
6656.0,0.00668882392346859
7168.0,-0.00043896029819734395
7680.0,-0.003256128402426839
8192.0,-0.00027732839225791395
end
