version,3.0
numOfCh,1
type,point
parent_name,714af_0dot08-0dot01
ch_type,1_1
kcount,1
numberNandB,1
brightnessNandB,1
carpet pos,0
pc,0
Time (ms),CH1 Auto-Correlation
1.0,0.03632424399256706
2.0,0.03607429563999176
3.0,0.03582625091075897
4.0,0.035578154027462006
5.0,0.035336561501026154
6.0,0.03510338068008423
7.0,0.03487027809023857
8.0,0.034642867743968964
9.0,0.03441845253109932
10.0,0.03419451788067818
11.0,0.03397388011217117
12.0,0.03375830501317978
13.0,0.03354477137327194
14.0,0.03332856670022011
15.0,0.03311562538146973
16.0,0.03291239216923714
18.0,0.032530538737773895
20.0,0.032163191586732864
22.0,0.031795427203178406
24.0,0.031422074884176254
26.0,0.031052060425281525
28.0,0.030690599232912064
30.0,0.030350450426340103
32.0,0.03002343326807022
36.0,0.02940852753818035
40.0,0.028838858008384705
44.0,0.02828758768737316
48.0,0.02773384563624859
52.0,0.027191506698727608
56.0,0.026661459356546402
60.0,0.026151468977332115
64.0,0.02562836930155754
72.0,0.024633469060063362
80.0,0.02373892068862915
88.0,0.02297709695994854
96.0,0.02231505885720253
104.0,0.021633194759488106
112.0,0.020856747403740883
120.0,0.020102905109524727
128.0,0.019423406571149826
144.0,0.018344027921557426
160.0,0.017609424889087677
176.0,0.0169780682772398
192.0,0.01614714041352272
208.0,0.015405467711389065
224.0,0.01457639504224062
240.0,0.013735060580074787
256.0,0.01305512897670269
288.0,0.012411203235387802
320.0,0.011707579717040062
352.0,0.011087477207183838
384.0,0.010112395510077477
416.0,0.008952628821134567
448.0,0.008676422759890556
480.0,0.008379463106393814
512.0,0.00864000990986824
576.0,0.008453215472400188
640.0,0.007129105273634195
704.0,0.006256123539060354
768.0,0.006892981007695198
832.0,0.0077530862763524055
896.0,0.008547608740627766
960.0,0.007411028258502483
1024.0,0.005984079092741013
1152.0,0.0042169648222625256
1280.0,0.0017406244296580553
1408.0,0.001245183520950377
1536.0,-0.0018115382408723235
1664.0,-0.0023079817183315754
1792.0,-0.00010357703285990283
1920.0,0.00024168225354515016
2048.0,-0.0026839582715183496
2304.0,-0.0046325912699103355
2560.0,-0.005539251491427422
2816.0,-0.004474582150578499
3072.0,-0.004477253649383783
3328.0,-0.0027453701477497816
3584.0,-0.003185718785971403
3840.0,0.001968839205801487
4096.0,0.006899512372910976
4608.0,0.0026522264815866947
5120.0,0.002286066533997655
5632.0,-0.005629350431263447
6144.0,-0.00706475879997015
6656.0,-0.0135987913236022
7168.0,-0.010362144559621811
7680.0,-0.006558504421263933
8192.0,0.0027293884195387363
end
