version,3.0
numOfCh,1
type,point
parent_name,714af_0dot08-0dot01
ch_type,1_1
kcount,1
numberNandB,1
brightnessNandB,1
carpet pos,0
pc,0
Time (ms),CH1 Auto-Correlation
1.0,0.03299912437796593
2.0,0.03272342309355736
3.0,0.032442398369312286
4.0,0.03217385709285736
5.0,0.03191487491130829
6.0,0.03165796771645546
7.0,0.031408585608005524
8.0,0.031165041029453278
9.0,0.030923493206501007
10.0,0.030683008953928947
11.0,0.030443117022514343
12.0,0.03019508719444275
13.0,0.029947027564048767
14.0,0.02970363199710846
15.0,0.029464993625879288
16.0,0.029234936460852623
18.0,0.028767501935362816
20.0,0.028316406533122063
22.0,0.027888743206858635
24.0,0.027479274198412895
26.0,0.027084102854132652
28.0,0.026702994480729103
30.0,0.02632678858935833
32.0,0.02595696412026882
36.0,0.025264183059334755
40.0,0.02460070699453354
44.0,0.02394201047718525
48.0,0.023311471566557884
52.0,0.022708959877490997
56.0,0.022126516327261925
60.0,0.021581245586276054
64.0,0.021085552871227264
72.0,0.02015782706439495
80.0,0.019212067127227783
88.0,0.018389511853456497
96.0,0.017558608204126358
104.0,0.016775421798229218
112.0,0.016038719564676285
120.0,0.015367819927632809
128.0,0.014776733703911304
144.0,0.014067012816667557
160.0,0.013430717401206493
176.0,0.01256395224481821
192.0,0.01153993234038353
208.0,0.010283922776579857
224.0,0.008855441585183144
240.0,0.00765372347086668
256.0,0.006770208943635225
288.0,0.004712603520601988
320.0,0.002860813634470105
352.0,0.0023378399200737476
384.0,0.0026642659213393927
416.0,0.0029104577843099833
448.0,0.0026997376699000597
480.0,0.0016415135469287634
512.0,0.0006571364356204867
576.0,0.0003162306093145162
640.0,0.0013297746190801263
704.0,0.0012983463238924742
768.0,0.002466116566210985
832.0,0.0041037192568182945
896.0,0.004822942428290844
960.0,0.004293511621654034
1024.0,0.0048998259007930756
1152.0,0.006727505475282669
1280.0,0.008407038636505604
1408.0,0.01034722849726677
1536.0,0.007844976149499416
1664.0,0.005755495745688677
1792.0,0.004774673841893673
1920.0,0.0035907027777284384
2048.0,-0.0002787024714052677
2304.0,-0.004284230526536703
2560.0,-0.0008265968644991517
2816.0,9.267288260161877e-05
3072.0,-0.000706886756233871
3328.0,0.0007847046363167465
3584.0,-0.0074295117519795895
3840.0,-0.00863702967762947
4096.0,-0.010391268879175186
4608.0,-0.0007189493626356125
5120.0,-0.008486262522637844
5632.0,-0.005764338653534651
6144.0,0.0018077233107760549
6656.0,-0.006531654391437769
7168.0,-1.0546096746111289e-05
7680.0,-0.0007679034606553614
8192.0,0.000287678703898564
end
