version,3.0
numOfCh,1
type,point
parent_name,714af_0dot08-0dot01
ch_type,1_1
kcount,1
numberNandB,1
brightnessNandB,1
carpet pos,0
pc,0
Time (ms),CH1 Auto-Correlation
1.0,0.03883416950702667
2.0,0.038539789617061615
3.0,0.03825943544507027
4.0,0.03798595815896988
5.0,0.037716761231422424
6.0,0.037441082298755646
7.0,0.03717057779431343
8.0,0.036909036338329315
9.0,0.03663615509867668
10.0,0.03636620566248894
11.0,0.03609741851687431
12.0,0.03582518920302391
13.0,0.03555944189429283
14.0,0.035309236496686935
15.0,0.03506752476096153
16.0,0.03481864556670189
18.0,0.03433628007769585
20.0,0.03386460244655609
22.0,0.0333932563662529
24.0,0.032942116260528564
26.0,0.03251023218035698
28.0,0.03210027888417244
30.0,0.03171433508396149
32.0,0.03133254870772362
36.0,0.03061552904546261
40.0,0.029879573732614517
44.0,0.029192842543125153
48.0,0.028598861768841743
52.0,0.028055043891072273
56.0,0.027573714032769203
60.0,0.027086930349469185
64.0,0.026573969051241875
72.0,0.025638503953814507
80.0,0.02481207251548767
88.0,0.02399318292737007
96.0,0.023132650181651115
104.0,0.02222389727830887
112.0,0.021441979333758354
120.0,0.0207555890083313
128.0,0.020175302401185036
144.0,0.019239205867052078
160.0,0.018261386081576347
176.0,0.017226966097950935
192.0,0.016095686703920364
208.0,0.014760656282305717
224.0,0.013365999795496464
240.0,0.012231132946908474
256.0,0.011031217873096466
288.0,0.008730419911444187
320.0,0.0067339930683374405
352.0,0.005609847605228424
384.0,0.00487898476421833
416.0,0.005265697371214628
448.0,0.004991065710783005
480.0,0.004490226041525602
512.0,0.00407647667452693
576.0,0.0034619115758687258
640.0,0.0029842883814126253
704.0,0.0020602508448064327
768.0,0.0003894637920893729
832.0,0.00023524253629148006
896.0,-0.0007104628602974117
960.0,-0.003996496554464102
1024.0,-0.007399584632366896
1152.0,-0.009191478602588177
1280.0,-0.008540788665413857
1408.0,-0.004156740382313728
1536.0,-0.0014133908553048968
1664.0,-0.0012336393119767308
1792.0,-0.0012335097417235374
1920.0,0.00022610696032643318
2048.0,0.004442040342837572
2304.0,0.006011345889419317
2560.0,0.002584909787401557
2816.0,-0.0064583285711705685
3072.0,-0.01278217975050211
3328.0,-0.013086093589663506
3584.0,-0.005407553631812334
3840.0,-0.004071501083672047
4096.0,0.0007183563429862261
4608.0,0.004316565580666065
5120.0,-0.00048146757762879133
5632.0,-0.002804877469316125
6144.0,0.0076910704374313354
6656.0,-0.0018805175786837935
7168.0,0.005820014048367739
7680.0,-0.0016261815326288342
8192.0,-0.0016087066615000367
end
