version,3.0
numOfCh,1
type,point
parent_name,714af_0dot08-0dot01
ch_type,1_1
kcount,1
numberNandB,1
brightnessNandB,1
carpet pos,0
pc,0
Time (ms),CH1 Auto-Correlation
1.0,0.03369474038481712
2.0,0.033436670899391174
3.0,0.033186331391334534
4.0,0.03293871879577637
5.0,0.03269654139876366
6.0,0.03245403990149498
7.0,0.03220811486244202
8.0,0.03196730837225914
9.0,0.031724441796541214
10.0,0.03148860111832619
11.0,0.03126233071088791
12.0,0.03103499487042427
13.0,0.03082001395523548
14.0,0.03060043230652809
15.0,0.030381284654140472
16.0,0.030173378065228462
18.0,0.02978266216814518
20.0,0.02942127175629139
22.0,0.029072703793644905
24.0,0.02874532714486122
26.0,0.02844550460577011
28.0,0.028146475553512573
30.0,0.027862196788191795
32.0,0.02758091688156128
36.0,0.02705543488264084
40.0,0.026561899110674858
44.0,0.02609001100063324
48.0,0.02566548064351082
52.0,0.025272510945796967
56.0,0.024933019652962685
60.0,0.02460114285349846
64.0,0.02422366663813591
72.0,0.023498930037021637
80.0,0.022856658324599266
88.0,0.02230791375041008
96.0,0.02176310308277607
104.0,0.021161993965506554
112.0,0.020568987354636192
120.0,0.020054146647453308
128.0,0.019544417038559914
144.0,0.018647123128175735
160.0,0.018006693571805954
176.0,0.017468327656388283
192.0,0.017054585739970207
208.0,0.01658310927450657
224.0,0.01597731001675129
240.0,0.01552837248891592
256.0,0.014994125813245773
288.0,0.014084776863455772
320.0,0.013055933639407158
352.0,0.011883819475769997
384.0,0.010708069428801537
416.0,0.009185664355754852
448.0,0.007839968428015709
480.0,0.006816829554736614
512.0,0.006137937307357788
576.0,0.005800292361527681
640.0,0.004517414141446352
704.0,0.0032507791183888912
768.0,0.002748961327597499
832.0,0.0021364798303693533
896.0,0.001671900856308639
960.0,0.0011992765357717872
1024.0,0.0005633383407257497
1152.0,-0.0005447290022857487
1280.0,-0.001364322961308062
1408.0,-0.0012364683207124472
1536.0,-0.0008939431281760335
1664.0,-0.0012107174843549728
1792.0,-0.0020759531762450933
1920.0,-0.0028966921381652355
2048.0,-0.002396937692537904
2304.0,-0.0019280617125332355
2560.0,-0.0027370417956262827
2816.0,-0.0020562701392918825
3072.0,-0.0016020787879824638
3328.0,-0.0037567177787423134
3584.0,-0.004179826937615871
3840.0,-0.001300315372645855
4096.0,0.0015849140472710133
4608.0,0.0005936931702308357
5120.0,-0.0006282066460698843
5632.0,-0.0037731339689344168
6144.0,-0.007276506163179874
6656.0,-0.010079351253807545
7168.0,-0.010271702893078327
7680.0,-0.003967254422605038
8192.0,0.006625862326472998
end
