version,3.0
numOfCh,1
type,point
parent_name,714af_0dot08-0dot01
ch_type,1_1
kcount,1
numberNandB,1
brightnessNandB,1
carpet pos,0
pc,0
Time (ms),CH1 Auto-Correlation
1.0,0.03248937055468559
2.0,0.032229579985141754
3.0,0.031981244683265686
4.0,0.031739868223667145
5.0,0.03150082752108574
6.0,0.03127048909664154
7.0,0.03104071132838726
8.0,0.030813002958893776
9.0,0.0305833350867033
10.0,0.030357709154486656
11.0,0.030133452266454697
12.0,0.029914092272520065
13.0,0.029696699231863022
14.0,0.02947503887116909
15.0,0.029251011088490486
16.0,0.029036859050393105
18.0,0.02862725965678692
20.0,0.028221819549798965
22.0,0.02782074175775051
24.0,0.027417616918683052
26.0,0.027034712955355644
28.0,0.026658441871404648
30.0,0.02632555179297924
32.0,0.026018202304840088
36.0,0.025393186137080193
40.0,0.024793704971671104
44.0,0.024280114099383354
48.0,0.02380753867328167
52.0,0.023325910791754723
56.0,0.022815348580479622
60.0,0.02235608547925949
64.0,0.021926529705524445
72.0,0.02110743336379528
80.0,0.020293595269322395
88.0,0.019480424001812935
96.0,0.018732761964201927
104.0,0.018042804673314095
112.0,0.017367355525493622
120.0,0.016696356236934662
128.0,0.01606288179755211
144.0,0.015085357241332531
160.0,0.014265112578868866
176.0,0.013718314468860626
192.0,0.013648991473019123
208.0,0.013472425751388073
224.0,0.013043428771197796
240.0,0.01232818141579628
256.0,0.011719297617673874
288.0,0.010986299254000187
320.0,0.010154140181839466
352.0,0.009245263412594795
384.0,0.007867848500609398
416.0,0.006647608242928982
448.0,0.005518282763659954
480.0,0.0041505564004182816
512.0,0.002056111814454198
576.0,-0.0023108762688934803
640.0,-0.004275056533515453
704.0,-0.003175782272592187
768.0,-0.0015180677874013782
832.0,-0.0021865242160856724
896.0,-0.0034154218155890703
960.0,-0.0026436534244567156
1024.0,-0.0018923585303127766
1152.0,0.0016850765096023679
1280.0,0.002691144123673439
1408.0,0.0022765211760997772
1536.0,0.0012487564235925674
1664.0,-0.0006722509860992432
1792.0,-0.0019191070459783077
1920.0,-0.003179248422384262
2048.0,-0.003942729439586401
2304.0,-0.005495676305145025
2560.0,-0.0062001775950193405
2816.0,-0.004273177124559879
3072.0,0.0012113119009882212
3328.0,0.006529641337692738
3584.0,0.004683895036578178
3840.0,-0.00435633584856987
4096.0,-0.010993904434144497
4608.0,-0.0033973962999880314
5120.0,6.156192102935165e-05
5632.0,-0.005111142061650753
6144.0,0.002995046554133296
6656.0,0.00697200745344162
7168.0,-0.0009145722724497318
7680.0,-0.007361633703112602
8192.0,0.004842610098421574
end
