version,3.0
numOfCh,1
type,point
parent_name,714af_0dot08-0dot01
ch_type,1_1
kcount,1
numberNandB,1
brightnessNandB,1
carpet pos,0
pc,0
Time (ms),CH1 Auto-Correlation
1.0,0.03072167932987213
2.0,0.030457602813839912
3.0,0.030194319784641266
4.0,0.02994040586054325
5.0,0.029688110575079918
6.0,0.02943972498178482
7.0,0.02919098548591137
8.0,0.028948409482836723
9.0,0.028704632073640823
10.0,0.028462132439017296
11.0,0.02823041006922722
12.0,0.02800196409225464
13.0,0.02778325229883194
14.0,0.027573397383093834
15.0,0.02736734040081501
16.0,0.027166828513145447
18.0,0.02677147276699543
20.0,0.026378333568572998
22.0,0.025997357442975044
24.0,0.025624960660934448
26.0,0.025260189548134804
28.0,0.024897102266550064
30.0,0.024544905871152878
32.0,0.024207934737205505
36.0,0.023581786081194878
40.0,0.02299410291016102
44.0,0.02243601530790329
48.0,0.021919308230280876
52.0,0.021432548761367798
56.0,0.020958418026566505
60.0,0.02054113708436489
64.0,0.020198678597807884
72.0,0.019480353221297264
80.0,0.018759824335575104
88.0,0.018036354333162308
96.0,0.017369326204061508
104.0,0.016795292496681213
112.0,0.01639234460890293
120.0,0.015982629731297493
128.0,0.015609778463840485
144.0,0.014854306355118752
160.0,0.014107161201536655
176.0,0.013355957344174385
192.0,0.012764650397002697
208.0,0.012050298042595387
224.0,0.01112718041986227
240.0,0.010263647884130478
256.0,0.009422903880476952
288.0,0.008478878997266293
320.0,0.008137241005897522
352.0,0.007777286693453789
384.0,0.007073473650962114
416.0,0.00618455046787858
448.0,0.0053894175216555595
480.0,0.0049816337414085865
512.0,0.004356753546744585
576.0,0.004464508965611458
640.0,0.004512763116508722
704.0,0.004826318006962538
768.0,0.005426580552011728
832.0,0.004885764792561531
896.0,0.0051826233975589275
960.0,0.006202667485922575
1024.0,0.005463914014399052
1152.0,0.005233454518020153
1280.0,0.0036324511747807264
1408.0,0.0022014393471181393
1536.0,0.0007829496171325445
1664.0,0.001128142117522657
1792.0,0.0012211512075737119
1920.0,0.0002636586723383516
2048.0,0.00027480951393954456
2304.0,-0.00018678225751500577
2560.0,-0.0011428268626332283
2816.0,-0.0021014215890318155
3072.0,-0.0015867665642872453
3328.0,0.0003509321832098067
3584.0,-0.002359182108193636
3840.0,-0.004393043927848339
4096.0,-0.002143768360838294
4608.0,-0.00672159856185317
5120.0,-0.007996959611773491
5632.0,-0.005243018269538879
6144.0,-0.00584468012675643
6656.0,0.000188366902875714
7168.0,0.0020233376417309046
7680.0,0.00463560177013278
8192.0,0.005452909506857395
end
