version,3.0
numOfCh,1
type,point
parent_name,714af_0dot08-0dot01
ch_type,1_1
kcount,1
numberNandB,1
brightnessNandB,1
carpet pos,0
pc,0
Time (ms),CH1 Auto-Correlation
1.0,0.04669548571109772
2.0,0.04643922299146652
3.0,0.04619108512997627
4.0,0.045945629477500916
5.0,0.04570196196436882
6.0,0.045466888695955276
7.0,0.04523538425564766
8.0,0.04500323906540871
9.0,0.04477769508957863
10.0,0.04455765709280968
11.0,0.04433445632457733
12.0,0.044119637459516525
13.0,0.04390129819512367
14.0,0.04367760568857193
15.0,0.04345237836241722
16.0,0.04322139546275139
18.0,0.04277485981583595
20.0,0.04233548417687416
22.0,0.04189659655094147
24.0,0.04145902395248413
26.0,0.04105732589960098
28.0,0.04068639501929283
30.0,0.04032471030950546
32.0,0.0399709977209568
36.0,0.0392453558743
40.0,0.03855321183800697
44.0,0.037888847291469574
48.0,0.037212539464235306
52.0,0.036569979041814804
56.0,0.03596574813127518
60.0,0.03541040048003197
64.0,0.03486894071102142
72.0,0.033875513821840286
80.0,0.03297986462712288
88.0,0.03217353671789169
96.0,0.031372278928756714
104.0,0.030533872544765472
112.0,0.029725659638643265
120.0,0.028985515236854553
128.0,0.028320161625742912
144.0,0.026882359758019447
160.0,0.025541037321090698
176.0,0.024546591565012932
192.0,0.023677978664636612
208.0,0.022740386426448822
224.0,0.021959811449050903
240.0,0.021358631551265717
256.0,0.02089654840528965
288.0,0.019986407831311226
320.0,0.018971296027302742
352.0,0.01800757646560669
384.0,0.016675129532814026
416.0,0.015107188373804092
448.0,0.013281414285302162
480.0,0.011661136522889137
512.0,0.010684107430279255
576.0,0.008989769965410233
640.0,0.007965054363012314
704.0,0.006342469714581966
768.0,0.005852943751960993
832.0,0.0070340596139431
896.0,0.00783497467637062
960.0,0.00818679854273796
1024.0,0.007072568405419588
1152.0,0.0046333810314536095
1280.0,0.004422685597091913
1408.0,0.003369441954419017
1536.0,0.004374580457806587
1664.0,0.006081636995077133
1792.0,0.005357509478926659
1920.0,0.0061687808483839035
2048.0,0.0016644304851070046
2304.0,-0.0013184292474761605
2560.0,9.867747576208785e-05
2816.0,0.0032282539177685976
3072.0,0.002111804438754916
3328.0,-0.0007752141100354493
3584.0,-0.0008396669873036444
3840.0,0.00023635756224393845
4096.0,0.0014491821639239788
4608.0,0.002608479931950569
5120.0,5.5629079724894837e-05
5632.0,-0.0030082911252975464
6144.0,-0.017379967495799065
6656.0,-0.02153009921312332
7168.0,-0.013899177312850952
7680.0,-0.01894167996942997
8192.0,-0.014698258601129055
end
