version,3.0
numOfCh,1
type,point
parent_name,714af_0dot08-0dot01
ch_type,1_1
kcount,1
numberNandB,1
brightnessNandB,1
carpet pos,0
pc,0
Time (ms),CH1 Auto-Correlation
1.0,0.03616340085864067
2.0,0.03589274734258652
3.0,0.03561999648809433
4.0,0.03535759821534157
5.0,0.03510212525725365
6.0,0.034847356379032135
7.0,0.034593503922224045
8.0,0.034337908029556274
9.0,0.03408990800380707
10.0,0.033836282789707184
11.0,0.033586591482162476
12.0,0.03334784880280495
13.0,0.033118028193712234
14.0,0.032900430262088776
15.0,0.032682210206985474
16.0,0.03247104957699776
18.0,0.03204607963562012
20.0,0.03163185715675354
22.0,0.031245384365320206
24.0,0.03087444230914116
26.0,0.0305129736661911
28.0,0.030153006315231323
30.0,0.02980872243642807
32.0,0.029488403350114822
36.0,0.02891402505338192
40.0,0.028393764048814774
44.0,0.027875598520040512
48.0,0.02736165188252926
52.0,0.026875903829932213
56.0,0.0264291949570179
60.0,0.02600269205868244
64.0,0.02556014619767666
72.0,0.024593215435743332
80.0,0.023660413920879364
88.0,0.022790508344769478
96.0,0.022074822336435318
104.0,0.021463332697749138
112.0,0.02090895175933838
120.0,0.020336661487817764
128.0,0.019752362743020058
144.0,0.018585296347737312
160.0,0.017523856833577156
176.0,0.01655242033302784
192.0,0.015601025894284248
208.0,0.014832548797130585
224.0,0.014314521104097366
240.0,0.01382959634065628
256.0,0.013197831809520721
288.0,0.011988070793449879
320.0,0.009871616959571838
352.0,0.008181896060705185
384.0,0.007445970084518194
416.0,0.00800244603306055
448.0,0.008431174792349339
480.0,0.008353766985237598
512.0,0.008097180165350437
576.0,0.006641667801886797
640.0,0.005440466571599245
704.0,0.005454761441797018
768.0,0.004877294413745403
832.0,0.005430194083601236
896.0,0.006125989370048046
960.0,0.006471187341958284
1024.0,0.00690146628767252
1152.0,0.008741500787436962
1280.0,0.00835522823035717
1408.0,0.008186672814190388
1536.0,0.004457006696611643
1664.0,0.0007297712145373225
1792.0,-0.001936462358571589
1920.0,-0.0023294296115636826
2048.0,-0.0015535225393250585
2304.0,-0.004624199587851763
2560.0,-0.007931387051939964
2816.0,-0.008245768025517464
3072.0,-0.01042289286851883
3328.0,-0.010981793515384197
3584.0,-0.010600270703434944
3840.0,-0.009955697692930698
4096.0,-0.010630694217979908
4608.0,-0.006819450296461582
5120.0,-0.003932859282940626
5632.0,-0.0034033216070383787
6144.0,0.004139564465731382
6656.0,0.002969569992274046
7168.0,0.0035072893369942904
7680.0,0.012603553012013435
8192.0,0.004318347200751305
end
