version,3.0
numOfCh,1
type,point
parent_name,714af_0dot08-0dot01
ch_type,1_1
kcount,1
numberNandB,1
brightnessNandB,1
carpet pos,0
pc,0
Time (ms),CH1 Auto-Correlation
1.0,0.05987273156642914
2.0,0.058642931282520294
3.0,0.057424020022153854
4.0,0.05619325861334801
5.0,0.05506783723831177
6.0,0.0538363978266716
7.0,0.0526433140039444
8.0,0.05140044167637825
9.0,0.050305016338825226
10.0,0.04922718554735184
11.0,0.047997381538152695
12.0,0.04681575298309326
13.0,0.04562065005302429
14.0,0.04452604427933693
15.0,0.043348316103219986
16.0,0.042181842029094696
18.0,0.03976094722747803
20.0,0.03926226869225502
22.0,0.03880201280117035
24.0,0.03839048370718956
26.0,0.037989579141139984
28.0,0.03756802901625633
30.0,0.03716377541422844
32.0,0.03678954765200615
36.0,0.0360063761472702
40.0,0.03526931256055832
44.0,0.034385573118925095
48.0,0.03345799446105957
52.0,0.03252636268734932
56.0,0.031662508845329285
60.0,0.030886415392160416
64.0,0.03027978539466858
72.0,0.02972470037639141
80.0,0.02869502641260624
88.0,0.027647225186228752
96.0,0.026527462527155876
104.0,0.02538318559527397
112.0,0.0244489386677742
120.0,0.02383967489004135
128.0,0.02359425276517868
144.0,0.023246755823493004
160.0,0.022289473563432693
176.0,0.021682968363165855
192.0,0.02133065275847912
208.0,0.02099723555147648
224.0,0.020588940009474754
240.0,0.020701734349131584
256.0,0.0208455640822649
288.0,0.020809652283787727
320.0,0.02023167908191681
352.0,0.019700778648257256
384.0,0.018909236416220665
416.0,0.018143555149435997
448.0,0.01719769835472107
480.0,0.01622852496802807
512.0,0.015073725022375584
576.0,0.015615889802575111
640.0,0.016038695350289345
704.0,0.01704326830804348
768.0,0.0171942338347435
832.0,0.015556073747575283
896.0,0.014754056930541992
960.0,0.01650373265147209
1024.0,0.018357178196310997
1152.0,0.016363278031349182
1280.0,0.014670132659375668
1408.0,0.013526661321520805
1536.0,0.011863363906741142
1664.0,0.010407168418169022
1792.0,0.008698618970811367
1920.0,0.006549473851919174
2048.0,0.002778359455987811
2304.0,-0.0005009705782867968
2560.0,-0.002950085327029228
2816.0,-0.007842733524739742
3072.0,-0.01264840830117464
3328.0,-0.011767164804041386
3584.0,-0.01441379263997078
3840.0,-0.0180800948292017
4096.0,-0.02189522795379162
4608.0,-0.018769152462482452
5120.0,-0.02087576873600483
5632.0,-0.018338752910494804
6144.0,-0.01282946765422821
6656.0,-0.010111607611179352
7168.0,-0.007241897750645876
7680.0,-0.003093537176027894
8192.0,0.005647322162985802
end
