version,3.0
numOfCh,1
type,point
parent_name,484af_0dot6-1dot0
ch_type,1_1
kcount,1
numberNandB,1
brightnessNandB,1
carpet pos,0
pc,0
Time (ms),CH1 Auto-Correlation
1.0,0.05034821107983589
2.0,0.0479871965944767
3.0,0.04589034244418144
4.0,0.04400652274489403
5.0,0.04222696274518967
6.0,0.04063722491264343
7.0,0.03927316516637802
8.0,0.038016319274902344
9.0,0.03690514340996742
10.0,0.03589364141225815
11.0,0.03491043671965599
12.0,0.033947352319955826
13.0,0.03305795043706894
14.0,0.03229023888707161
15.0,0.031496625393629074
16.0,0.030796591192483902
18.0,0.02962188422679901
20.0,0.028415238484740257
22.0,0.027230028063058853
24.0,0.026083115488290787
26.0,0.02512989565730095
28.0,0.024246497079730034
30.0,0.0233490988612175
32.0,0.02244359813630581
36.0,0.02117329090833664
40.0,0.020325593650341034
44.0,0.01924644224345684
48.0,0.018129847943782806
52.0,0.01729946956038475
56.0,0.016872666776180267
60.0,0.01681283302605152
64.0,0.01643214374780655
72.0,0.015499912202358246
80.0,0.014741293154656887
88.0,0.014322241768240929
96.0,0.013613984920084476
104.0,0.013300953432917595
112.0,0.013049319386482239
120.0,0.01283444557338953
128.0,0.012525097467005253
144.0,0.011320926249027252
160.0,0.0107799107208848
176.0,0.010345890186727047
192.0,0.009131228551268578
208.0,0.007232067175209522
224.0,0.005104914307594299
240.0,0.004336891230195761
256.0,0.004835032857954502
288.0,0.004335281904786825
320.0,0.004234791733324528
352.0,0.0054870001040399075
384.0,0.004866839852184057
416.0,0.004341325722634792
448.0,0.002897596452385187
480.0,0.0013264435110613704
512.0,0.00047821886255405843
576.0,0.002296742983162403
640.0,-0.00042124566971324384
704.0,-0.0016679137479513884
768.0,-0.0041156066581606865
832.0,-0.005899502895772457
896.0,-0.006422976963222027
960.0,-0.006299213040620089
1024.0,-0.005040992517024279
1152.0,-0.005043085664510727
1280.0,-0.0022557363845407963
1408.0,-0.002818629378452897
1536.0,-0.0034615600015968084
1664.0,0.00032870113500393927
1792.0,0.002634297125041485
1920.0,0.0032963240519165993
2048.0,0.0032037219498306513
2304.0,0.0035135315265506506
2560.0,0.0037508634850382805
2816.0,-0.0004584529669955373
3072.0,-0.002297487808391452
3328.0,-0.004603811074048281
3584.0,-0.005009527783840895
3840.0,-0.0028095643501728773
4096.0,0.001376202329993248
4608.0,0.0038221506401896477
5120.0,-0.00238640233874321
5632.0,-0.007672526407986879
6144.0,-0.0012572691775858402
6656.0,0.004359114449471235
7168.0,0.001585543155670166
7680.0,-0.006752608343958855
8192.0,-0.0006256367778405547
end
