version,3.0
numOfCh,1
type,point
parent_name,484af_0dot6-1dot0
ch_type,1_1
kcount,1
numberNandB,1
brightnessNandB,1
carpet pos,0
pc,0
Time (ms),CH1 Auto-Correlation
1.0,0.04509491100907326
2.0,0.04273732006549835
3.0,0.04060326889157295
4.0,0.03864607959985733
5.0,0.036931246519088745
6.0,0.035349324345588684
7.0,0.03378881886601448
8.0,0.03236348554491997
9.0,0.031014101579785347
10.0,0.02978755347430706
11.0,0.02860892191529274
12.0,0.02739577926695347
13.0,0.02630743384361267
14.0,0.025290999561548233
15.0,0.02431752346456051
16.0,0.023434441536664963
18.0,0.021796584129333496
20.0,0.020415356382727623
22.0,0.01934429630637169
24.0,0.018320254981517792
26.0,0.017427437007427216
28.0,0.01669437438249588
30.0,0.016032710671424866
32.0,0.015396646223962307
36.0,0.014044360257685184
40.0,0.012635864317417145
44.0,0.01145322434604168
48.0,0.010156073607504368
52.0,0.008937307633459568
56.0,0.007926134392619133
60.0,0.006881454028189182
64.0,0.006204645149409771
72.0,0.005647727288305759
80.0,0.005248289089649916
88.0,0.004456722177565098
96.0,0.003665601136162877
104.0,0.003751310519874096
112.0,0.004314356483519077
120.0,0.004956730641424656
128.0,0.006001331843435764
144.0,0.006217086687684059
160.0,0.006068868562579155
176.0,0.0045440923422575
192.0,0.003379422938451171
208.0,0.003755690297111869
224.0,0.00443146750330925
240.0,0.004616838414222002
256.0,0.004851611331105232
288.0,0.0018901391886174679
320.0,0.0008566778851673007
352.0,0.0032199847046285868
384.0,0.004937598016113043
416.0,0.005993126891553402
448.0,0.004047947470098734
480.0,0.0030312773305922747
512.0,0.003473019925877452
576.0,0.0011394391767680645
640.0,0.0007812971598468721
704.0,-0.0011340040946379304
768.0,0.0019959930796176195
832.0,-0.0009938499424606562
896.0,-0.0005324792000465095
960.0,0.0015423265285789967
1024.0,0.0019051812123507261
1152.0,-0.0010918959742411971
1280.0,-0.0013864641077816486
1408.0,6.84509941493161e-05
1536.0,-0.0005333416047506034
1664.0,-0.002393348840996623
1792.0,-0.001517765922471881
1920.0,-0.001643856056034565
2048.0,-0.0016954198945313692
2304.0,-0.0018279221840202808
2560.0,-0.0009907898493111134
2816.0,-0.0024426409509032965
3072.0,-0.0023880046792328358
3328.0,-0.0008698711171746254
3584.0,-0.00034531342680566013
3840.0,-0.000325612083543092
4096.0,-0.0023014694452285767
4608.0,-0.00124268454965204
5120.0,-0.0005415662890300155
5632.0,0.0018160727340728045
6144.0,0.00019394076662138104
6656.0,-0.0004909765557385981
7168.0,0.0011032192269340158
7680.0,0.0021710677538067102
8192.0,0.001998070627450943
end
