version,3.0
numOfCh,1
type,point
parent_name,484af_0dot6-1dot0
ch_type,1_1
kcount,1
numberNandB,1
brightnessNandB,1
carpet pos,0
pc,0
Time (ms),CH1 Auto-Correlation
1.0,0.047250114381313324
2.0,0.04486103728413582
3.0,0.042769983410835266
4.0,0.04091714695096016
5.0,0.03919277712702751
6.0,0.03769265487790108
7.0,0.03627438470721245
8.0,0.03492582589387894
9.0,0.03372768685221672
10.0,0.032583653926849365
11.0,0.03154578432440758
12.0,0.03055768646299839
13.0,0.029610060155391693
14.0,0.028746046125888824
15.0,0.02788376249372959
16.0,0.027130046859383583
18.0,0.025663409382104874
20.0,0.02440892718732357
22.0,0.023339152336120605
24.0,0.02240382879972458
26.0,0.021472400054335594
28.0,0.020633753389120102
30.0,0.01995479315519333
32.0,0.019315261393785477
36.0,0.018092559650540352
40.0,0.016890881583094597
44.0,0.015635870397090912
48.0,0.014468644745647907
52.0,0.013486785814166069
56.0,0.012827355414628983
60.0,0.012338263913989067
64.0,0.011810302734375
72.0,0.010507049970328808
80.0,0.009560754522681236
88.0,0.008299412205815315
96.0,0.007356455083936453
104.0,0.00613380316644907
112.0,0.0057455445639789104
120.0,0.0049092574045062065
128.0,0.004105539061129093
144.0,0.0020657789427787066
160.0,0.0010818516602739692
176.0,0.00033132269163616
192.0,0.0008449354791082442
208.0,0.0012825689045712352
224.0,0.0011043892009183764
240.0,0.0006776560330763459
256.0,-0.0002837560314219445
288.0,-0.0010694239754229784
320.0,0.00036865597940050066
352.0,0.0007684692973271012
384.0,0.0001911544386530295
416.0,0.00038216597749851644
448.0,-0.0002330905117560178
480.0,0.0006928605725988746
512.0,-0.00082494254456833
576.0,-0.001610616804100573
640.0,0.0012669742573052645
704.0,0.002704941900447011
768.0,0.0014144888846203685
832.0,0.0017436256166547537
896.0,0.002235575346276164
960.0,9.90988191915676e-05
1024.0,-0.00043008869397453964
1152.0,-0.0006376635283231735
1280.0,-0.00264326436445117
1408.0,-0.0028543821536004543
1536.0,-0.0031251502223312855
1664.0,-0.0005657572764903307
1792.0,-0.000550706114154309
1920.0,-0.0023961965925991535
2048.0,-0.0020374732557684183
2304.0,-0.0020518170204013586
2560.0,0.0007228567264974117
2816.0,0.0002515202504582703
3072.0,0.0018108882941305637
3328.0,0.003823862411081791
3584.0,0.0030241275671869516
3840.0,0.00011395658657420427
4096.0,-0.0010781384771689773
4608.0,0.0003821053833235055
5120.0,-0.0016388633521273732
5632.0,-0.002483043121173978
6144.0,-4.58454160252586e-05
6656.0,0.0002792845480144024
7168.0,-0.0005773474113084376
7680.0,0.0027806214056909084
8192.0,-0.0003486109199002385
end
