version,3.0
numOfCh,1
type,point
parent_name,484af_0dot6-1dot0
ch_type,1_1
kcount,1
numberNandB,1
brightnessNandB,1
carpet pos,0
pc,0
Time (ms),CH1 Auto-Correlation
1.0,0.04193245619535446
2.0,0.039710864424705505
3.0,0.03769993782043457
4.0,0.03586868941783905
5.0,0.03424609825015068
6.0,0.03275827690958977
7.0,0.031408872455358505
8.0,0.03014172986149788
9.0,0.029006125405430794
10.0,0.027940407395362854
11.0,0.026958120986819267
12.0,0.026092566549777985
13.0,0.025263162329792976
14.0,0.024478904902935028
15.0,0.023724522441625595
16.0,0.022999372333288193
18.0,0.021641144528985023
20.0,0.020475834608078003
22.0,0.019406244158744812
24.0,0.01844342052936554
26.0,0.01760425977408886
28.0,0.016829650849103928
30.0,0.016140040010213852
32.0,0.01551247201859951
36.0,0.014090731739997864
40.0,0.013239297084510326
44.0,0.012693505734205246
48.0,0.011898611672222614
52.0,0.010702362284064293
56.0,0.009637651033699512
60.0,0.008833030238747597
64.0,0.008161347359418869
72.0,0.007430576719343662
80.0,0.006832733750343323
88.0,0.005325387232005596
96.0,0.003993767313659191
104.0,0.0035308513324707747
112.0,0.0037257259245961905
120.0,0.004118908662348986
128.0,0.004191356245428324
144.0,0.00317356176674366
160.0,0.002364909276366234
176.0,0.0028890036046504974
192.0,0.002123436192050576
208.0,0.0014915927313268185
224.0,0.0013966598780825734
240.0,0.0011977952672168612
256.0,0.001434051082469523
288.0,0.0013598573859781027
320.0,0.000165978170116432
352.0,0.0009783004643395543
384.0,0.003225752618163824
416.0,0.004354340955615044
448.0,0.003675671061500907
480.0,0.0018288011197000742
512.0,0.0002317123580724001
576.0,0.0036911480128765106
640.0,0.003208755049854517
704.0,0.002935097087174654
768.0,0.001795493415556848
832.0,0.0020901670213788748
896.0,0.0014570121420547366
960.0,0.0011501414701342583
1024.0,0.0021682968363165855
1152.0,0.0020024715922772884
1280.0,0.0032982206903398037
1408.0,-0.0007641277625225484
1536.0,0.0013315534451976418
1664.0,0.0002403968683211133
1792.0,-0.0003382884606253356
1920.0,-0.0019113601883873343
2048.0,-0.0011286978842690587
2304.0,-0.002828904427587986
2560.0,-0.0004505672841332853
2816.0,-0.0010142129613086581
3072.0,-0.0014291561674326658
3328.0,-0.0033673413563519716
3584.0,-0.0014565533492714167
3840.0,-0.0013729450292885303
4096.0,0.0008303337963297963
4608.0,-0.0015834487276151776
5120.0,-0.000787326309364289
5632.0,-0.001661348738707602
6144.0,-0.0010584945557639003
6656.0,-0.0006126585067249835
7168.0,-0.0006273656035773456
7680.0,0.0013212382327765226
8192.0,-0.0007737056585028768
end
