version,3.0
numOfCh,1
type,point
parent_name,484af_0dot6-1dot0
ch_type,1_1
kcount,1
numberNandB,1
brightnessNandB,1
carpet pos,0
pc,0
Time (ms),CH1 Auto-Correlation
1.0,0.04308971390128136
2.0,0.04081645980477333
3.0,0.03874346613883972
4.0,0.03687738627195358
5.0,0.03520821034908295
6.0,0.03368442878127098
7.0,0.032301969826221466
8.0,0.031065331771969795
9.0,0.029945608228445053
10.0,0.028976425528526306
11.0,0.02805943228304386
12.0,0.027187690138816833
13.0,0.026398388668894768
14.0,0.025588203221559525
15.0,0.024800259619951248
16.0,0.023991046473383904
18.0,0.02249998226761818
20.0,0.021119138225913048
22.0,0.02005576714873314
24.0,0.0191379114985466
26.0,0.018274597823619843
28.0,0.017441174015402794
30.0,0.016667505726218224
32.0,0.01597311906516552
36.0,0.014892706647515297
40.0,0.014039999805390835
44.0,0.013203773647546768
48.0,0.012384840287268162
52.0,0.01144870463758707
56.0,0.01053011417388916
60.0,0.009484696201980114
64.0,0.00857540126889944
72.0,0.007013955153524876
80.0,0.006226517725735903
88.0,0.005872739944607019
96.0,0.005960716865956783
104.0,0.005814868491142988
112.0,0.005304327234625816
120.0,0.004771963693201542
128.0,0.004543557297438383
144.0,0.0037863480392843485
160.0,0.002267301082611084
176.0,0.001603726646862924
192.0,0.0014308315003290772
208.0,0.0017516356892883778
224.0,0.0025464899372309446
240.0,0.003842300968244672
256.0,0.003925781697034836
288.0,0.0032714668195694685
320.0,0.0029306961223483086
352.0,0.00019276351667940617
384.0,-0.00036320197978056967
416.0,0.001061205635778606
448.0,0.0021524520125240088
480.0,0.001571466214954853
512.0,0.00045791719458065927
576.0,-0.0011407872661948204
640.0,-0.0011266865767538548
704.0,0.00035621310235001147
768.0,0.0006139246979728341
832.0,-0.0019393437542021275
896.0,-0.0004185941070318222
960.0,0.000892754178494215
1024.0,0.0032283638138324022
1152.0,0.0013016392476856709
1280.0,-0.00035992052289657295
1408.0,-0.0010182715486735106
1536.0,-0.0015975653659552336
1664.0,-0.0025086472742259502
1792.0,-0.0038632105570286512
1920.0,-0.005038077477365732
2048.0,-0.0009751235484145582
2304.0,-0.00220318092033267
2560.0,-0.0003683667746372521
2816.0,0.00016301996947731823
3072.0,-0.004291157703846693
3328.0,0.0005775555619038641
3584.0,0.0003389050834812224
3840.0,0.004994973540306091
4096.0,-0.001827455242164433
4608.0,0.0010308228665962815
5120.0,-0.0009442514274269342
5632.0,-0.0010509612038731575
6144.0,0.0016810252564027905
6656.0,-0.003129905089735985
7168.0,-0.0010734309908002615
7680.0,-0.0008927311864681542
8192.0,0.0028937419410794973
end
