version,3.0
numOfCh,1
type,point
parent_name,484af_0dot6-1dot0
ch_type,1_1
kcount,1
numberNandB,1
brightnessNandB,1
carpet pos,0
pc,0
Time (ms),CH1 Auto-Correlation
1.0,0.04134634882211685
2.0,0.03896951302886009
3.0,0.03687013313174248
4.0,0.0350215770304203
5.0,0.03334619104862213
6.0,0.031828440725803375
7.0,0.030444584786891937
8.0,0.029131921008229256
9.0,0.027926502749323845
10.0,0.026768019422888756
11.0,0.025705823674798012
12.0,0.02470174804329872
13.0,0.02382049895823002
14.0,0.023042917251586914
15.0,0.022309649735689163
16.0,0.021584805101156235
18.0,0.020272627472877502
20.0,0.019031904637813568
22.0,0.017770923674106598
24.0,0.016746975481510162
26.0,0.01596974954009056
28.0,0.01532281655818224
30.0,0.014700769446790218
32.0,0.014137541875243187
36.0,0.013348914682865143
40.0,0.012435989454388618
44.0,0.011611678637564182
48.0,0.010694531723856926
52.0,0.009660069830715656
56.0,0.008655103854835033
60.0,0.007745708804577589
64.0,0.007063484285026789
72.0,0.005306394770741463
80.0,0.004093775060027838
88.0,0.0037418408319354057
96.0,0.0033924076706171036
104.0,0.002531151520088315
112.0,0.0015391239430755377
120.0,0.0002699790638871491
128.0,-0.0005016418872401118
144.0,-0.0016098350752145052
160.0,-0.0020395887549966574
176.0,-0.002473020926117897
192.0,-0.0024217511527240276
208.0,-0.002355641918256879
224.0,-0.0021239183843135834
240.0,-0.0012754934141412377
256.0,0.00020854632020927966
288.0,0.0017444745171815157
320.0,0.0007298819255083799
352.0,-5.098209294374101e-05
384.0,0.001216564211063087
416.0,-0.00043214045581407845
448.0,-0.0017915855860337615
480.0,-0.002099460456520319
512.0,-0.003289999905973673
576.0,-0.0029669846408069134
640.0,-0.0003158277540933341
704.0,0.0013225955190137029
768.0,0.0012988412054255605
832.0,0.00028949961415492
896.0,-0.00038735740236006677
960.0,-0.0005135088576935232
1024.0,0.0013287010369822383
1152.0,0.0005057374364696443
1280.0,-0.00012296959175728261
1408.0,-0.00019805737247224897
1536.0,0.001442472217604518
1664.0,-0.0008343528024852276
1792.0,-0.002136643510311842
1920.0,-0.0014953773934394121
2048.0,-0.002158157527446747
2304.0,-0.0006712079048156738
2560.0,-0.0005085787270218134
2816.0,0.001231508795171976
3072.0,-0.0008094910881482065
3328.0,-0.001108599710278213
3584.0,0.002361574210226536
3840.0,0.0004890478448942304
4096.0,-0.0022827263455837965
4608.0,0.0005974794621579349
5120.0,0.0004679397097788751
5632.0,-0.0019392420072108507
6144.0,0.00029540882678702474
6656.0,-0.0005497679812833667
7168.0,-0.0010456909658387303
7680.0,0.0012342315167188644
8192.0,0.0008000826928764582
end
