version,3.0
numOfCh,1
type,point
parent_name,484af_0dot6-1dot0
ch_type,1_1
kcount,1
numberNandB,1
brightnessNandB,1
carpet pos,0
pc,0
Time (ms),CH1 Auto-Correlation
1.0,0.047315534204244614
2.0,0.04463693127036095
3.0,0.04237080737948418
4.0,0.040307220071554184
5.0,0.03843165934085846
6.0,0.036729082465171814
7.0,0.03523654118180275
8.0,0.03388700634241104
9.0,0.03262669965624809
10.0,0.03144015744328499
11.0,0.030361276119947433
12.0,0.029317937791347504
13.0,0.028368715196847916
14.0,0.027505798265337944
15.0,0.026638148352503777
16.0,0.025874672457575798
18.0,0.02442851848900318
20.0,0.023125894367694855
22.0,0.021940460428595543
24.0,0.02080048993229866
26.0,0.01969572715461254
28.0,0.018666571006178856
30.0,0.017961161211133003
32.0,0.01736411266028881
36.0,0.01610468327999115
40.0,0.015057540498673916
44.0,0.013922106474637985
48.0,0.01301466766744852
52.0,0.01180345006287098
56.0,0.010777384974062443
60.0,0.009955273009836674
64.0,0.009595341049134731
72.0,0.009266123175621033
80.0,0.008457055315375328
88.0,0.007459277752786875
96.0,0.00658964179456234
104.0,0.0057776328176259995
112.0,0.004980606026947498
120.0,0.00390746770426631
128.0,0.0030693127773702145
144.0,0.0025531237479299307
160.0,0.0026768583338707685
176.0,0.0026396121829748154
192.0,0.0010043774964287877
208.0,0.0011643030447885394
224.0,0.001432996359653771
240.0,0.0011846523266285658
256.0,0.0009692930616438389
288.0,-0.000551242264918983
320.0,-0.0016120660584419966
352.0,-0.0005050715408287942
384.0,0.00037797458935528994
416.0,-9.058535215444863e-05
448.0,-0.0008108984329737723
480.0,-0.001678664586506784
512.0,-0.0023642827291041613
576.0,-0.001267694286070764
640.0,-0.0021736077032983303
704.0,-0.0010356938000768423
768.0,0.0008240725146606565
832.0,0.00015411312051583081
896.0,0.002849332755431533
960.0,0.004727609921246767
1024.0,0.002920417580753565
1152.0,0.0014155458193272352
1280.0,-0.0008983701118268073
1408.0,-0.00452364282682538
1536.0,-0.003631147090345621
1664.0,0.0003782828280236572
1792.0,0.0018110207747668028
1920.0,0.0005150674260221422
2048.0,-0.0015073013491928577
2304.0,-0.0033089090138673782
2560.0,-0.002743877936154604
2816.0,-0.00041988978045992553
3072.0,0.0005494305514730513
3328.0,0.00044873778824694455
3584.0,0.00011032100155716762
3840.0,0.00125626299995929
4096.0,0.000829006137792021
4608.0,0.0025770976208150387
5120.0,-0.0007455747690983117
5632.0,-0.0012190892593935132
6144.0,-0.002355872420594096
6656.0,-0.002056692959740758
7168.0,0.0010606914293020964
7680.0,-0.0004348423099145293
8192.0,0.0002567186311352998
end
