version,3.0
numOfCh,1
type,point
parent_name,484af_0dot6-1dot0
ch_type,1_1
kcount,1
numberNandB,1
brightnessNandB,1
carpet pos,0
pc,0
Time (ms),CH1 Auto-Correlation
1.0,0.03995819762349129
2.0,0.037400975823402405
3.0,0.03518076613545418
4.0,0.03314286842942238
5.0,0.03126518055796623
6.0,0.029527924954891205
7.0,0.028050361201167107
8.0,0.02668534778058529
9.0,0.025371050462126732
10.0,0.024199731647968292
11.0,0.023088786751031876
12.0,0.02203185297548771
13.0,0.02108454331755638
14.0,0.02015971764922142
15.0,0.01933983899652958
16.0,0.018568433821201324
18.0,0.017153773456811905
20.0,0.015750786289572716
22.0,0.01448653731495142
24.0,0.013379186391830444
26.0,0.012451928108930588
28.0,0.011717597022652626
30.0,0.011025700718164444
32.0,0.01031961664557457
36.0,0.009137251414358616
40.0,0.008364366367459297
44.0,0.00790801178663969
48.0,0.007205855567008257
52.0,0.006228807847946882
56.0,0.00528556015342474
60.0,0.004727819934487343
64.0,0.0045021288096904755
72.0,0.004348100163042545
80.0,0.004076744429767132
88.0,0.0038323348853737116
96.0,0.0033100780565291643
104.0,0.0032918641809374094
112.0,0.003409121884033084
120.0,0.003528829198330641
128.0,0.0038210356142371893
144.0,0.0018079883884638548
160.0,-0.0003243022656533867
176.0,-0.0008173366077244282
192.0,-0.0003077892179135233
208.0,7.634275243617594e-05
224.0,-0.0002824933035299182
240.0,-0.0010564132826402783
256.0,-0.0017691573593765497
288.0,-0.0011266289511695504
320.0,-0.0009694932959973812
352.0,-0.0011529979528859258
384.0,-0.0019402100006118417
416.0,-0.0012582341441884637
448.0,-0.0005705010844394565
480.0,-0.00016376674466300756
512.0,0.0003135335573460907
576.0,0.0003296906070318073
640.0,0.0006169016705825925
704.0,0.00212863483466208
768.0,0.002106877276673913
832.0,0.0013312030350789428
896.0,0.0009571051923558116
960.0,0.0004000655026175082
1024.0,-0.0009244628599844873
1152.0,-0.0023225408513098955
1280.0,-0.0012646567774936557
1408.0,0.0009474053513258696
1536.0,0.002297415165230632
1664.0,0.00022749218624085188
1792.0,-0.0004584447597153485
1920.0,-0.0014870010782033205
2048.0,-0.0011825060937553644
2304.0,0.0016287307953462005
2560.0,-0.0018360033864155412
2816.0,-0.00030215189326554537
3072.0,0.0010305596515536308
3328.0,-0.0012289081932976842
3584.0,0.0006610743585042655
3840.0,0.0005598052521236241
4096.0,-0.0018711064476519823
4608.0,0.00024136774300131947
5120.0,-0.000179016322363168
5632.0,-0.001656253938563168
6144.0,0.0005251083639450371
6656.0,0.0003565308579709381
7168.0,-0.0008398839272558689
7680.0,0.000754315871745348
8192.0,-0.00018054767861030996
end
