version,3.0
numOfCh,1
type,point
parent_name,484af_0dot6-1dot0
ch_type,1_1
kcount,1
numberNandB,1
brightnessNandB,1
carpet pos,0
pc,0
Time (ms),CH1 Auto-Correlation
1.0,0.04351988434791565
2.0,0.04116986691951752
3.0,0.03899327293038368
4.0,0.03694896399974823
5.0,0.03510487452149391
6.0,0.033427391201257706
7.0,0.031989578157663345
8.0,0.030654001981019974
9.0,0.029360955581068993
10.0,0.02820601686835289
11.0,0.027122855186462402
12.0,0.02612566575407982
13.0,0.025235498324036598
14.0,0.024434005841612816
15.0,0.023635027930140495
16.0,0.02300068736076355
18.0,0.02174760401248932
20.0,0.020669234916567802
22.0,0.019739801064133644
24.0,0.018846802413463593
26.0,0.017896618694067
28.0,0.016972066834568977
30.0,0.016061080619692802
32.0,0.015279077924787998
36.0,0.013882978819310665
40.0,0.012664987705647945
44.0,0.011980177834630013
48.0,0.011695354245603085
52.0,0.011313004419207573
56.0,0.01075976062566042
60.0,0.010038599371910095
64.0,0.009446091949939728
72.0,0.008793792687356472
80.0,0.008721188642084599
88.0,0.009354854002594948
96.0,0.009363112971186638
104.0,0.00917492713779211
112.0,0.008059325627982616
120.0,0.007316308096051216
128.0,0.006867628078907728
144.0,0.0062979767099022865
160.0,0.006230032537132502
176.0,0.006727308500558138
192.0,0.0069905598647892475
208.0,0.0070577338337898254
224.0,0.005906156729906797
240.0,0.004243007395416498
256.0,0.003764583496376872
288.0,0.004158343188464642
320.0,0.0028740267734974623
352.0,0.002833643229678273
384.0,0.003941747825592756
416.0,0.0025746829342097044
448.0,0.002388048218563199
480.0,0.0029627052135765553
512.0,0.004002632573246956
576.0,0.003588795894756913
640.0,0.0025202634278684855
704.0,-0.00045624119229614735
768.0,-0.0018995743012055755
832.0,-0.0012613118160516024
896.0,-0.00034991814754903316
960.0,6.787560414522886e-05
1024.0,0.001411253004334867
1152.0,0.0023403961677104235
1280.0,0.001976494211703539
1408.0,0.0003966855292674154
1536.0,0.0009022089652717113
1664.0,0.0008583551389165223
1792.0,-0.0010470513952896
1920.0,-0.0036982835736125708
2048.0,-0.0033691455610096455
2304.0,-0.003891963278874755
2560.0,-0.0049160802736878395
2816.0,-0.003828617511317134
3072.0,-0.0031933102291077375
3328.0,-0.0019403882324695587
3584.0,-0.002256520092487335
3840.0,-0.0012015230022370815
4096.0,-0.0010950341820716858
4608.0,0.0016195722855627537
5120.0,0.005181996617466211
5632.0,0.0007864556973800063
6144.0,0.002208170248195529
6656.0,-8.762406650930643e-05
7168.0,-0.002869374817237258
7680.0,-0.002099380362778902
8192.0,-0.004558140877634287
end
