version,3.0
numOfCh,1
type,point
parent_name,484af_0dot6-1dot0
ch_type,1_1
kcount,1
numberNandB,1
brightnessNandB,1
carpet pos,0
pc,0
Time (ms),CH1 Auto-Correlation
1.0,0.04732048511505127
2.0,0.044767290353775024
3.0,0.042423900216817856
4.0,0.0403297059237957
5.0,0.038460202515125275
6.0,0.036684613674879074
7.0,0.03511875495314598
8.0,0.03361131250858307
9.0,0.03222521394491196
10.0,0.030940422788262367
11.0,0.029817085713148117
12.0,0.028696546331048012
13.0,0.027640368789434433
14.0,0.026663292199373245
15.0,0.025762934237718582
16.0,0.02486065775156021
18.0,0.023260382935404778
20.0,0.02178248018026352
22.0,0.020393742248415947
24.0,0.01929752342402935
26.0,0.01841728575527668
28.0,0.01774422451853752
30.0,0.017029453068971634
32.0,0.016281314194202423
36.0,0.014866329729557037
40.0,0.013490465469658375
44.0,0.012380197644233704
48.0,0.011297030374407768
52.0,0.010681802406907082
56.0,0.010377656668424606
60.0,0.010446376167237759
64.0,0.010629023425281048
72.0,0.010807237587869167
80.0,0.010009679943323135
88.0,0.009465830400586128
96.0,0.009125580079853535
104.0,0.008230813778936863
112.0,0.007342666853219271
120.0,0.006919974461197853
128.0,0.006564740557223558
144.0,0.005117920693010092
160.0,0.0046952939592301846
176.0,0.0035587267484515905
192.0,0.0026719416491687298
208.0,0.002324420493096113
224.0,0.002684994600713253
240.0,0.002561811124905944
256.0,0.001988806528970599
288.0,0.0018136349972337484
320.0,0.001195568940602243
352.0,0.0004158788942731917
384.0,0.0015283587854355574
416.0,0.0024006562307476997
448.0,0.0013517825864255428
480.0,-0.0013002082705497742
512.0,-6.839683919679374e-05
576.0,0.000801404588855803
640.0,0.001589747378602624
704.0,0.0012200390920042992
768.0,0.0007391368853859603
832.0,0.0006201217765919864
896.0,3.1363535981654422e-06
960.0,0.0014651247765868902
1024.0,0.001736476900987327
1152.0,0.0012949536321684718
1280.0,0.000267628813162446
1408.0,-0.0010686058085411787
1536.0,-0.0021572548430413008
1664.0,-0.0012564515927806497
1792.0,-0.00044356478611007333
1920.0,-0.0031709144823253155
2048.0,-0.002534575294703245
2304.0,-0.004169824067503214
2560.0,-0.0015712218591943383
2816.0,0.0006650886498391628
3072.0,0.0019246325828135014
3328.0,-0.0006628888659179211
3584.0,-0.0031366334296762943
3840.0,-0.0021836813539266586
4096.0,0.0015773718478158116
4608.0,-0.001583667704835534
5120.0,-0.0007762009627185762
5632.0,0.00045930509804748
6144.0,0.0027649779804050922
6656.0,-0.0010276329703629017
7168.0,0.0009280176600441337
7680.0,-0.0016648954479023814
8192.0,0.0004933070740662515
end
