version,3.0
numOfCh,1
type,point
parent_name,484af_0dot6-1dot0
ch_type,1_1
kcount,1
numberNandB,1
brightnessNandB,1
carpet pos,0
pc,0
Time (ms),CH1 Auto-Correlation
1.0,0.04720360413193703
2.0,0.04463691636919975
3.0,0.04234948381781578
4.0,0.04034115746617317
5.0,0.03846156597137451
6.0,0.03674708306789398
7.0,0.03524361550807953
8.0,0.033972252160310745
9.0,0.03270675987005234
10.0,0.0315399095416069
11.0,0.030403224751353264
12.0,0.029318535700440407
13.0,0.028294939547777176
14.0,0.027377359569072723
15.0,0.02645239792764187
16.0,0.025588057935237885
18.0,0.023953504860401154
20.0,0.02242138423025608
22.0,0.021020928397774696
24.0,0.019712286069989204
26.0,0.01858321577310562
28.0,0.01740293763577938
30.0,0.016332678496837616
32.0,0.015256037004292011
36.0,0.013367746956646442
40.0,0.011599840596318245
44.0,0.009783926419913769
48.0,0.008318841457366943
52.0,0.007204422261565924
56.0,0.00605907803401351
60.0,0.005305901635438204
64.0,0.004810418467968702
72.0,0.0035757622681558132
80.0,0.0029359746258705854
88.0,0.002230264013633132
96.0,0.0014217997668311
104.0,0.0007249127374961972
112.0,0.0005581947625614703
120.0,0.0007413139683194458
128.0,0.0010287370532751083
144.0,0.0016013085842132568
160.0,0.00230920547619462
176.0,0.002771952422335744
192.0,0.0021758407820016146
208.0,0.0020355035085231066
224.0,0.0008922212291508913
240.0,0.0004671586211770773
256.0,0.0004234200459904969
288.0,-0.00032485160045325756
320.0,0.0006256310152821243
352.0,0.0018704927060753107
384.0,0.0018928633071482182
416.0,-0.00013035754091106355
448.0,4.017661194666289e-05
480.0,0.0005869721644558012
512.0,0.0012609680416062474
576.0,-0.0008750920533202589
640.0,0.0019676112569868565
704.0,0.0023282438050955534
768.0,0.0031261153053492308
832.0,0.00029823873774148524
896.0,0.0006970471586100757
960.0,0.0022074354346841574
1024.0,0.0005956223467364907
1152.0,0.0013399062445387244
1280.0,-0.00034097107709385455
1408.0,-0.0008163597667589784
1536.0,-0.00020132106146775186
1664.0,0.0004630565526895225
1792.0,-0.0008351134601980448
1920.0,0.0009924275800585747
2048.0,-0.000712295644916594
2304.0,-0.0026456902269273996
2560.0,-0.0012906983029097319
2816.0,-0.001043285010382533
3072.0,-0.002684272127225995
3328.0,-0.002847282914444804
3584.0,-0.0022555573377758265
3840.0,-0.00020578331896103919
4096.0,-0.002277516294270754
4608.0,-0.0021600692998617887
5120.0,-0.0007518475758843124
5632.0,-3.647490666480735e-05
6144.0,0.002510398393496871
6656.0,0.0007774924742989242
7168.0,0.002781156450510025
7680.0,0.001693599857389927
8192.0,0.0017414783360436559
end
