version,3.0
numOfCh,1
type,point
parent_name,484af_0dot6-1dot0
ch_type,1_1
kcount,1
numberNandB,1
brightnessNandB,1
carpet pos,0
pc,0
Time (ms),CH1 Auto-Correlation
1.0,0.04383018985390663
2.0,0.04154461622238159
3.0,0.03948570042848587
4.0,0.037598591297864914
5.0,0.035871248692274094
6.0,0.034285496920347214
7.0,0.03281770274043083
8.0,0.031548961997032166
9.0,0.030354991555213928
10.0,0.029316134750843048
11.0,0.02833593264222145
12.0,0.027406126260757446
13.0,0.026555035263299942
14.0,0.025736860930919647
15.0,0.02502572536468506
16.0,0.024327225983142853
18.0,0.023025978356599808
20.0,0.021864967420697212
22.0,0.02098686434328556
24.0,0.020175276324152946
26.0,0.019428815692663193
28.0,0.018648596480488777
30.0,0.017899392172694206
32.0,0.017092768102884293
36.0,0.01585409790277481
40.0,0.015136011876165867
44.0,0.014381933026015759
48.0,0.013493768870830536
52.0,0.012941288761794567
56.0,0.012535855174064636
60.0,0.012122687883675098
64.0,0.011681519448757172
72.0,0.010791902430355549
80.0,0.009979729540646076
88.0,0.009706736542284489
96.0,0.009731103666126728
104.0,0.009044119156897068
112.0,0.008303369395434856
120.0,0.007723976857960224
128.0,0.006931285373866558
144.0,0.00589847331866622
160.0,0.004819961730390787
176.0,0.004642179701477289
192.0,0.0036730971187353134
208.0,0.0022740368731319904
224.0,0.0015161886112764478
240.0,0.00112331158015877
256.0,0.0004786656645592302
288.0,0.0007200280670076609
320.0,0.0005913622444495559
352.0,0.0013898492325097322
384.0,0.00024256895994767547
416.0,-0.0006706094136461616
448.0,-0.0014021877432242036
480.0,-0.001563187106512487
512.0,-0.0009134350693784654
576.0,-0.0019357750425115228
640.0,-0.0015686731785535812
704.0,0.00031197519274428487
768.0,0.0004937714547850192
832.0,0.0013618050143122673
896.0,0.0009121126495301723
960.0,0.0011849384754896164
1024.0,0.0025025943759828806
1152.0,-0.0006117107695899904
1280.0,-0.0017361593199893832
1408.0,-0.0005138032138347626
1536.0,-0.001550030312500894
1664.0,1.0681374988052994e-05
1792.0,0.0014707507798448205
1920.0,0.0011926282895728946
2048.0,-0.0011377118062227964
2304.0,-0.0033607720397412777
2560.0,-0.0008240013848990202
2816.0,0.0031207327265292406
3072.0,0.0009547012741677463
3328.0,-0.0017351172864437103
3584.0,0.0011808521812781692
3840.0,0.00671817921102047
4096.0,0.0002888173039536923
4608.0,-0.0003432597150094807
5120.0,0.0008542837458662689
5632.0,0.0015639368211850524
6144.0,-0.003385701682418585
6656.0,-0.00038619915721938014
7168.0,0.0010933190351352096
7680.0,0.0010202639969065785
8192.0,-0.00490944180637598
end
