version,3.0
numOfCh,1
type,point
parent_name,484af_0dot6-1dot0
ch_type,1_1
kcount,1
numberNandB,1
brightnessNandB,1
carpet pos,0
pc,0
Time (ms),CH1 Auto-Correlation
1.0,0.0427929125726223
2.0,0.04049113765358925
3.0,0.038436826318502426
4.0,0.03651919960975647
5.0,0.034679148346185684
6.0,0.03302512690424919
7.0,0.03144467622041702
8.0,0.030089719220995903
9.0,0.028786715120077133
10.0,0.027667824178934097
11.0,0.026638885959982872
12.0,0.02568434551358223
13.0,0.024738840758800507
14.0,0.023848550394177437
15.0,0.02296810783445835
16.0,0.022104766219854355
18.0,0.02055433765053749
20.0,0.019266756251454353
22.0,0.018364187330007553
24.0,0.017520926892757416
26.0,0.016841435804963112
28.0,0.016062641516327858
30.0,0.015344568528234959
32.0,0.014711670577526093
36.0,0.013145639561116695
40.0,0.01195568684488535
44.0,0.011349217034876347
48.0,0.010611005127429962
52.0,0.010029011406004429
56.0,0.009473216719925404
60.0,0.008770505897700787
64.0,0.0081130126491189
72.0,0.00728183938190341
80.0,0.0063168941996991634
88.0,0.006076191086322069
96.0,0.005555487237870693
104.0,0.005379338748753071
112.0,0.0057440632954239845
120.0,0.005626630503684282
128.0,0.005151271820068359
144.0,0.003757439088076353
160.0,0.002227747580036521
176.0,0.0013041847851127386
192.0,0.0007004824583418667
208.0,0.001457799575291574
224.0,0.002594290766865015
240.0,0.0044339559972286224
256.0,0.005359458737075329
288.0,0.00501451687887311
320.0,0.002022801199927926
352.0,7.323330646613613e-05
384.0,0.000352661736542359
416.0,0.0006476048147305846
448.0,-0.0007692049839533865
480.0,-0.0001179423852590844
512.0,-0.0005064992583356798
576.0,0.00025700367405079305
640.0,0.002120943972840905
704.0,0.0020676911808550358
768.0,0.002680522156879306
832.0,0.0012905613984912634
896.0,0.0025881710462272167
960.0,0.0030973567627370358
1024.0,0.0017576920799911022
1152.0,0.0012395634548738599
1280.0,0.0017513999482616782
1408.0,-0.0012110932730138302
1536.0,-5.592255911324173e-05
1664.0,0.0016866285586729646
1792.0,0.0005085970624350011
1920.0,0.0034632005263119936
2048.0,0.001287399441935122
2304.0,0.0016709021292626858
2560.0,-0.00121329165995121
2816.0,-0.0004075501346960664
3072.0,0.0003696325293276459
3328.0,-0.00039486383320763707
3584.0,-0.002288172021508217
3840.0,0.0012676531914621592
4096.0,0.0028692674823105335
4608.0,-0.000798656779807061
5120.0,0.0005017858347855508
5632.0,-0.001010184409096837
6144.0,0.0020426432602107525
6656.0,-0.001903240685351193
7168.0,0.0005066277226433158
7680.0,-0.000900323677342385
8192.0,0.003237213008105755
end
