version,3.0
numOfCh,1
type,point
parent_name,484af_0dot6-1dot0
ch_type,1_1
kcount,1
numberNandB,1
brightnessNandB,1
carpet pos,0
pc,0
Time (ms),CH1 Auto-Correlation
1.0,0.04280788078904152
2.0,0.04044587165117264
3.0,0.038309577852487564
4.0,0.03633930906653404
5.0,0.034605272114276886
6.0,0.03303322568535805
7.0,0.031559236347675323
8.0,0.030225496739149094
9.0,0.028943587094545364
10.0,0.027769384905695915
11.0,0.026629837229847908
12.0,0.02561388537287712
13.0,0.024655431509017944
14.0,0.023766959086060524
15.0,0.02291802130639553
16.0,0.022100627422332764
18.0,0.020787054672837257
20.0,0.019676873460412025
22.0,0.01877634972333908
24.0,0.01783725805580616
26.0,0.017051106318831444
28.0,0.016300324350595474
30.0,0.015557498671114445
32.0,0.014773170463740826
36.0,0.013650069013237953
40.0,0.013013468123972416
44.0,0.012543119490146637
48.0,0.01221118401736021
52.0,0.011457942426204681
56.0,0.01063180435448885
60.0,0.010086756199598312
64.0,0.009658659808337688
72.0,0.00894321221858263
80.0,0.007816414348781109
88.0,0.006824485491961241
96.0,0.006250959355384111
104.0,0.005308977328240871
112.0,0.0048072547651827335
120.0,0.004671228118240833
128.0,0.004802797455340624
144.0,0.00394927803426981
160.0,0.003554816357791424
176.0,0.0029192487709224224
192.0,0.0022461109329015017
208.0,0.0006186779937706888
224.0,0.0005665204371325672
240.0,0.0009905864717438817
256.0,0.0008718836470507085
288.0,0.0009381959098391235
320.0,0.001062538824044168
352.0,0.0011860684026032686
384.0,0.0006864112801849842
416.0,5.1833321776939556e-05
448.0,-0.0006667085108347237
480.0,0.00035661229048855603
512.0,-0.001305301208049059
576.0,-1.128639360103989e-05
640.0,0.0003865735197905451
704.0,-0.0012499518925324082
768.0,-0.0005562228034250438
832.0,-0.002017995109781623
896.0,-0.0016389419324696064
960.0,-0.0022403725888580084
1024.0,-0.0024658648762851954
1152.0,-0.001227584551088512
1280.0,-0.0009977130685001612
1408.0,-0.00028595313779078424
1536.0,-0.0002549253695178777
1664.0,-1.6358118955395184e-05
1792.0,0.0016663618152961135
1920.0,0.000477111927466467
2048.0,-0.0007736614206805825
2304.0,-0.0005216452991589904
2560.0,-0.0006409622146748006
2816.0,0.00015728162543382496
3072.0,-0.000953098526224494
3328.0,-0.0008291708072647452
3584.0,-0.00038931373273953795
3840.0,-0.000554432044737041
4096.0,0.0010531472507864237
4608.0,9.798502105695661e-06
5120.0,0.0014660421293228865
5632.0,-0.0014534823130816221
6144.0,0.00024704221868887544
6656.0,-2.3753109417157248e-05
7168.0,0.0011115618981420994
7680.0,0.0009844970190897584
8192.0,-0.0013345916522666812
end
