version,3.0
numOfCh,1
type,point
parent_name,484af_0dot6-1dot0
ch_type,1_1
kcount,1
numberNandB,1
brightnessNandB,1
carpet pos,0
pc,0
Time (ms),CH1 Auto-Correlation
1.0,0.0406150259077549
2.0,0.03841998055577278
3.0,0.036466117948293686
4.0,0.034716226160526276
5.0,0.033154670149087906
6.0,0.03164145350456238
7.0,0.03024280071258545
8.0,0.028957802802324295
9.0,0.027769755572080612
10.0,0.026699185371398926
11.0,0.025758514180779457
12.0,0.02481178566813469
13.0,0.023859485983848572
14.0,0.022912034764885902
15.0,0.022026043385267258
16.0,0.021193206310272217
18.0,0.01988324150443077
20.0,0.018742695450782776
22.0,0.017779281362891197
24.0,0.016947412863373756
26.0,0.01617073081433773
28.0,0.01544911228120327
30.0,0.01465446688234806
32.0,0.01392893772572279
36.0,0.012538855895400047
40.0,0.011275890283286572
44.0,0.010026544332504272
48.0,0.00909210741519928
52.0,0.008521093986928463
56.0,0.008045480586588383
60.0,0.007527338340878487
64.0,0.006886657793074846
72.0,0.006027218885719776
80.0,0.005592735949903727
88.0,0.005101614166051149
96.0,0.00478068832308054
104.0,0.004244188778102398
112.0,0.0038088951259851456
120.0,0.0038925237022340298
128.0,0.004006244242191315
144.0,0.0038984911516308784
160.0,0.003421326167881489
176.0,0.0035118544474244118
192.0,0.0036444230936467648
208.0,0.0038087363354861736
224.0,0.004216252826154232
240.0,0.005233661271631718
256.0,0.005932218860834837
288.0,0.004999042022973299
320.0,0.004426262341439724
352.0,0.003135319333523512
384.0,0.0017516339430585504
416.0,0.0015923111932352185
448.0,0.0009865059982985258
480.0,0.0015451094368472695
512.0,0.0012792480411008
576.0,0.00042590356315486133
640.0,0.001995975850149989
704.0,0.001142481924034655
768.0,0.0008197402348741889
832.0,-0.0005313592264428735
896.0,-0.0002609686634968966
960.0,-0.00015432450163643807
1024.0,0.00028341065626591444
1152.0,-0.0007224970031529665
1280.0,-7.64210126362741e-05
1408.0,0.00039951381040737033
1536.0,-0.0003283880068920553
1664.0,0.0016094340244308114
1792.0,0.0009188989643007517
1920.0,0.0010971520096063614
2048.0,0.0009987459052354097
2304.0,-0.00044581462861970067
2560.0,-0.0010481758508831263
2816.0,-0.0013192046899348497
3072.0,-0.0014331941492855549
3328.0,0.0005781873478554189
3584.0,0.0027142581529915333
3840.0,-0.0017557281535118818
4096.0,-0.0038627195172011852
4608.0,0.00029610792989842594
5120.0,0.0010150818852707744
5632.0,0.0002170782390749082
6144.0,0.00013090396532788873
6656.0,-0.0012959170853719115
7168.0,-0.00011304063809802756
7680.0,-0.0031547320540994406
8192.0,-0.0015541745815426111
end
