version,3.0
numOfCh,1
type,point
parent_name,484af_0dot6-1dot0
ch_type,1_1
kcount,1
numberNandB,1
brightnessNandB,1
carpet pos,0
pc,0
Time (ms),CH1 Auto-Correlation
1.0,0.04675712436437607
2.0,0.04431987926363945
3.0,0.042185548692941666
4.0,0.04024946317076683
5.0,0.03851665183901787
6.0,0.036924779415130615
7.0,0.03542741760611534
8.0,0.03402416780591011
9.0,0.03273588418960571
10.0,0.03156052157282829
11.0,0.030429070815443993
12.0,0.029361089691519737
13.0,0.028346706181764603
14.0,0.02736753039062023
15.0,0.026449507102370262
16.0,0.025574618950486183
18.0,0.02395377680659294
20.0,0.022564994171261787
22.0,0.021342232823371887
24.0,0.020151639357209206
26.0,0.018927088007330894
28.0,0.01778806932270527
30.0,0.016780847683548927
32.0,0.015857601538300514
36.0,0.014262127690017223
40.0,0.012973145581781864
44.0,0.011900361627340317
48.0,0.010687706060707569
52.0,0.009738661348819733
56.0,0.008869171142578125
60.0,0.008815936744213104
64.0,0.008916059508919716
72.0,0.007660322822630405
80.0,0.005943744443356991
88.0,0.004220281261950731
96.0,0.0032169229816645384
104.0,0.003215276636183262
112.0,0.003755542216822505
120.0,0.0030215613078325987
128.0,0.002435736358165741
144.0,0.0031221427489072084
160.0,0.0046777003444731236
176.0,0.0054420046508312225
192.0,0.004876708146184683
208.0,0.004072017036378384
224.0,0.003750588046386838
240.0,0.003956793807446957
256.0,0.0040076496079564095
288.0,0.0042720879428088665
320.0,0.003822187427431345
352.0,0.003099710214883089
384.0,0.0026954731438308954
416.0,0.002058614045381546
448.0,0.0016127859707921743
480.0,0.0019045670051127672
512.0,0.0014685038477182388
576.0,0.0007554981857538223
640.0,0.0027097617276012897
704.0,0.000730843807104975
768.0,0.0008213779656216502
832.0,-0.0018956122221425176
896.0,0.0031150863505899906
960.0,0.001914987456984818
1024.0,0.002296904567629099
1152.0,0.0025450210087001324
1280.0,0.001351012266241014
1408.0,0.0004176830989308655
1536.0,0.00045875454088672996
1664.0,0.0017415247857570648
1792.0,4.4752232497558e-05
1920.0,0.0008120707934722304
2048.0,0.0004023426736239344
2304.0,-0.00045966202742420137
2560.0,-0.0010582589311525226
2816.0,-0.00028865542844869196
3072.0,0.0017277622828260064
3328.0,-0.00023106811568140984
3584.0,-0.0022390075027942657
3840.0,-0.003782870015129447
4096.0,-0.0017597901169210672
4608.0,-0.0008808288839645684
5120.0,-0.0020241844467818737
5632.0,-0.0013231727061793208
6144.0,0.0003127218224108219
6656.0,-0.0031742090359330177
7168.0,-0.0024851029738783836
7680.0,-0.001838724478147924
8192.0,-0.0019511496648192406
end
