version,3.0
numOfCh,1
type,point
parent_name,484af_0dot6-1dot0
ch_type,1_1
kcount,1
numberNandB,1
brightnessNandB,1
carpet pos,0
pc,0
Time (ms),CH1 Auto-Correlation
1.0,0.046693697571754456
2.0,0.044256728142499924
3.0,0.04207809641957283
4.0,0.04009075462818146
5.0,0.03835829347372055
6.0,0.036727845668792725
7.0,0.035193540155887604
8.0,0.033793311566114426
9.0,0.03254291042685509
10.0,0.03138039633631706
11.0,0.030292006209492683
12.0,0.02928968146443367
13.0,0.02834688499569893
14.0,0.0275227390229702
15.0,0.026700738817453384
16.0,0.025957509875297546
18.0,0.024636046960949898
20.0,0.023411817848682404
22.0,0.022324368357658386
24.0,0.021220868453383446
26.0,0.020212698727846146
28.0,0.019303690642118454
30.0,0.01847158931195736
32.0,0.017795316874980927
36.0,0.016685154289007187
40.0,0.01564980298280716
44.0,0.014738763682544231
48.0,0.013856965117156506
52.0,0.012804464437067509
56.0,0.012057678773999214
60.0,0.011586731299757957
64.0,0.011198856867849827
72.0,0.010404331609606743
80.0,0.009990867227315903
88.0,0.009239165112376213
96.0,0.008574855513870716
104.0,0.00773077504709363
112.0,0.0065233102068305016
120.0,0.005515147000551224
128.0,0.0053676036186516285
144.0,0.005512590520083904
160.0,0.006168408319354057
176.0,0.005830669775605202
192.0,0.005281638819724321
208.0,0.0039463890716433525
224.0,0.0029972665943205357
240.0,0.0027783317491412163
256.0,0.002769285812973976
288.0,0.002562843495979905
320.0,0.002625738037750125
352.0,0.0027966590132564306
384.0,0.001536831958219409
416.0,0.0011765079107135534
448.0,0.00037089435500092804
480.0,0.00030151428654789925
512.0,0.0019374670227989554
576.0,-0.00043281371472403407
640.0,-0.00032381073106080294
704.0,0.0002696118026506156
768.0,0.000821087509393692
832.0,0.001425058115273714
896.0,0.0012884835014119744
960.0,0.0008544681477360427
1024.0,0.001556074246764183
1152.0,0.00021986637148074806
1280.0,-0.0006570085533894598
1408.0,0.0010297313565388322
1536.0,-0.0011845084372907877
1664.0,-0.0018841219134628773
1792.0,-0.0014943088172003627
1920.0,-0.0032570704352110624
2048.0,-0.002517127199098468
2304.0,-0.002970176748931408
2560.0,-0.002511191414669156
2816.0,0.0002711682755034417
3072.0,0.0002093434741254896
3328.0,-0.001687175827100873
3584.0,0.0025598229840397835
3840.0,-0.0005456822109408677
4096.0,0.0008588452474214137
4608.0,0.0005473062628880143
5120.0,0.0002690226538106799
5632.0,-0.0006150599219836295
6144.0,-0.0017878023209050298
6656.0,-0.0006875337567180395
7168.0,7.655811350559816e-05
7680.0,-0.000315856741508469
8192.0,-0.003866340732201934
end
