version,3.0
numOfCh,1
type,point
parent_name,484af_0dot6-1dot0
ch_type,1_1
kcount,1
numberNandB,1
brightnessNandB,1
carpet pos,0
pc,0
Time (ms),CH1 Auto-Correlation
1.0,0.04646846279501915
2.0,0.04425302892923355
3.0,0.04228315129876137
4.0,0.040537524968385696
5.0,0.038958046585321426
6.0,0.03748448193073273
7.0,0.03617728129029274
8.0,0.0349593348801136
9.0,0.03382806479930878
10.0,0.03278343006968498
11.0,0.031731121242046356
12.0,0.03068855032324791
13.0,0.029761947691440582
14.0,0.02891193889081478
15.0,0.028084538877010345
16.0,0.027285197749733925
18.0,0.025873659178614616
20.0,0.02457287907600403
22.0,0.023386044427752495
24.0,0.02233373001217842
26.0,0.02125972881913185
28.0,0.020260605961084366
30.0,0.019342949613928795
32.0,0.018515514209866524
36.0,0.01723805069923401
40.0,0.01622343249619007
44.0,0.015318701043725014
48.0,0.014494490809738636
52.0,0.01336393877863884
56.0,0.012468931265175343
60.0,0.011761870235204697
64.0,0.010973591357469559
72.0,0.01053262036293745
80.0,0.010189585387706757
88.0,0.009336445480585098
96.0,0.008123482577502728
104.0,0.007032014895230532
112.0,0.005981814581900835
120.0,0.005343409720808268
128.0,0.004499322734773159
144.0,0.0025430938694626093
160.0,0.0020080539397895336
176.0,0.0015349145978689194
192.0,0.0014838215429335833
208.0,0.00224878778681159
224.0,0.0031594077590852976
240.0,0.003645960008725524
256.0,0.003192332573235035
288.0,0.002590603893622756
320.0,0.0032978078816086054
352.0,0.003294385736808181
384.0,0.0022205684799700975
416.0,0.00021075134282000363
448.0,-0.0006460536387749016
480.0,-0.0015567083610221744
512.0,-0.0019111776491627097
576.0,-0.0018321521347388625
640.0,-0.0006456747651100159
704.0,-0.0018071068916469812
768.0,0.0027745794504880905
832.0,0.002333980053663254
896.0,0.0030273436568677425
960.0,0.002353525487706065
1024.0,0.0008570534992031753
1152.0,-0.00161906355060637
1280.0,-0.003304957877844572
1408.0,-0.0018637031316757202
1536.0,-0.003638922469690442
1664.0,-0.002871811157092452
1792.0,-0.0017376719042658806
1920.0,-0.003003929741680622
2048.0,-0.0017623596359044313
2304.0,-0.0025865151546895504
2560.0,-0.001241027726791799
2816.0,-0.00032052170718088746
3072.0,-0.0013409870443865657
3328.0,-8.381940278923139e-05
3584.0,0.002481346018612385
3840.0,0.0027266100514680147
4096.0,-0.0006216084584593773
4608.0,0.0026808595284819603
5120.0,-0.0009399157715961337
5632.0,0.0012561798794195056
6144.0,-0.005050828214734793
6656.0,-0.0008402093662880361
7168.0,0.0010754785034805536
7680.0,0.0019109250279143453
8192.0,0.0028297111857682467
end
