version,3.0
numOfCh,1
type,point
parent_name,0-cuts
ch_type,1_1
kcount,1
numberNandB,1
brightnessNandB,1
carpet pos,0
pc,0
Time (ms),CH1 Auto-Correlation
1.0,0.06139066070318222
2.0,0.060283809900283813
3.0,0.05923232436180115
4.0,0.05821699649095535
5.0,0.05724231153726578
6.0,0.05629930645227432
7.0,0.05536355823278427
8.0,0.054473210126161575
9.0,0.053631946444511414
10.0,0.05282675474882126
11.0,0.05203181505203247
12.0,0.05123089998960495
13.0,0.05046435445547104
14.0,0.049741726368665695
15.0,0.049060408025979996
16.0,0.048386070877313614
18.0,0.04708094149827957
20.0,0.045892614871263504
22.0,0.0448172464966774
24.0,0.04382999241352081
26.0,0.042905207723379135
28.0,0.04202995449304581
30.0,0.04122636839747429
32.0,0.040458254516124725
36.0,0.038958389312028885
40.0,0.037513233721256256
44.0,0.036155328154563904
48.0,0.034902676939964294
52.0,0.03363988175988197
56.0,0.03248647227883339
60.0,0.03143206983804703
64.0,0.0304021704941988
72.0,0.028621334582567215
80.0,0.026835236698389053
88.0,0.02542630210518837
96.0,0.024262700229883194
104.0,0.023103713989257812
112.0,0.021588703617453575
120.0,0.020331930369138718
128.0,0.019275590777397156
144.0,0.01755787804722786
160.0,0.016473332419991493
176.0,0.016342394053936005
192.0,0.015721047297120094
208.0,0.013986319303512573
224.0,0.01262277364730835
240.0,0.012167422100901604
256.0,0.012127130292356014
288.0,0.01151700597256422
320.0,0.009552002884447575
352.0,0.009560063481330872
384.0,0.010215958580374718
416.0,0.010027127340435982
448.0,0.011041258461773396
480.0,0.011730021797120571
512.0,0.011175429448485374
576.0,0.009608061984181404
640.0,0.009953747503459454
704.0,0.01050130557268858
768.0,0.009423818439245224
832.0,0.008763663470745087
896.0,0.006067473907023668
960.0,0.005544897634536028
1024.0,0.0016804285114631057
1152.0,0.0008422164828516543
1280.0,-0.0014486726140603423
1408.0,-0.0020794556476175785
1536.0,0.0027285071555525064
1664.0,-0.00046867449418641627
1792.0,-0.0034824716858565807
1920.0,-0.004794337321072817
2048.0,-0.004677083343267441
2304.0,-0.0054822321981191635
2560.0,-0.004860611166805029
2816.0,-0.002690264256671071
3072.0,-0.004612881224602461
3328.0,-0.0029693038668483496
3584.0,-0.002211366780102253
3840.0,-0.006039496976882219
4096.0,-0.006128891836851835
4608.0,-0.003930201753973961
5120.0,-0.0011005860287696123
5632.0,-0.0002429555606795475
6144.0,0.00577422883361578
6656.0,0.01525326631963253
7168.0,0.008191009983420372
7680.0,0.002457753289490938
8192.0,-0.004767976235598326
9216.0,-0.009527484886348248
10240.0,-0.008607493713498116
11264.0,-0.00862501747906208
12288.0,0.004508927930146456
13312.0,0.01353100873529911
14336.0,-0.00024648013641126454
end
