version,3.0
numOfCh,1
type,point
parent_name,0-cuts
ch_type,1_1
kcount,1
numberNandB,1
brightnessNandB,1
carpet pos,0
pc,0
Time (ms),CH1 Auto-Correlation
1.0,0.022778714075684547
2.0,0.022386305034160614
3.0,0.021999508142471313
4.0,0.021623017266392708
5.0,0.021256981417536736
6.0,0.020897412672638893
7.0,0.020553935319185257
8.0,0.02021724358201027
9.0,0.019884955137968063
10.0,0.019564760848879814
11.0,0.01925276406109333
12.0,0.01894254796206951
13.0,0.018637776374816895
14.0,0.018341587856411934
15.0,0.018057821318507195
16.0,0.017779359593987465
18.0,0.017222469672560692
20.0,0.016708457842469215
22.0,0.016225995495915413
24.0,0.015769703313708305
26.0,0.015357921831309795
28.0,0.014961879700422287
30.0,0.014587758108973503
32.0,0.014222410507500172
36.0,0.013577673584222794
40.0,0.012965075671672821
44.0,0.012377284467220306
48.0,0.011848188936710358
52.0,0.011369389481842518
56.0,0.01087359618395567
60.0,0.010357904247939587
64.0,0.009885022416710854
72.0,0.009052961133420467
80.0,0.008317634463310242
88.0,0.0077357511036098
96.0,0.007098084315657616
104.0,0.006452633533626795
112.0,0.00588704040274024
120.0,0.005335652269423008
128.0,0.005014181137084961
144.0,0.004459177143871784
160.0,0.0040310402400791645
176.0,0.003987595438957214
192.0,0.004212513566017151
208.0,0.004401999991387129
224.0,0.004373194649815559
240.0,0.004084291867911816
256.0,0.0037047513760626316
288.0,0.002397515345364809
320.0,0.0013143026735633612
352.0,0.00141766422893852
384.0,0.001696780906058848
416.0,0.0016890785191208124
448.0,0.00197449978441
480.0,0.0023964333813637495
512.0,0.001990534830838442
576.0,-0.00017834955360740423
640.0,-0.001805401174351573
704.0,-0.001074666972272098
768.0,0.00017704840865917504
832.0,0.000749778060708195
896.0,0.0006442617159336805
960.0,0.0005305623053573072
1024.0,-0.000538164284080267
1152.0,-0.002082757418975234
1280.0,-0.0018682894296944141
1408.0,-0.0018091564998030663
1536.0,-0.0013807029463350773
1664.0,-0.0006801759009249508
1792.0,-0.001224665786139667
1920.0,-0.001263997401110828
2048.0,-0.002273896476253867
2304.0,-0.0009541884646750987
2560.0,-0.0008234439301304519
2816.0,-0.000606004789005965
3072.0,-0.00031221340759657323
3328.0,0.0014903289265930653
3584.0,0.001749575138092041
3840.0,0.0011837707133963704
4096.0,0.0012816472444683313
4608.0,0.0006344307912513614
5120.0,-0.0015710826264694333
5632.0,-0.0014299884205684066
6144.0,-0.00016012975538615137
6656.0,-0.00020896366913802922
7168.0,0.0010448730317875743
7680.0,-0.0008824003743939102
8192.0,-0.0006347439484670758
9216.0,0.0005543663282878697
10240.0,-0.00016486970707774162
11264.0,-0.0013649426400661469
12288.0,-0.001591863576322794
13312.0,0.001861877040937543
14336.0,-0.0015533703844994307
end
