version,3.0
numOfCh,1
type,point
parent_name,0-cuts
ch_type,1_1
kcount,1
numberNandB,1
brightnessNandB,1
carpet pos,0
pc,0
Time (ms),CH1 Auto-Correlation
1.0,0.06613947451114655
2.0,0.06497575342655182
3.0,0.0638754814863205
4.0,0.06280454248189926
5.0,0.061752695590257645
6.0,0.06075500696897507
7.0,0.059755340218544006
8.0,0.05879399925470352
9.0,0.057849060744047165
10.0,0.05693311616778374
11.0,0.05604102835059166
12.0,0.05515867844223976
13.0,0.05428573861718178
14.0,0.053412094712257385
15.0,0.05254722759127617
16.0,0.05168706551194191
18.0,0.05006925016641617
20.0,0.048509541898965836
22.0,0.04696475714445114
24.0,0.04546641185879707
26.0,0.04405025392770767
28.0,0.04269551858305931
30.0,0.0413057804107666
32.0,0.039938006550073624
36.0,0.03726796433329582
40.0,0.03466315194964409
44.0,0.032345935702323914
48.0,0.03044675663113594
52.0,0.028860025107860565
56.0,0.02751690149307251
60.0,0.02629096806049347
64.0,0.025087136775255203
72.0,0.023087985813617706
80.0,0.02179619111120701
88.0,0.020948730409145355
96.0,0.01999231055378914
104.0,0.019355176016688347
112.0,0.01845654286444187
120.0,0.017419924959540367
128.0,0.016481420025229454
144.0,0.015605579130351543
160.0,0.01535786036401987
176.0,0.015142994932830334
192.0,0.014296247623860836
208.0,0.013087322935461998
224.0,0.011769328266382217
240.0,0.010373430326581001
256.0,0.008765578269958496
288.0,0.006736430339515209
320.0,0.0051232329569756985
352.0,0.004161209799349308
384.0,0.001798092620447278
416.0,-0.0022293124347925186
448.0,-0.002337575424462557
480.0,-0.001121803536079824
512.0,0.0005821615923196077
576.0,0.0031650527380406857
640.0,0.0015284345718100667
704.0,-0.002008550800383091
768.0,0.000908039859496057
832.0,0.0016000287141650915
896.0,-0.0006448426865972579
960.0,-0.0024940362200140953
1024.0,-0.0015566067304462194
1152.0,-0.0013477338943630457
1280.0,-8.334815356647596e-05
1408.0,0.0011909581953659654
1536.0,-0.0030311562586575747
1664.0,-0.00023370396229438484
1792.0,0.0034551341086626053
1920.0,0.005892669316381216
2048.0,0.0024255202151834965
2304.0,-0.00237012910656631
2560.0,-0.005767309106886387
2816.0,-0.010613503865897655
3072.0,-0.0036478640977293253
3328.0,0.001204952597618103
3584.0,0.003997365944087505
3840.0,0.0013636908261105418
4096.0,-0.0014714624267071486
4608.0,-0.0016825863858684897
5120.0,0.00491393031552434
5632.0,0.002120453864336014
6144.0,-0.010218540206551552
6656.0,-0.010310947895050049
7168.0,0.002141186036169529
7680.0,-0.0032671871595084667
8192.0,-0.003915330860763788
9216.0,0.0064705354161560535
10240.0,-0.002587157068774104
11264.0,-0.004286118317395449
12288.0,-0.00022123788949102163
13312.0,-0.0001437664614059031
14336.0,0.013392019085586071
end
