version,3.0
numOfCh,1
type,point
parent_name,0-cuts
ch_type,1_1
kcount,1
numberNandB,1
brightnessNandB,1
carpet pos,0
pc,0
Time (ms),CH1 Auto-Correlation
1.0,0.03303074836730957
2.0,0.03242211416363716
3.0,0.03183657303452492
4.0,0.03127599135041237
5.0,0.030756518244743347
6.0,0.030238892883062363
7.0,0.029741071164608
8.0,0.029261881485581398
9.0,0.02878834865987301
10.0,0.02832425758242607
11.0,0.02787080407142639
12.0,0.02742903120815754
13.0,0.027010099962353706
14.0,0.026583097875118256
15.0,0.026163024827837944
16.0,0.025761349126696587
18.0,0.024996226653456688
20.0,0.02426822856068611
22.0,0.02355259098112583
24.0,0.022845542058348656
26.0,0.022169901058077812
28.0,0.021520670503377914
30.0,0.020903829485177994
32.0,0.020307675004005432
36.0,0.01912049762904644
40.0,0.018021484836935997
44.0,0.01707860641181469
48.0,0.016228018328547478
52.0,0.01552283763885498
56.0,0.014867139048874378
60.0,0.014207444153726101
64.0,0.013610546477138996
72.0,0.012445504777133465
80.0,0.011322655715048313
88.0,0.010462579317390919
96.0,0.009798351675271988
104.0,0.009217247366905212
112.0,0.00871624331921339
120.0,0.008237145841121674
128.0,0.007723075803369284
144.0,0.006376878824084997
160.0,0.005365672986954451
176.0,0.00455621350556612
192.0,0.004104329273104668
208.0,0.0039070043712854385
224.0,0.0038105554413050413
240.0,0.003798876190558076
256.0,0.004085128661245108
288.0,0.004377789795398712
320.0,0.0038822530768811703
352.0,0.0031573926098644733
384.0,0.0014901114627718925
416.0,-2.7156942451256327e-05
448.0,-3.460507741692709e-06
480.0,-0.0002654760319273919
512.0,-0.0008166163461282849
576.0,0.00011446034477557987
640.0,0.000126439452287741
704.0,0.0015521971508860588
768.0,0.002421837067231536
832.0,0.0015748748555779457
896.0,7.304523751372471e-05
960.0,-0.0008228053338825703
1024.0,-0.0006791620398871601
1152.0,-0.0029229733627289534
1280.0,-0.005147000774741173
1408.0,-0.0014377615880221128
1536.0,-0.0009870456997305155
1664.0,-0.0014603316085413098
1792.0,-0.001215232303366065
1920.0,-0.0022731777280569077
2048.0,-0.0028031703550368547
2304.0,0.000406167033361271
2560.0,0.0006144270882941782
2816.0,0.002392586786299944
3072.0,0.0042970916256308556
3328.0,0.0012559083988890052
3584.0,0.0015069595538079739
3840.0,-0.00018587867089081556
4096.0,-0.0029003769159317017
4608.0,-0.0009585764491930604
5120.0,-0.0012633525766432285
5632.0,-1.8147151422454044e-05
6144.0,0.0021566315554082394
6656.0,0.002344549400731921
7168.0,-0.002442402997985482
7680.0,-0.0033554942347109318
8192.0,-0.0007019950426183641
9216.0,-0.0015100267482921481
10240.0,0.0016159940278157592
11264.0,-0.003927052486687899
12288.0,0.0011369086569175124
13312.0,0.003061783965677023
14336.0,-1.9763117961701937e-05
end
