version,3.0
numOfCh,1
type,point
parent_name,0-cuts
ch_type,1_1
kcount,1
numberNandB,1
brightnessNandB,1
carpet pos,0
pc,0
Time (ms),CH1 Auto-Correlation
1.0,0.022099418565630913
2.0,0.02170809544622898
3.0,0.021333297714591026
4.0,0.020970916375517845
5.0,0.02061557024717331
6.0,0.020269952714443207
7.0,0.01993122510612011
8.0,0.019594833254814148
9.0,0.01927988789975643
10.0,0.018972503021359444
11.0,0.018677469342947006
12.0,0.018387597054243088
13.0,0.018103329464793205
14.0,0.017826907336711884
15.0,0.01755555160343647
16.0,0.017288265749812126
18.0,0.01679631508886814
20.0,0.016335496678948402
22.0,0.01590234786272049
24.0,0.01546835619956255
26.0,0.015050781890749931
28.0,0.014666678383946419
30.0,0.01430528610944748
32.0,0.013980918563902378
36.0,0.013377644121646881
40.0,0.01277086604386568
44.0,0.012198599055409431
48.0,0.011667463928461075
52.0,0.011170068755745888
56.0,0.01068353932350874
60.0,0.010201969183981419
64.0,0.009739781729876995
72.0,0.008922809734940529
80.0,0.008261291310191154
88.0,0.007704110816121101
96.0,0.0072745587676763535
104.0,0.007057941984385252
112.0,0.0070106578059494495
120.0,0.006909138523042202
128.0,0.006721059791743755
144.0,0.006325395777821541
160.0,0.006286310963332653
176.0,0.00626696553081274
192.0,0.006078397389501333
208.0,0.005923101212829351
224.0,0.0060476334765553474
240.0,0.00616923114284873
256.0,0.005841991398483515
288.0,0.004727644845843315
320.0,0.003959516063332558
352.0,0.0033279131166636944
384.0,0.003123639617115259
416.0,0.0033929813653230667
448.0,0.0034842740278691053
480.0,0.003501764265820384
512.0,0.0034815382678061724
576.0,0.0025751942303031683
640.0,0.002920678583905101
704.0,0.0031740900594741106
768.0,0.0023183580487966537
832.0,0.0009491529781371355
896.0,0.0021010576747357845
960.0,0.0030129156075417995
1024.0,0.0033402517437934875
1152.0,0.003911706153303385
1280.0,0.003022255375981331
1408.0,0.002054812153801322
1536.0,0.0006691014859825373
1664.0,-0.0009428097982890904
1792.0,-0.001331440289504826
1920.0,-0.00020275240240152925
2048.0,-0.00035437397309578955
2304.0,-0.0016333204694092274
2560.0,-0.0001739015569910407
2816.0,-0.0019666715525090694
3072.0,-0.00018347038712818176
3328.0,0.0005118960980325937
3584.0,0.0018342159455642104
3840.0,0.001740846550092101
4096.0,0.0017997120739892125
4608.0,0.0034455207642167807
5120.0,0.002236968604847789
5632.0,0.0007289554341696203
6144.0,-0.0012182254577055573
6656.0,-0.004106028936803341
7168.0,-0.004004307556897402
7680.0,-0.004646581131964922
8192.0,-0.0025174436159431934
9216.0,-0.0006796370726078749
10240.0,-0.0019418986048549414
11264.0,-0.0020253544207662344
12288.0,-0.003642795840278268
13312.0,-0.003258136101067066
14336.0,0.0017575816018506885
end
