version,3.0
numOfCh,1
type,point
parent_name,0-cuts
ch_type,1_1
kcount,1
numberNandB,1
brightnessNandB,1
carpet pos,0
pc,0
Time (ms),CH1 Auto-Correlation
1.0,0.021465519443154335
2.0,0.02107592299580574
3.0,0.020684342831373215
4.0,0.020298361778259277
5.0,0.019925905391573906
6.0,0.01956244744360447
7.0,0.019216537475585938
8.0,0.018875589594244957
9.0,0.018538853153586388
10.0,0.01821736805140972
11.0,0.01790183037519455
12.0,0.01760115474462509
13.0,0.017307009547948837
14.0,0.017015153542160988
15.0,0.01673685386776924
16.0,0.01646750047802925
18.0,0.01595638133585453
20.0,0.015475401654839516
22.0,0.015009378083050251
24.0,0.014582395553588867
26.0,0.014172259718179703
28.0,0.013773122802376747
30.0,0.013381224125623703
32.0,0.012995872646570206
36.0,0.012299089692533016
40.0,0.01168837584555149
44.0,0.011133920401334763
48.0,0.010633285157382488
52.0,0.010169360786676407
56.0,0.009732099249958992
60.0,0.009352625347673893
64.0,0.008987722918391228
72.0,0.008243108168244362
80.0,0.007641876582056284
88.0,0.0071012768894433975
96.0,0.0065666683949530125
104.0,0.0061266799457371235
112.0,0.005759562365710735
120.0,0.005283643491566181
128.0,0.004992450587451458
144.0,0.004621349275112152
160.0,0.004263310227543116
176.0,0.0037860425654798746
192.0,0.003341701813042164
208.0,0.0030901196878403425
224.0,0.0027125533670186996
240.0,0.0022584395483136177
256.0,0.001641653710976243
288.0,0.0004233452200423926
320.0,-2.852295983757358e-05
352.0,-0.0006846695905551314
384.0,-0.0014755837619304657
416.0,-0.0019532686565071344
448.0,-0.0018922906601801515
480.0,-0.0012101128231734037
512.0,-0.0002154958201572299
576.0,0.0006274884799495339
640.0,0.0005913343047723174
704.0,0.00031162044615484774
768.0,-0.00012197242176625878
832.0,-0.0009104632190428674
896.0,-0.0003071421815548092
960.0,0.0007445493247359991
1024.0,0.00039679667679592967
1152.0,0.000422417011577636
1280.0,0.00027717274497263134
1408.0,-0.0007355294656008482
1536.0,-0.0013183768605813384
1664.0,-0.0018454797100275755
1792.0,-0.001198671292513609
1920.0,0.00018888893828261644
2048.0,0.0004493440210353583
2304.0,0.0004615796497091651
2560.0,0.0002804634568747133
2816.0,-0.0002539403212722391
3072.0,0.0001162650587502867
3328.0,-0.00038538401713594794
3584.0,-0.003166025271639228
3840.0,-0.00180449103936553
4096.0,0.0016500927740707994
4608.0,0.0013335365802049637
5120.0,0.00041844474617391825
5632.0,-0.0001941478403750807
6144.0,-0.0008357437327504158
6656.0,0.00045697393943555653
7168.0,-0.0002870751195587218
7680.0,-0.00250243884511292
8192.0,-0.002874925499781966
9216.0,-0.000401071272790432
10240.0,3.2795924198580906e-05
11264.0,0.0018793236231431365
12288.0,-0.0013728024205192924
13312.0,-0.001271531917154789
14336.0,0.0002691633126232773
end
