version,3.0
numOfCh,1
type,point
parent_name,0-cuts
ch_type,1_1
kcount,1
numberNandB,1
brightnessNandB,1
carpet pos,0
pc,0
Time (ms),CH1 Auto-Correlation
1.0,0.023249952122569084
2.0,0.02286432683467865
3.0,0.02249358966946602
4.0,0.02214653417468071
5.0,0.02180962637066841
6.0,0.02147776633501053
7.0,0.021165667101740837
8.0,0.020869005471467972
9.0,0.020580774173140526
10.0,0.020295649766921997
11.0,0.020013097673654556
12.0,0.019721321761608124
13.0,0.019429583102464676
14.0,0.01915404386818409
15.0,0.018900984898209572
16.0,0.01865832880139351
18.0,0.0182021651417017
20.0,0.017745409160852432
22.0,0.01729651726782322
24.0,0.016872819513082504
26.0,0.016459468752145767
28.0,0.016073303297162056
30.0,0.015727708116173744
32.0,0.015411214902997017
36.0,0.014824217185378075
40.0,0.014310244470834732
44.0,0.01386524923145771
48.0,0.01342727430164814
52.0,0.013031583279371262
56.0,0.01264843251556158
60.0,0.012329893186688423
64.0,0.012059527449309826
72.0,0.011425244621932507
80.0,0.010747553780674934
88.0,0.010152124799787998
96.0,0.009704768657684326
104.0,0.009456710889935493
112.0,0.00924849882721901
120.0,0.009088877588510513
128.0,0.00888044387102127
144.0,0.00829929206520319
160.0,0.007895290851593018
176.0,0.007623949088156223
192.0,0.007396874018013477
208.0,0.007336141541600227
224.0,0.007196924649178982
240.0,0.006937926169484854
256.0,0.006689274217933416
288.0,0.006729504093527794
320.0,0.006077932193875313
352.0,0.005210008937865496
384.0,0.0048198821023106575
416.0,0.0054569304920732975
448.0,0.006141843739897013
480.0,0.006207968574017286
512.0,0.0063155521638691425
576.0,0.006453302223235369
640.0,0.005850658752024174
704.0,0.006077170837670565
768.0,0.005457565654069185
832.0,0.005150269716978073
896.0,0.005373463965952396
960.0,0.004441675264388323
1024.0,0.003369318088516593
1152.0,0.0033401648979634047
1280.0,0.003969442564994097
1408.0,0.004949695896357298
1536.0,0.004714640788733959
1664.0,0.0030340789817273617
1792.0,0.003366807708516717
1920.0,0.0033413288183510303
2048.0,0.002533290069550276
2304.0,0.0012828067410737276
2560.0,0.00041862469515763223
2816.0,-0.000682141340803355
3072.0,-0.0007761564920656383
3328.0,-0.001258182805031538
3584.0,-0.0007847454980947077
3840.0,-0.0028896101284772158
4096.0,-0.004540254361927509
4608.0,-0.0063795410096645355
5120.0,-0.005539533216506243
5632.0,-0.0031440425664186478
6144.0,-0.0033910966012626886
6656.0,-0.004081563092768192
7168.0,-0.001221263431943953
7680.0,-0.0003643216914497316
8192.0,-0.0006024307804182172
9216.0,0.005292096175253391
10240.0,0.0017623738385736942
11264.0,0.0007889691623859107
12288.0,-0.0015018719714134932
13312.0,-0.007905066944658756
14336.0,-0.009008881635963917
end
