version,3.0
numOfCh,1
type,point
parent_name,0-cuts
ch_type,1_1
kcount,1
numberNandB,1
brightnessNandB,1
carpet pos,0
pc,0
Time (ms),CH1 Auto-Correlation
1.0,0.02434704452753067
2.0,0.02376651018857956
3.0,0.023197248578071594
4.0,0.022642673924565315
5.0,0.022126752883195877
6.0,0.021630069240927696
7.0,0.0211600661277771
8.0,0.020719770342111588
9.0,0.02028730697929859
10.0,0.019864361733198166
11.0,0.019438879564404488
12.0,0.01902877725660801
13.0,0.01861131191253662
14.0,0.01820000819861889
15.0,0.01779121533036232
16.0,0.01736949011683464
18.0,0.01657906360924244
20.0,0.01586061716079712
22.0,0.015200626105070114
24.0,0.01457154843956232
26.0,0.01395570207387209
28.0,0.013409378007054329
30.0,0.01288614235818386
32.0,0.012333194725215435
36.0,0.011194112710654736
40.0,0.010128330439329147
44.0,0.009285403415560722
48.0,0.008585561066865921
52.0,0.008000358939170837
56.0,0.007492059376090765
60.0,0.006991819944232702
64.0,0.006562795024365187
72.0,0.00593065470457077
80.0,0.005396102089434862
88.0,0.004697606898844242
96.0,0.003953393083065748
104.0,0.003366746474057436
112.0,0.0029428331181406975
120.0,0.0025328602641820908
128.0,0.00218181568197906
144.0,0.0018966390052810311
160.0,0.0022521980572491884
176.0,0.00255249859765172
192.0,0.0025905065704137087
208.0,0.0025058214087039232
224.0,0.0024234759621322155
240.0,0.0022183225955814123
256.0,0.0021826066076755524
288.0,0.001254482427611947
320.0,0.0010477208998054266
352.0,0.00048417056677863
384.0,0.00027368581504561007
416.0,0.0003920922754332423
448.0,0.000606336398050189
480.0,0.0009184277732856572
512.0,0.002087636152282357
576.0,0.0014154667733237147
640.0,0.0006067681242711842
704.0,0.0009681304800324142
768.0,0.0019764378666877747
832.0,0.000642659142613411
896.0,-0.00104374042712152
960.0,-0.0006123286439105868
1024.0,0.001668426557444036
1152.0,0.0008784287492744625
1280.0,0.0019475474255159497
1408.0,0.0010810034582391381
1536.0,0.001493616495281458
1664.0,0.0006178696057759225
1792.0,0.0012500777374953032
1920.0,0.0001782684266800061
2048.0,0.0011537827085703611
2304.0,0.0008344529196619987
2560.0,-0.0008070903131738305
2816.0,-9.264041727874428e-05
3072.0,-0.00035297637805342674
3328.0,-0.0014970839256420732
3584.0,0.0011298377066850662
3840.0,-4.493776032177266e-06
4096.0,-0.0010472548892721534
4608.0,-0.00123587844427675
5120.0,0.000652412127237767
5632.0,0.001474351272918284
6144.0,-0.0009275692282244563
6656.0,-0.0002603510511107743
7168.0,0.002121763536706567
7680.0,0.00021874687809031457
8192.0,-0.00033210599212907255
9216.0,-0.0007422961643896997
10240.0,-0.0032143157441169024
11264.0,-0.0027655051089823246
12288.0,-0.0018655991880223155
13312.0,-0.0007678557303734124
14336.0,-6.447893247241154e-05
end
