version,3.0
numOfCh,1
type,point
parent_name,0-cuts
ch_type,1_1
kcount,1
numberNandB,1
brightnessNandB,1
carpet pos,0
pc,0
Time (ms),CH1 Auto-Correlation
1.0,0.03033609129488468
2.0,0.029742112383246422
3.0,0.02917606756091118
4.0,0.028603386133909225
5.0,0.028049586340785027
6.0,0.027533570304512978
7.0,0.027041951194405556
8.0,0.0265736635774374
9.0,0.026126908138394356
10.0,0.02568693272769451
11.0,0.025257641449570656
12.0,0.02485082857310772
13.0,0.024453740566968918
14.0,0.02405853196978569
15.0,0.023669609799981117
16.0,0.023297816514968872
18.0,0.022569794207811356
20.0,0.021888624876737595
22.0,0.021226227283477783
24.0,0.020581312477588654
26.0,0.019980529323220253
28.0,0.019386854022741318
30.0,0.01881217211484909
32.0,0.018256157636642456
36.0,0.017277462407946587
40.0,0.01632441207766533
44.0,0.015395394526422024
48.0,0.014532404020428658
52.0,0.013790827244520187
56.0,0.013102442026138306
60.0,0.012420113198459148
64.0,0.011759183369576931
72.0,0.010656427592039108
80.0,0.00974807608872652
88.0,0.008940109983086586
96.0,0.008303488604724407
104.0,0.007600202690809965
112.0,0.006887376774102449
120.0,0.006465056911110878
128.0,0.006313500460237265
144.0,0.005745900794863701
160.0,0.005253624636679888
176.0,0.004831971134990454
192.0,0.004414863884449005
208.0,0.003911683801561594
224.0,0.0034394143149256706
240.0,0.0031464186031371355
256.0,0.003214407479390502
288.0,0.003497474128380418
320.0,0.003360270755365491
352.0,0.003288412466645241
384.0,0.002290627220645547
416.0,0.001123639172874391
448.0,0.0005718729225918651
480.0,-0.0002605218905955553
512.0,-0.0008797660120762885
576.0,-0.001615144545212388
640.0,-0.0016240376280620694
704.0,-0.001001376542262733
768.0,-0.0006372119532898068
832.0,0.00021896208636462688
896.0,0.00030259022605605423
960.0,0.000815368490293622
1024.0,0.0008279520552605391
1152.0,7.5964504503645e-05
1280.0,0.0019915581215173006
1408.0,0.0024939056020230055
1536.0,0.002901457017287612
1664.0,0.0034554197918623686
1792.0,0.002323624212294817
1920.0,-0.0004999740631319582
2048.0,0.00015252317825797945
2304.0,-1.4811760593147483e-05
2560.0,0.0020472935866564512
2816.0,0.002198506146669388
3072.0,0.0013391628162935376
3328.0,-0.0018432310316711664
3584.0,-0.0038490344304591417
3840.0,-0.0009545152424834669
4096.0,0.002984357997775078
4608.0,-0.00044214350054971874
5120.0,-0.0009935179259628057
5632.0,-0.003505725646391511
6144.0,-0.0036314837634563446
6656.0,-0.0005277902237139642
7168.0,-0.0013424684293568134
7680.0,-0.003213092451915145
8192.0,-0.0035272955428808928
9216.0,-0.00031757709803059697
10240.0,-0.00026866814005188644
11264.0,-0.0015718650538474321
12288.0,0.0003320077375974506
13312.0,0.005062147509306669
14336.0,0.005043208599090576
end
