version,3.0
numOfCh,1
type,point
parent_name,0-cuts
ch_type,1_1
kcount,1
numberNandB,1
brightnessNandB,1
carpet pos,0
pc,0
Time (ms),CH1 Auto-Correlation
1.0,0.0872153490781784
2.0,0.08609115332365036
3.0,0.08502327650785446
4.0,0.08397173881530762
5.0,0.08295949548482895
6.0,0.08196437358856201
7.0,0.08097881078720093
8.0,0.08004111051559448
9.0,0.0791434794664383
10.0,0.0782749354839325
11.0,0.07739470154047012
12.0,0.07654958963394165
13.0,0.07570094615221024
14.0,0.07487604767084122
15.0,0.07408487051725388
16.0,0.07331088185310364
18.0,0.07181950658559799
20.0,0.07035807520151138
22.0,0.06894726306200027
24.0,0.06765203177928925
26.0,0.06645552068948746
28.0,0.06533005833625793
30.0,0.06429881602525711
32.0,0.06329165399074554
36.0,0.06126872077584267
40.0,0.059281155467033386
44.0,0.057274166494607925
48.0,0.05535795912146568
52.0,0.053572878241539
56.0,0.052240703254938126
60.0,0.05128099024295807
64.0,0.050751693546772
72.0,0.04999469593167305
80.0,0.04882500320672989
88.0,0.047551050782203674
96.0,0.04642021656036377
104.0,0.045343879610300064
112.0,0.04419780522584915
120.0,0.04274526238441467
128.0,0.040925532579422
144.0,0.03821450471878052
160.0,0.03552211821079254
176.0,0.0338941290974617
192.0,0.03341331332921982
208.0,0.032764509320259094
224.0,0.031155887991189957
240.0,0.028882334008812904
256.0,0.027354519814252853
288.0,0.02712303027510643
320.0,0.027336519211530685
352.0,0.02754206582903862
384.0,0.02588730677962303
416.0,0.025952670723199844
448.0,0.025977732613682747
480.0,0.02643999084830284
512.0,0.026963651180267334
576.0,0.029903853312134743
640.0,0.030405079945921898
704.0,0.027226649224758148
768.0,0.021176915615797043
832.0,0.019862618297338486
896.0,0.018303897231817245
960.0,0.018767714500427246
1024.0,0.01914200745522976
1152.0,0.019519461318850517
1280.0,0.022490981966257095
1408.0,0.022804507985711098
1536.0,0.022432290017604828
1664.0,0.02091539464890957
1792.0,0.018933195620775223
1920.0,0.017742367461323738
2048.0,0.01902754232287407
2304.0,0.014753869734704494
2560.0,0.006763080134987831
2816.0,0.011930292472243309
3072.0,0.007380609400570393
3328.0,0.006430842913687229
3584.0,0.0011065216967836022
3840.0,-0.005096666980534792
4096.0,-0.011299841105937958
4608.0,-0.009279027581214905
5120.0,-0.014930043369531631
5632.0,-0.01946740597486496
6144.0,-0.019058316946029663
6656.0,-0.016390405595302582
7168.0,-0.016646496951580048
7680.0,-0.01186811737716198
8192.0,-0.013576908968389034
9216.0,-0.01668114960193634
10240.0,-0.008200843818485737
11264.0,-0.009323571808636189
12288.0,-0.010176324285566807
13312.0,-0.002015003701671958
14336.0,-0.002563467947766185
end
