version,3.0
numOfCh,1
type,point
parent_name,0-cuts
ch_type,1_1
kcount,1
numberNandB,1
brightnessNandB,1
carpet pos,0
pc,0
Time (ms),CH1 Auto-Correlation
1.0,0.022993892431259155
2.0,0.022603746503591537
3.0,0.022227764129638672
4.0,0.021872906014323235
5.0,0.021528096869587898
6.0,0.021188504993915558
7.0,0.0208579208701849
8.0,0.020540786907076836
9.0,0.02022627368569374
10.0,0.0199207104742527
11.0,0.019622959196567535
12.0,0.019339777529239655
13.0,0.019060898572206497
14.0,0.018792757764458656
15.0,0.018535174429416656
16.0,0.0182839073240757
18.0,0.017783144488930702
20.0,0.01731271855533123
22.0,0.016871538013219833
24.0,0.016446394845843315
26.0,0.016030842438340187
28.0,0.0156524907797575
30.0,0.015291668474674225
32.0,0.014951637014746666
36.0,0.014349560253322124
40.0,0.013794506900012493
44.0,0.013300018385052681
48.0,0.012816003523766994
52.0,0.012329410761594772
56.0,0.01185205765068531
60.0,0.011429364793002605
64.0,0.011086881160736084
72.0,0.010499939322471619
80.0,0.009973845444619656
88.0,0.009426438249647617
96.0,0.008929407224059105
104.0,0.008545885793864727
112.0,0.008230740204453468
120.0,0.007919869385659695
128.0,0.007406178396195173
144.0,0.006301985587924719
160.0,0.005612441338598728
176.0,0.005202446598559618
192.0,0.004804563242942095
208.0,0.004417705349624157
224.0,0.0041512977331876755
240.0,0.004012449644505978
256.0,0.0035982041154056787
288.0,0.003476042067632079
320.0,0.0037212311290204525
352.0,0.003911464940756559
384.0,0.0034938703756779432
416.0,0.003695170395076275
448.0,0.002970227738842368
480.0,0.0027685421518981457
512.0,0.002947020810097456
576.0,0.0029568225145339966
640.0,0.0026532416231930256
704.0,0.0027553250547498465
768.0,0.001845778664574027
832.0,0.001232547452673316
896.0,0.0005238660960458219
960.0,-0.00020092942577321082
1024.0,-0.0004919906496070325
1152.0,0.000673941511195153
1280.0,0.00045680758194066584
1408.0,-0.00043559589539654553
1536.0,-0.0011283924104645848
1664.0,-0.0023158760741353035
1792.0,-0.002637069672346115
1920.0,-0.0008581505389884114
2048.0,-0.00023117096861824393
2304.0,-0.001223746221512556
2560.0,-0.0018130932003259659
2816.0,-0.0032605205196887255
3072.0,-0.0021597889717668295
3328.0,-0.0018208788242191076
3584.0,-0.002246864838525653
3840.0,-0.001497447257861495
4096.0,7.453439320670441e-05
4608.0,0.0029773428104817867
5120.0,0.004400487989187241
5632.0,0.002724909456446767
6144.0,0.0016206527361646295
6656.0,-0.0011239134473726153
7168.0,-0.0034919600002467632
7680.0,-0.0018760773818939924
8192.0,-0.003918209578841925
9216.0,0.000203271207283251
10240.0,0.0023338645696640015
11264.0,0.0013833020348101854
12288.0,-0.004320234525948763
13312.0,-0.003152435878291726
14336.0,-0.007499104365706444
end
