version,3.0
numOfCh,1
type,point
parent_name,0-cuts
ch_type,1_1
kcount,1
numberNandB,1
brightnessNandB,1
carpet pos,0
pc,0
Time (ms),CH1 Auto-Correlation
1.0,0.02756759338080883
2.0,0.026978107169270515
3.0,0.026411190629005432
4.0,0.02586248703300953
5.0,0.02532017044723034
6.0,0.02478567324578762
7.0,0.024271076545119286
8.0,0.023774726316332817
9.0,0.02330518327653408
10.0,0.022853679955005646
11.0,0.022420963272452354
12.0,0.022008128464221954
13.0,0.021616803482174873
14.0,0.021227017045021057
15.0,0.0208539180457592
16.0,0.02047749049961567
18.0,0.01973813958466053
20.0,0.019031217321753502
22.0,0.018344426527619362
24.0,0.017691107466816902
26.0,0.01709824614226818
28.0,0.016520611941814423
30.0,0.01596020720899105
32.0,0.015428164973855019
36.0,0.014409917406737804
40.0,0.013412541709840298
44.0,0.012426373548805714
48.0,0.011546596884727478
52.0,0.01073979027569294
56.0,0.010000064969062805
60.0,0.00929358322173357
64.0,0.008634429425001144
72.0,0.007748424541205168
80.0,0.006964224856346846
88.0,0.006334216333925724
96.0,0.005825356114655733
104.0,0.0053933169692754745
112.0,0.005055728834122419
120.0,0.004759134724736214
128.0,0.004481136333197355
144.0,0.0029520001262426376
160.0,0.0012293807230889797
176.0,7.824590284144506e-05
192.0,-0.0007689237245358527
208.0,-0.0010715717216953635
224.0,-0.0013361144810914993
240.0,-0.001493455725722015
256.0,-0.001517584314569831
288.0,-0.0013489056145772338
320.0,-0.001717767445370555
352.0,-0.0012276817578822374
384.0,-0.0002064573491225019
416.0,0.0009625135571695864
448.0,0.003274140879511833
480.0,0.003848073538392782
512.0,0.0034161664079874754
576.0,0.0007473923033103347
640.0,-0.0007359048468060791
704.0,-0.0006318073719739914
768.0,-0.0005913254572078586
832.0,-0.0006791361374780536
896.0,0.000591315736528486
960.0,0.0007408881792798638
1024.0,5.410920857684687e-05
1152.0,-0.002026804955676198
1280.0,-0.0009486586786806583
1408.0,-0.001259178388863802
1536.0,-0.00016005495854187757
1664.0,0.0002547315089032054
1792.0,0.0008065822767093778
1920.0,0.000294319586828351
2048.0,-2.676830263226293e-05
2304.0,-0.0028250666800886393
2560.0,-0.0008597431005910039
2816.0,-0.001310638035647571
3072.0,-0.0019997553899884224
3328.0,-0.0014189759967848659
3584.0,0.0009555197320878506
3840.0,-0.0007562115206383169
4096.0,0.002414905233308673
4608.0,0.0018524648621678352
5120.0,0.0007494768942706287
5632.0,0.00017043705156538635
6144.0,6.516029679914936e-05
6656.0,-0.0004427556414157152
7168.0,-0.003485637018457055
7680.0,-0.00011041654215659946
8192.0,0.0005972213111817837
9216.0,-0.0008207288919948041
10240.0,0.001527019776403904
11264.0,-0.0007987404824234545
12288.0,0.0006103073828853667
13312.0,-0.001893459353595972
14336.0,0.0010984604014083743
end
