version,3.0
numOfCh,1
type,point
parent_name,0-cuts
ch_type,1_1
kcount,1
numberNandB,1
brightnessNandB,1
carpet pos,0
pc,0
Time (ms),CH1 Auto-Correlation
1.0,0.06061370670795441
2.0,0.05951113626360893
3.0,0.058469258248806
4.0,0.05749319866299629
5.0,0.05655541643500328
6.0,0.05566015467047691
7.0,0.054771389812231064
8.0,0.05390481650829315
9.0,0.053023237735033035
10.0,0.05221991240978241
11.0,0.0514075793325901
12.0,0.050650063902139664
13.0,0.04990868270397186
14.0,0.04917673394083977
15.0,0.04844322055578232
16.0,0.04772944748401642
18.0,0.046422261744737625
20.0,0.04518862068653107
22.0,0.04404040426015854
24.0,0.04301699623465538
26.0,0.04208774492144585
28.0,0.04116450250148773
30.0,0.04023449867963791
32.0,0.03933056816458702
36.0,0.037492502480745316
40.0,0.035644251853227615
44.0,0.033922262489795685
48.0,0.0323476679623127
52.0,0.030992038547992706
56.0,0.029670575633645058
60.0,0.028404423967003822
64.0,0.027186183258891106
72.0,0.02489420585334301
80.0,0.022890448570251465
88.0,0.021365603432059288
96.0,0.01999094896018505
104.0,0.01892051286995411
112.0,0.018012668937444687
120.0,0.016750380396842957
128.0,0.015230954624712467
144.0,0.01293028611689806
160.0,0.011703269556164742
176.0,0.011040906421840191
192.0,0.010675796307623386
208.0,0.010006454773247242
224.0,0.008683430962264538
240.0,0.007774191442877054
256.0,0.007486793678253889
288.0,0.006224139127880335
320.0,0.004323558881878853
352.0,0.0013292011572048068
384.0,-0.0015012983931228518
416.0,-0.002573607489466667
448.0,-0.002110808389261365
480.0,-0.0006978738238103688
512.0,0.0002066166780423373
576.0,9.419977868674323e-05
640.0,-0.0008252395200543106
704.0,-0.001558359945192933
768.0,0.0006729907472617924
832.0,0.00295464601367712
896.0,0.0009133306448347867
960.0,0.0031530004926025867
1024.0,0.006948651280254126
1152.0,0.006646283902227879
1280.0,0.004911769647151232
1408.0,0.00666756322607398
1536.0,0.0063935271464288235
1664.0,0.0028943114448338747
1792.0,0.0017421372467651963
1920.0,-0.00046566533274017274
2048.0,-0.003653537016361952
2304.0,-0.0007127546123228967
2560.0,-0.0006791925407014787
2816.0,0.00432719336822629
3072.0,0.0017980802804231644
3328.0,-0.009583089500665665
3584.0,-0.005989881698042154
3840.0,0.005175956059247255
4096.0,0.0017801967915147543
4608.0,-0.004711507819592953
5120.0,-0.0012581346090883017
5632.0,0.0039192987605929375
6144.0,0.0008291849517263472
6656.0,-0.0018811261979863048
7168.0,0.0020979486871510744
7680.0,-0.005617260467261076
8192.0,-0.00012441870057955384
9216.0,-0.0056462944485247135
10240.0,-0.0006360795814543962
11264.0,-0.003483629785478115
12288.0,-0.006401003338396549
13312.0,-0.003828859655186534
14336.0,0.0010848677484318614
end
