version,3.0
numOfCh,1
type,point
parent_name,0-cuts
ch_type,1_1
kcount,1
numberNandB,1
brightnessNandB,1
carpet pos,0
pc,0
Time (ms),CH1 Auto-Correlation
1.0,0.03431177884340286
2.0,0.03373206779360771
3.0,0.033177196979522705
4.0,0.03265513479709625
5.0,0.03213455528020859
6.0,0.031618859618902206
7.0,0.03110336884856224
8.0,0.030596762895584106
9.0,0.03010758012533188
10.0,0.02962598204612732
11.0,0.029161816462874413
12.0,0.028715768828988075
13.0,0.02826637215912342
14.0,0.027839137241244316
15.0,0.02742244116961956
16.0,0.027019040659070015
18.0,0.026209674775600433
20.0,0.02544141560792923
22.0,0.02470138855278492
24.0,0.023988263681530952
26.0,0.023349516093730927
28.0,0.022761452943086624
30.0,0.022213486954569817
32.0,0.021728990599513054
36.0,0.020793752744793892
40.0,0.01992378942668438
44.0,0.019114900380373
48.0,0.018410271033644676
52.0,0.01779155433177948
56.0,0.017202014103531837
60.0,0.01663229428231716
64.0,0.016138825565576553
72.0,0.015306150540709496
80.0,0.0146842822432518
88.0,0.014080896973609924
96.0,0.013401344418525696
104.0,0.012780743651092052
112.0,0.012192096561193466
120.0,0.011628170497715473
128.0,0.011107606813311577
144.0,0.01011592149734497
160.0,0.009265972301363945
176.0,0.008608807809650898
192.0,0.007924347184598446
208.0,0.007299041375517845
224.0,0.006282682530581951
240.0,0.005088996607810259
256.0,0.0038190253544598818
288.0,0.0025181607343256474
320.0,0.0016093201702460647
352.0,0.0013413409469649196
384.0,0.00043704439303837717
416.0,0.0003354140499141067
448.0,0.00023303863417822868
480.0,0.0007407111115753651
512.0,0.0006803199648857117
576.0,-0.0007100145448930562
640.0,-0.00043111247941851616
704.0,-0.0012505730846896768
768.0,-0.001955401850864291
832.0,-0.0008730050758458674
896.0,0.00023191614309325814
960.0,0.0003771326446440071
1024.0,0.0025782729499042034
1152.0,0.0037197177298367023
1280.0,0.002984828082844615
1408.0,0.00015963331679813564
1536.0,-0.0019160559168085456
1664.0,-0.0020483466796576977
1792.0,-0.0020043235272169113
1920.0,-0.0019990766886621714
2048.0,-0.0009085733909159899
2304.0,0.0008832263411022723
2560.0,0.0028043731581419706
2816.0,-0.0003237738274037838
3072.0,-0.003988080658018589
3328.0,-0.0010290950303897262
3584.0,0.001076520187780261
3840.0,0.0014548745239153504
4096.0,0.0007744104950688779
4608.0,-0.0018470478244125843
5120.0,-0.0006460780859924853
5632.0,-0.004755422472953796
6144.0,0.0008520000264979899
6656.0,0.0006533227860927582
7168.0,0.0021750805899500847
7680.0,0.002501067705452442
8192.0,-0.005182116758078337
9216.0,-0.0025724514853209257
10240.0,-0.0024484519381076097
11264.0,-0.0022801177110522985
12288.0,-0.00012944794434588403
13312.0,0.005535098258405924
14336.0,0.006278249900788069
end
