version,3.0
numOfCh,1
type,point
parent_name,0-cuts
ch_type,1_1
kcount,1
numberNandB,1
brightnessNandB,1
carpet pos,0
pc,0
Time (ms),CH1 Auto-Correlation
1.0,0.03203679621219635
2.0,0.03147498890757561
3.0,0.030927879735827446
4.0,0.030397286638617516
5.0,0.029899243265390396
6.0,0.029428301379084587
7.0,0.02896387130022049
8.0,0.028503958135843277
9.0,0.02805308997631073
10.0,0.027621125802397728
11.0,0.027217814698815346
12.0,0.02682795748114586
13.0,0.02644004300236702
14.0,0.02604725956916809
15.0,0.025657450780272484
16.0,0.025291476398706436
18.0,0.024582454934716225
20.0,0.023924270644783974
22.0,0.023311706259846687
24.0,0.02273225039243698
26.0,0.02216857485473156
28.0,0.02164158970117569
30.0,0.021144773811101913
32.0,0.02065451070666313
36.0,0.019742928445339203
40.0,0.01892697624862194
44.0,0.018246164545416832
48.0,0.017725570127367973
52.0,0.01731192320585251
56.0,0.01698583923280239
60.0,0.016707677394151688
64.0,0.01643701270222664
72.0,0.015889817848801613
80.0,0.015294660814106464
88.0,0.014544053003191948
96.0,0.013560350984334946
104.0,0.012705444358289242
112.0,0.012178700417280197
120.0,0.011702140793204308
128.0,0.01131969504058361
144.0,0.0108181182295084
160.0,0.010389373637735844
176.0,0.010081621818244457
192.0,0.009959882125258446
208.0,0.009466595947742462
224.0,0.008611085824668407
240.0,0.00795318465679884
256.0,0.007889267057180405
288.0,0.0069363173097372055
320.0,0.005602892488241196
352.0,0.004385441541671753
384.0,0.0026605986058712006
416.0,0.001329167396761477
448.0,0.0008765618549659848
480.0,0.0011192283127456903
512.0,0.0010812078835442662
576.0,0.0016945118550211191
640.0,0.0018153892597183585
704.0,0.0007915871683508158
768.0,0.0008707183296792209
832.0,0.0018176150042563677
896.0,0.0007693329243920743
960.0,0.0005074571818113327
1024.0,1.0157616998185404e-05
1152.0,0.0009403725271113217
1280.0,0.001656671753153205
1408.0,0.0010346000781282783
1536.0,0.0005798407946713269
1664.0,0.000556942424736917
1792.0,0.0017791358986869454
1920.0,0.001917709712870419
2048.0,0.0019106612307950854
2304.0,0.0015208725817501545
2560.0,0.0012556191068142653
2816.0,0.0017140739364549518
3072.0,0.003255337942391634
3328.0,-0.0015798619715496898
3584.0,-0.0016551370499655604
3840.0,0.00042651622788980603
4096.0,-0.001405551447533071
4608.0,-0.003052341053262353
5120.0,-0.0005500342231243849
5632.0,-0.0015648137778043747
6144.0,0.0029361818451434374
6656.0,0.0001597622176632285
7168.0,-0.0038101302925497293
7680.0,-0.005981726571917534
8192.0,-0.0008615629049018025
9216.0,-0.003813081420958042
10240.0,-0.0061544496566057205
11264.0,-0.0020770749542862177
12288.0,0.0011450614547356963
13312.0,0.0008878991939127445
14336.0,0.003805553773418069
end
