version,3.0
numOfCh,1
type,point
parent_name,0-cuts
ch_type,1_1
kcount,1
numberNandB,1
brightnessNandB,1
carpet pos,0
pc,0
Time (ms),CH1 Auto-Correlation
1.0,0.03025193139910698
2.0,0.029675690457224846
3.0,0.029111802577972412
4.0,0.02855430357158184
5.0,0.028001992031931877
6.0,0.02746076136827469
7.0,0.02694140560925007
8.0,0.026445694267749786
9.0,0.02596004493534565
10.0,0.02547835372388363
11.0,0.025030575692653656
12.0,0.024603907018899918
13.0,0.024201834574341774
14.0,0.023799261078238487
15.0,0.023431338369846344
16.0,0.023067127913236618
18.0,0.02236713282763958
20.0,0.02171109989285469
22.0,0.021088434383273125
24.0,0.02049948275089264
26.0,0.019945640116930008
28.0,0.019437633454799652
30.0,0.018964990973472595
32.0,0.018528053537011147
36.0,0.01767701841890812
40.0,0.016842328011989594
44.0,0.016074838116765022
48.0,0.015440310351550579
52.0,0.014862671494483948
56.0,0.014368874952197075
60.0,0.01390819437801838
64.0,0.013442154973745346
72.0,0.012452661991119385
80.0,0.011623242869973183
88.0,0.010860801674425602
96.0,0.010223410092294216
104.0,0.00979816447943449
112.0,0.009421040304005146
120.0,0.008974303491413593
128.0,0.008531845174729824
144.0,0.00803864374756813
160.0,0.007586275693029165
176.0,0.007076193578541279
192.0,0.0066027590073645115
208.0,0.006617935840040445
224.0,0.006332402117550373
240.0,0.0052904849871993065
256.0,0.0036341131199151278
288.0,0.0015517311403527856
320.0,8.003044786164537e-05
352.0,-0.0005028950399719179
384.0,-0.0004120145458728075
416.0,0.0007623743731528521
448.0,0.0014309390680864453
480.0,0.0018698535859584808
512.0,0.0024545679334551096
576.0,0.0035107533913105726
640.0,0.0034050941467285156
704.0,0.005121676251292229
768.0,0.007025151047855616
832.0,0.005717873573303223
896.0,0.004578194115310907
960.0,0.0028909652028232813
1024.0,0.0007634921930730343
1152.0,-0.00028260500403121114
1280.0,0.0015290435403585434
1408.0,0.004204093478620052
1536.0,0.0033101383596658707
1664.0,0.00011991567589575425
1792.0,-0.002627225825563073
1920.0,-0.0017061603721231222
2048.0,0.0015606750966981053
2304.0,0.0006600123015232384
2560.0,-0.0003250711306463927
2816.0,0.002143720630556345
3072.0,0.0029346239753067493
3328.0,-0.0005442270776256919
3584.0,0.0012180717894807458
3840.0,0.0032968816813081503
4096.0,0.002179673407226801
4608.0,0.0008800717769190669
5120.0,-0.0018691994482651353
5632.0,-0.0027746150735765696
6144.0,-0.0022084671072661877
6656.0,-0.002408574568107724
7168.0,-0.002209110651165247
7680.0,-0.002686343854293227
8192.0,-0.0023625020403414965
9216.0,-0.0014661552850157022
10240.0,-0.0024864303413778543
11264.0,-0.002997871721163392
12288.0,-0.0019210779573768377
13312.0,-0.0007849073153920472
14336.0,-0.0028959244955331087
end
