version,3.0
numOfCh,1
type,point
parent_name,0-cuts
ch_type,1_1
kcount,1
numberNandB,1
brightnessNandB,1
carpet pos,0
pc,0
Time (ms),CH1 Auto-Correlation
1.0,0.07005324214696884
2.0,0.06883636862039566
3.0,0.06765377521514893
4.0,0.06655407696962357
5.0,0.06551958620548248
6.0,0.06450998038053513
7.0,0.06352949887514114
8.0,0.06259427219629288
9.0,0.06171835586428642
10.0,0.06087007001042366
11.0,0.060048893094062805
12.0,0.05923261493444443
13.0,0.05845995619893074
14.0,0.057700466364622116
15.0,0.05702299624681473
16.0,0.05637349188327789
18.0,0.05513615533709526
20.0,0.053949952125549316
22.0,0.05279794707894325
24.0,0.05163922533392906
26.0,0.050561919808387756
28.0,0.04950635880231857
30.0,0.04836195707321167
32.0,0.04717810079455376
36.0,0.04505007714033127
40.0,0.04329628869891167
44.0,0.041906338185071945
48.0,0.04052777215838432
52.0,0.03903134912252426
56.0,0.037494003772735596
60.0,0.036097168922424316
64.0,0.03489886596798897
72.0,0.03272022306919098
80.0,0.03081289492547512
88.0,0.029032977297902107
96.0,0.02675822004675865
104.0,0.024712657555937767
112.0,0.02351251430809498
120.0,0.022846730425953865
128.0,0.021777374669909477
144.0,0.018921740353107452
160.0,0.016525497660040855
176.0,0.014798617921769619
192.0,0.012604394927620888
208.0,0.011084966361522675
224.0,0.01056742761284113
240.0,0.010409633629024029
256.0,0.010051327757537365
288.0,0.009970174171030521
320.0,0.008535548113286495
352.0,0.008017410524189472
384.0,0.008458158001303673
416.0,0.008774850517511368
448.0,0.006891487166285515
480.0,0.0045151496306061745
512.0,0.004119720309972763
576.0,0.0035304322373121977
640.0,0.0018848259933292866
704.0,0.0031264701392501593
768.0,0.0033413562923669815
832.0,0.002636339282616973
896.0,0.0010811970569193363
960.0,0.0006209797575138509
1024.0,6.844793097116053e-05
1152.0,0.0011865629348903894
1280.0,0.004759124014526606
1408.0,-0.001086933771148324
1536.0,-0.004248995799571276
1664.0,-0.004785222467035055
1792.0,-0.006257094908505678
1920.0,-0.002556025981903076
2048.0,0.005087248049676418
2304.0,-0.00016745498578529805
2560.0,-0.004359235055744648
2816.0,-0.008836397901177406
3072.0,-0.01042973343282938
3328.0,0.0026238388381898403
3584.0,-0.005225380416959524
3840.0,-0.00962640717625618
4096.0,0.00010870947153307498
4608.0,0.0047910804860293865
5120.0,-0.0009995897999033332
5632.0,0.002219237620010972
6144.0,0.0027731889858841896
6656.0,0.007661118172109127
7168.0,-0.0012131567345932126
7680.0,-0.006929691880941391
8192.0,-0.004751252941787243
9216.0,-0.012449592351913452
10240.0,-0.002154140966013074
11264.0,0.005323534831404686
12288.0,-0.0018933993997052312
13312.0,0.0032367869280278683
14336.0,0.0009525523637421429
end
