version,3.0
numOfCh,1
type,point
parent_name,0-cuts
ch_type,1_1
kcount,1
numberNandB,1
brightnessNandB,1
carpet pos,0
pc,0
Time (ms),CH1 Auto-Correlation
1.0,0.026450254023075104
2.0,0.026060832664370537
3.0,0.025676729157567024
4.0,0.02530900202691555
5.0,0.024950847029685974
6.0,0.024591771885752678
7.0,0.024234557524323463
8.0,0.023880142718553543
9.0,0.023527229204773903
10.0,0.023198207840323448
11.0,0.022883005440235138
12.0,0.022567205131053925
13.0,0.02225404419004917
14.0,0.021953772753477097
15.0,0.021666456013917923
16.0,0.021399125456809998
18.0,0.0208866149187088
20.0,0.020386366173624992
22.0,0.019905569031834602
24.0,0.019428439438343048
26.0,0.01897319033741951
28.0,0.018523123115301132
30.0,0.018103841692209244
32.0,0.01769166998565197
36.0,0.016946202144026756
40.0,0.016255997121334076
44.0,0.01566491462290287
48.0,0.015144762583076954
52.0,0.014670554548501968
56.0,0.014196922071278095
60.0,0.013708310201764107
64.0,0.013243857771158218
72.0,0.012574487365782261
80.0,0.012043103575706482
88.0,0.011560102924704552
96.0,0.011117829009890556
104.0,0.01060557272285223
112.0,0.010148134082555771
120.0,0.009665975347161293
128.0,0.00929221697151661
144.0,0.008991626091301441
160.0,0.008370799943804741
176.0,0.007943508215248585
192.0,0.00745248282328248
208.0,0.006966154556721449
224.0,0.0064433845691382885
240.0,0.005835946183651686
256.0,0.00547429732978344
288.0,0.005474495235830545
320.0,0.005349508952349424
352.0,0.0051861959509551525
384.0,0.004807669203728437
416.0,0.003781042294576764
448.0,0.0031487017404288054
480.0,0.0031982986256480217
512.0,0.0032131217885762453
576.0,0.002441314049065113
640.0,0.0025922793429344893
704.0,0.00214533694088459
768.0,0.0033303541131317616
832.0,0.002691265195608139
896.0,0.0021710414439439774
960.0,0.002049227710813284
1024.0,0.0019098068587481976
1152.0,-5.452404366224073e-05
1280.0,-0.0006870133220218122
1408.0,-0.0016534473979845643
1536.0,-0.0028942206408828497
1664.0,-0.004830923397094011
1792.0,-0.004898003302514553
1920.0,-0.004401542246341705
2048.0,-0.003413235070183873
2304.0,-0.002112691756337881
2560.0,-0.002437366871163249
2816.0,-0.0023214707616716623
3072.0,0.0002782678639050573
3328.0,0.0005556218093261123
3584.0,0.0004429628897923976
3840.0,0.001592916203662753
4096.0,0.0032397108152508736
4608.0,0.002133541740477085
5120.0,-0.001607505022548139
5632.0,-0.003126150695607066
6144.0,-0.004252199549227953
6656.0,-0.0017510788748040795
7168.0,0.0028760528657585382
7680.0,0.001651562750339508
8192.0,0.002858867635950446
9216.0,-0.0029176841489970684
10240.0,-0.005679261405020952
11264.0,0.001227287924848497
12288.0,0.00241024699062109
13312.0,-0.0031507578678429127
14336.0,0.0039283172227442265
end
