version,3.0
numOfCh,1
type,point
parent_name,0-cuts
ch_type,1_1
kcount,1
numberNandB,1
brightnessNandB,1
carpet pos,0
pc,0
Time (ms),CH1 Auto-Correlation
1.0,0.0198813509196043
2.0,0.019525974988937378
3.0,0.01917540654540062
4.0,0.018838057294487953
5.0,0.018514513969421387
6.0,0.01820557937026024
7.0,0.01790776476264
8.0,0.017617108300328255
9.0,0.017340730875730515
10.0,0.017081405967473984
11.0,0.016836898401379585
12.0,0.01659800298511982
13.0,0.01635625585913658
14.0,0.016108699142932892
15.0,0.015870369970798492
16.0,0.015637019649147987
18.0,0.015201868489384651
20.0,0.014780872501432896
22.0,0.014362058602273464
24.0,0.013952843844890594
26.0,0.013562523759901524
28.0,0.01319971401244402
30.0,0.012860720977187157
32.0,0.012528561055660248
36.0,0.01190250739455223
40.0,0.011326398700475693
44.0,0.010812489315867424
48.0,0.010372499004006386
52.0,0.009920479729771614
56.0,0.009497237391769886
60.0,0.00911935418844223
64.0,0.008783225901424885
72.0,0.00822622049599886
80.0,0.007755951955914497
88.0,0.007415242958813906
96.0,0.0070361485704779625
104.0,0.0065973917953670025
112.0,0.0062144179828464985
120.0,0.005922398529946804
128.0,0.005602823104709387
144.0,0.005010561086237431
160.0,0.0043287151493132114
176.0,0.003709819633513689
192.0,0.0032951398752629757
208.0,0.0029651380609720945
224.0,0.0026525347493588924
240.0,0.002395401243120432
256.0,0.0022873880807310343
288.0,0.0022221736144274473
320.0,0.0018380790716037154
352.0,0.001236966927535832
384.0,0.0008279508328996599
416.0,0.00015626200183760375
448.0,0.00019543968664947897
480.0,0.00030449157929979265
512.0,5.420757588581182e-05
576.0,-5.963770036032656e-06
640.0,0.0006555174477398396
704.0,0.002230674959719181
768.0,0.0021301277447491884
832.0,0.0008285986259579659
896.0,0.0005773865268565714
960.0,-0.0006064747576601803
1024.0,8.742481441004202e-05
1152.0,0.001272132620215416
1280.0,0.0012317735236138105
1408.0,0.00103813037276268
1536.0,-0.0006821933202445507
1664.0,-0.00032071792520582676
1792.0,-0.0010709979105740786
1920.0,-0.0002763471275102347
2048.0,-0.00037235967465676367
2304.0,-0.002249883720651269
2560.0,-0.0003628936246968806
2816.0,-0.0007691591745242476
3072.0,-0.0022826914209872484
3328.0,-0.0008058958919718862
3584.0,0.00037326713209040463
3840.0,0.0005853031761944294
4096.0,0.0009887258056551218
4608.0,-0.00038477961788885295
5120.0,0.0013846952933818102
5632.0,-0.002105491003021598
6144.0,0.00040084001375362277
6656.0,-0.00032023375388234854
7168.0,0.00024151598336175084
7680.0,0.0013453923165798187
8192.0,-0.0009435756946913898
9216.0,0.0005877211224287748
10240.0,-0.00021754115005023777
11264.0,-0.0034121654462069273
12288.0,-0.0037422277964651585
13312.0,0.0014256088761612773
14336.0,0.005084927659481764
end
