version,3.0
numOfCh,1
type,point
parent_name,0-cuts
ch_type,1_1
kcount,1
numberNandB,1
brightnessNandB,1
carpet pos,0
pc,0
Time (ms),CH1 Auto-Correlation
1.0,0.0699727013707161
2.0,0.06875395774841309
3.0,0.06758654862642288
4.0,0.06648480892181396
5.0,0.06542341411113739
6.0,0.06438761204481125
7.0,0.06339229643344879
8.0,0.062427669763565063
9.0,0.06148243322968483
10.0,0.060576651245355606
11.0,0.0597042553126812
12.0,0.058864347636699677
13.0,0.05806681513786316
14.0,0.05730992928147316
15.0,0.05656213313341141
16.0,0.05580538138747215
18.0,0.054346323013305664
20.0,0.052983928471803665
22.0,0.051694221794605255
24.0,0.05044619366526604
26.0,0.04921577870845795
28.0,0.04801523685455322
30.0,0.04689997434616089
32.0,0.045821916311979294
36.0,0.04383891075849533
40.0,0.04185201972723007
44.0,0.040061213076114655
48.0,0.038323722779750824
52.0,0.03673625364899635
56.0,0.03524383157491684
60.0,0.03398324176669121
64.0,0.03271694853901863
72.0,0.03043380379676819
80.0,0.028474921360611916
88.0,0.026816682890057564
96.0,0.025310661643743515
104.0,0.02424476109445095
112.0,0.023305576294660568
120.0,0.02274513989686966
128.0,0.022237960249185562
144.0,0.02016889862716198
160.0,0.018413161858916283
176.0,0.016334908083081245
192.0,0.014650573953986168
208.0,0.013510378077626228
224.0,0.012599963694810867
240.0,0.01148552168160677
256.0,0.010075858794152737
288.0,0.007814785465598106
320.0,0.0069271596148610115
352.0,0.00693375151604414
384.0,0.008194411173462868
416.0,0.009676421992480755
448.0,0.009559450671076775
480.0,0.008529458194971085
512.0,0.007714437786489725
576.0,0.005189649295061827
640.0,0.009102820418775082
704.0,0.008602327667176723
768.0,0.007597992196679115
832.0,0.008757852017879486
896.0,0.006848870776593685
960.0,0.0045598940923810005
1024.0,0.006877584382891655
1152.0,0.009314807131886482
1280.0,0.005251522175967693
1408.0,-0.0008948998874984682
1536.0,-0.0004344089247751981
1664.0,-0.00041321845492348075
1792.0,0.006080810446292162
1920.0,0.004160838667303324
2048.0,0.0008084358996711671
2304.0,-0.0006836751708760858
2560.0,-0.007810369599610567
2816.0,-0.0015145399374887347
3072.0,-0.0013673725770786405
3328.0,-0.0059171561151742935
3584.0,-0.00662469957023859
3840.0,-0.005813263356685638
4096.0,-0.004523227456957102
4608.0,-0.00039284638478420675
5120.0,0.0005992231308482587
5632.0,0.005714857019484043
6144.0,0.003278465708717704
6656.0,0.004760076757520437
7168.0,2.4251125068985857e-05
7680.0,-0.002154459012672305
8192.0,-0.001180255669169128
9216.0,-0.009357461705803871
10240.0,-0.00514088524505496
11264.0,-0.009046331979334354
12288.0,-0.009985174983739853
13312.0,-0.004496127367019653
14336.0,0.004522078204900026
end
