version,3.0
numOfCh,1
type,point
parent_name,0-cuts
ch_type,1_1
kcount,1
numberNandB,1
brightnessNandB,1
carpet pos,0
pc,0
Time (ms),CH1 Auto-Correlation
1.0,0.020644020289182663
2.0,0.020259791985154152
3.0,0.019886411726474762
4.0,0.019522741436958313
5.0,0.01918049156665802
6.0,0.018844004720449448
7.0,0.018513210117816925
8.0,0.01819523051381111
9.0,0.017884626984596252
10.0,0.017580199986696243
11.0,0.017292914912104607
12.0,0.017009660601615906
13.0,0.01672491244971752
14.0,0.016451366245746613
15.0,0.016175875440239906
16.0,0.015904607251286507
18.0,0.015423069708049297
20.0,0.014985524117946625
22.0,0.014548396691679955
24.0,0.014123531058430672
26.0,0.01374007947742939
28.0,0.013378865085542202
30.0,0.013018532656133175
32.0,0.012660708278417587
36.0,0.011981375515460968
40.0,0.011375615373253822
44.0,0.010781592689454556
48.0,0.010258572176098824
52.0,0.009803803637623787
56.0,0.009351124055683613
60.0,0.00894214678555727
64.0,0.008578364737331867
72.0,0.007979406043887138
80.0,0.007375313900411129
88.0,0.00672775786370039
96.0,0.006139910779893398
104.0,0.005702606867998838
112.0,0.005304207559674978
120.0,0.004910308867692947
128.0,0.004464412108063698
144.0,0.0033796820789575577
160.0,0.0025143625680357218
176.0,0.0017825739923864603
192.0,0.0016050721751525998
208.0,0.0019154573092237115
224.0,0.002124450635164976
240.0,0.0025074859149754047
256.0,0.002958309603855014
288.0,0.003433085745200515
320.0,0.004470532294362783
352.0,0.004803418647497892
384.0,0.005126130301505327
416.0,0.004964409861713648
448.0,0.004799367394298315
480.0,0.004310360178351402
512.0,0.003815260250121355
576.0,0.003386169206351042
640.0,0.0030243881046772003
704.0,0.0031203539110720158
768.0,0.002851250348612666
832.0,0.0023715365678071976
896.0,0.0023291464895009995
960.0,0.0008967273752205074
1024.0,0.0006929735536687076
1152.0,0.000890676339622587
1280.0,0.00019391985551919788
1408.0,0.00038029771531000733
1536.0,0.0007989911246113479
1664.0,0.0007827164372429252
1792.0,9.727141150506213e-05
1920.0,-0.00016817903087940067
2048.0,0.00017173471860587597
2304.0,1.886735117295757e-05
2560.0,0.0004700149002019316
2816.0,-0.0007436209707520902
3072.0,-0.0010803279001265764
3328.0,-1.5394707588711753e-05
3584.0,-0.0011047277366742492
3840.0,-0.001195379882119596
4096.0,-0.0006203585071489215
4608.0,-0.0014900695532560349
5120.0,-0.002382590901106596
5632.0,-0.0017721495823934674
6144.0,-0.00011196816194569692
6656.0,0.001080103567801416
7168.0,0.001710688229650259
7680.0,0.0006200314383022487
8192.0,0.0009081950993277133
9216.0,-0.0006620115600526333
10240.0,-0.0009223009110428393
11264.0,-0.0035083149559795856
12288.0,-0.0035168773028999567
13312.0,-0.0015264610992744565
14336.0,-0.004063060972839594
end
