version,3.0
numOfCh,1
type,point
parent_name,0-cuts
ch_type,1_1
kcount,1
numberNandB,1
brightnessNandB,1
carpet pos,0
pc,0
Time (ms),CH1 Auto-Correlation
1.0,0.03500910848379135
2.0,0.03442155942320824
3.0,0.03386359661817551
4.0,0.033322110772132874
5.0,0.03279750049114227
6.0,0.03229564428329468
7.0,0.03180196136236191
8.0,0.0313229076564312
9.0,0.030852220952510834
10.0,0.0303910281509161
11.0,0.029948286712169647
12.0,0.029526203870773315
13.0,0.029115742072463036
14.0,0.028720807284116745
15.0,0.02834860235452652
16.0,0.02799343317747116
18.0,0.027297507971525192
20.0,0.026604633778333664
22.0,0.02590624988079071
24.0,0.025262154638767242
26.0,0.024667911231517792
28.0,0.024076158180832863
30.0,0.023486513644456863
32.0,0.022959964349865913
36.0,0.022012269124388695
40.0,0.021047048270702362
44.0,0.02016928419470787
48.0,0.019349971786141396
52.0,0.01868278533220291
56.0,0.01811961457133293
60.0,0.017518019303679466
64.0,0.016925059258937836
72.0,0.01589740253984928
80.0,0.014956008642911911
88.0,0.014022580347955227
96.0,0.013128433376550674
104.0,0.012274283915758133
112.0,0.011600487865507603
120.0,0.010950758121907711
128.0,0.010171674191951752
144.0,0.00855308398604393
160.0,0.00737046217545867
176.0,0.0059234076179564
192.0,0.004255861509591341
208.0,0.0026829249691218138
224.0,0.0018225045641884208
240.0,0.0017833366291597486
256.0,0.002154366811737418
288.0,0.0019254019716754556
320.0,0.0015932194655761123
352.0,0.0009710851009003818
384.0,0.0013072517467662692
416.0,0.0016006758669391274
448.0,0.0017959513934329152
480.0,0.0012648615520447493
512.0,0.0012869733618572354
576.0,-0.00033820472890511155
640.0,-0.002319481922313571
704.0,-0.0022511715069413185
768.0,-0.0027972881216555834
832.0,-0.000994148082099855
896.0,-0.0025339843705296516
960.0,-0.003572829533368349
1024.0,-0.00491700042039156
1152.0,-0.0035112109035253525
1280.0,-0.0011860495433211327
1408.0,-0.0019946221727877855
1536.0,-0.0028063722420483828
1664.0,-0.00023818442423362285
1792.0,0.0009242268861271441
1920.0,-9.257587953470647e-05
2048.0,0.0010924091329798102
2304.0,5.010377208236605e-05
2560.0,0.0025680246762931347
2816.0,0.002303037326782942
3072.0,0.0018576718866825104
3328.0,0.0023616335820406675
3584.0,5.156283441465348e-05
3840.0,-7.313410606002435e-05
4096.0,-0.0016292184591293335
4608.0,0.0004577925428748131
5120.0,0.00024054604000411928
5632.0,-0.0002143334859283641
6144.0,0.000421320233726874
6656.0,-0.0009848346235230565
7168.0,-0.0003224823158234358
7680.0,-0.00031394613324664533
8192.0,-0.003360271453857422
9216.0,-0.0007361671305261552
10240.0,-0.0019119514618068933
11264.0,-0.0011797661427408457
12288.0,-0.0016586221754550934
13312.0,-0.0006915156845934689
14336.0,-0.0019938002806156874
end
