version,3.0
numOfCh,1
type,point
parent_name,0-cuts
ch_type,1_1
kcount,1
numberNandB,1
brightnessNandB,1
carpet pos,0
pc,0
Time (ms),CH1 Auto-Correlation
1.0,0.030175456777215004
2.0,0.029623838141560555
3.0,0.02909807115793228
4.0,0.02858750894665718
5.0,0.028082380071282387
6.0,0.0275840125977993
7.0,0.027096038684248924
8.0,0.026628315448760986
9.0,0.026166513562202454
10.0,0.025716274976730347
11.0,0.025275710970163345
12.0,0.024861346930265427
13.0,0.024472074583172798
14.0,0.024094222113490105
15.0,0.023712128400802612
16.0,0.023337095975875854
18.0,0.022614210844039917
20.0,0.02192786894738674
22.0,0.021278075873851776
24.0,0.020708218216896057
26.0,0.020152555778622627
28.0,0.019585825502872467
30.0,0.01906583458185196
32.0,0.018575772643089294
36.0,0.01767709106206894
40.0,0.016870727762579918
44.0,0.016128765419125557
48.0,0.015455980785191059
52.0,0.014822962693870068
56.0,0.014207473024725914
60.0,0.013596517965197563
64.0,0.013109223917126656
72.0,0.012297384440898895
80.0,0.011543411761522293
88.0,0.010749763809144497
96.0,0.010028938762843609
104.0,0.009270693175494671
112.0,0.008581682108342648
120.0,0.00812765397131443
128.0,0.00788190308958292
144.0,0.007053675130009651
160.0,0.0063086641021072865
176.0,0.006105681415647268
192.0,0.005957429762929678
208.0,0.0059463148936629295
224.0,0.005724666174501181
240.0,0.00553108099848032
256.0,0.005677876062691212
288.0,0.0059579042717814445
320.0,0.005296363960951567
352.0,0.004361655097454786
384.0,0.0037619841750711203
416.0,0.0038849664852023125
448.0,0.0035986932925879955
480.0,0.002996220951899886
512.0,0.002125984523445368
576.0,0.0007933976012282073
640.0,-0.0002156049304176122
704.0,-0.00021850463235750794
768.0,0.00045934959780424833
832.0,0.0019643392879515886
896.0,0.002157505601644516
960.0,0.0011575523531064391
1024.0,-8.317988977069035e-05
1152.0,-0.001201037084683776
1280.0,-0.002021175343543291
1408.0,-0.005869820713996887
1536.0,-0.004458319395780563
1664.0,-0.005269032437354326
1792.0,-0.0013390519889071584
1920.0,-0.0011050922330468893
2048.0,0.0009820108534768224
2304.0,-0.0007651026826351881
2560.0,-0.0005624599871225655
2816.0,0.0005415419000200927
3072.0,-0.001820421894080937
3328.0,-0.002847084542736411
3584.0,-0.0035671654623001814
3840.0,-0.0005888768937438726
4096.0,-9.654857421992347e-06
4608.0,0.0034822707530111074
5120.0,0.003196506528183818
5632.0,0.0031155464239418507
6144.0,-0.0005600176518782973
6656.0,-0.0027923097368329763
7168.0,-0.004829277750104666
7680.0,-0.002318109618499875
8192.0,-0.0010011534905061126
9216.0,-0.001336785964667797
10240.0,0.004160052165389061
11264.0,-0.0005395298940129578
12288.0,-0.0024856708478182554
13312.0,0.0011252706171944737
14336.0,0.00012390142364893109
end
