version,3.0
numOfCh,1
type,point
parent_name,0-cuts
ch_type,1_1
kcount,1
numberNandB,1
brightnessNandB,1
carpet pos,0
pc,0
Time (ms),CH1 Auto-Correlation
1.0,0.023254670202732086
2.0,0.02287360094487667
3.0,0.022504905238747597
4.0,0.022144246846437454
5.0,0.021797414869070053
6.0,0.021461978554725647
7.0,0.021124688908457756
8.0,0.020788514986634254
9.0,0.0204498078674078
10.0,0.02011633850634098
11.0,0.01979740522801876
12.0,0.019484231248497963
13.0,0.019183894619345665
14.0,0.01889995113015175
15.0,0.018615474924445152
16.0,0.018343299627304077
18.0,0.01783532090485096
20.0,0.01734907552599907
22.0,0.0168874841183424
24.0,0.01647202856838703
26.0,0.01607135497033596
28.0,0.015671677887439728
30.0,0.015305979177355766
32.0,0.014965780079364777
36.0,0.014350329525768757
40.0,0.013758606277406216
44.0,0.013167442753911018
48.0,0.012592609971761703
52.0,0.012049649842083454
56.0,0.011485612019896507
60.0,0.010941124521195889
64.0,0.010487914085388184
72.0,0.009706022217869759
80.0,0.009017042815685272
88.0,0.008353114128112793
96.0,0.00786188431084156
104.0,0.00746528897434473
112.0,0.007091035135090351
120.0,0.006858767010271549
128.0,0.006513810716569424
144.0,0.00597265874966979
160.0,0.005554934497922659
176.0,0.004999522585421801
192.0,0.004613654688000679
208.0,0.004229109268635511
224.0,0.003901208285242319
240.0,0.0034275082871317863
256.0,0.0028118668124079704
288.0,0.0018586245132610202
320.0,0.0009701784583739936
352.0,0.0009800978004932404
384.0,0.0008236020803451538
416.0,0.0011959882685914636
448.0,0.0018013524822890759
480.0,0.002006660681217909
512.0,0.002586240181699395
576.0,0.0017673267284408212
640.0,0.00048377184430137277
704.0,0.0005173787358216941
768.0,0.0007510671857744455
832.0,0.001272666617296636
896.0,0.0013058806071057916
960.0,0.001483736908994615
1024.0,0.0014315055450424552
1152.0,0.0016835177084431052
1280.0,0.0007448694668710232
1408.0,-0.00048441957915201783
1536.0,-0.0019082007929682732
1664.0,-0.0034641476813703775
1792.0,-0.0034378180280327797
1920.0,-0.0014240797609090805
2048.0,0.0006180130294524133
2304.0,-0.0010865312069654465
2560.0,-0.0013823829358443618
2816.0,-0.000969965010881424
3072.0,0.0017588469199836254
3328.0,0.0012572715058922768
3584.0,0.0009689720463939011
3840.0,-0.0001266351609956473
4096.0,0.001413935562595725
4608.0,-0.0009708392899483442
5120.0,-0.0010931631550192833
5632.0,0.00032720863237045705
6144.0,-0.0005008255247958004
6656.0,-0.00016779637371655554
7168.0,-0.0006375166121870279
7680.0,-0.0031553367152810097
8192.0,-0.0028441823087632656
9216.0,-0.0014258084120228887
10240.0,0.0007633882923983037
11264.0,0.00043189150164835155
12288.0,-0.002055567456409335
13312.0,-0.0008158485870808363
14336.0,0.003116820240393281
end
