version,3.0
numOfCh,1
type,point
parent_name,0-cuts
ch_type,1_1
kcount,1
numberNandB,1
brightnessNandB,1
carpet pos,0
pc,0
Time (ms),CH1 Auto-Correlation
1.0,0.041952647268772125
2.0,0.0413598008453846
3.0,0.040775250643491745
4.0,0.040210481733083725
5.0,0.0396605022251606
6.0,0.039137449115514755
7.0,0.03864077478647232
8.0,0.038158465176820755
9.0,0.037687789648771286
10.0,0.037231434136629105
11.0,0.03677819296717644
12.0,0.03633848577737808
13.0,0.03591461852192879
14.0,0.03549637645483017
15.0,0.03508785367012024
16.0,0.034704629331827164
18.0,0.03397029638290405
20.0,0.03325984254479408
22.0,0.03258159011602402
24.0,0.03195369243621826
26.0,0.03134338930249214
28.0,0.03077990747988224
30.0,0.030237916857004166
32.0,0.029681678861379623
36.0,0.02861405722796917
40.0,0.02763558179140091
44.0,0.026708846911787987
48.0,0.0258499588817358
52.0,0.025031791999936104
56.0,0.02424885891377926
60.0,0.02350776270031929
64.0,0.022826682776212692
72.0,0.021510561928153038
80.0,0.020405760034918785
88.0,0.019565176218748093
96.0,0.018789762631058693
104.0,0.01815766468644142
112.0,0.01771249808371067
120.0,0.01714826188981533
128.0,0.016755511984229088
144.0,0.01650548353791237
160.0,0.016274284571409225
176.0,0.01560202706605196
192.0,0.01494087465107441
208.0,0.014453977346420288
224.0,0.014038358815014362
240.0,0.013855502009391785
256.0,0.01422661542892456
288.0,0.014637356624007225
320.0,0.014161010272800922
352.0,0.012366976588964462
384.0,0.009857909753918648
416.0,0.007374676410108805
448.0,0.005826031789183617
480.0,0.005117520224303007
512.0,0.005207528360188007
576.0,0.00582123501226306
640.0,0.0057537672109901905
704.0,0.0038016673643141985
768.0,0.002951590111479163
832.0,0.0025041974149644375
896.0,0.001958054257556796
960.0,0.004435628652572632
1024.0,0.004166136495769024
1152.0,0.002336544683203101
1280.0,0.004871186334639788
1408.0,0.0051736049354076385
1536.0,0.005379979964345694
1664.0,0.005815225653350353
1792.0,0.002094716066494584
1920.0,0.002949508372694254
2048.0,0.0007658808026462793
2304.0,-0.0007307150517590344
2560.0,-0.0006439496646635234
2816.0,-0.00047428408288396895
3072.0,-0.0013214837526902556
3328.0,-0.003092809347435832
3584.0,-0.0036769204307347536
3840.0,-0.004042183980345726
4096.0,-0.001921370392665267
4608.0,0.0005326391546986997
5120.0,-0.0013038738397881389
5632.0,-0.0016540420474484563
6144.0,0.0021726288832724094
6656.0,-0.005688275210559368
7168.0,-0.005170080345124006
7680.0,-0.00767302792519331
8192.0,-0.009694506414234638
9216.0,0.0007817326113581657
10240.0,-0.0003942578041460365
11264.0,0.0016228891909122467
12288.0,0.00032309527159668505
13312.0,-0.0031987777911126614
14336.0,-0.011639658361673355
end
