version,3.0
numOfCh,1
type,point
parent_name,0-cuts
ch_type,1_1
kcount,1
numberNandB,1
brightnessNandB,1
carpet pos,0
pc,0
Time (ms),CH1 Auto-Correlation
1.0,0.05903584137558937
2.0,0.05783595144748688
3.0,0.05664769187569618
4.0,0.0555107407271862
5.0,0.05443095043301582
6.0,0.05338501185178757
7.0,0.05239194259047508
8.0,0.05145147442817688
9.0,0.05056280642747879
10.0,0.04969213902950287
11.0,0.04883318766951561
12.0,0.04799812659621239
13.0,0.04718491807579994
14.0,0.046387024223804474
15.0,0.04560390114784241
16.0,0.0448523610830307
18.0,0.04347355663776398
20.0,0.04211835563182831
22.0,0.0407610759139061
24.0,0.039417944848537445
26.0,0.0382116325199604
28.0,0.037037625908851624
30.0,0.03592415526509285
32.0,0.03482840582728386
36.0,0.03278491273522377
40.0,0.03087306208908558
44.0,0.029129624366760254
48.0,0.027612753212451935
52.0,0.026086606085300446
56.0,0.024625426158308983
60.0,0.023312609642744064
64.0,0.022058311849832535
72.0,0.019527172669768333
80.0,0.01738760992884636
88.0,0.015645695850253105
96.0,0.014196260832250118
104.0,0.013042561709880829
112.0,0.012034334242343903
120.0,0.010939293541014194
128.0,0.009485372342169285
144.0,0.007445801980793476
160.0,0.006780707743018866
176.0,0.006092949770390987
192.0,0.005878955125808716
208.0,0.0062600988894701
224.0,0.005564204882830381
240.0,0.004739093594253063
256.0,0.004963664337992668
288.0,0.004782817326486111
320.0,0.0011258418671786785
352.0,-0.0012719962978735566
384.0,-0.0017739414470270276
416.0,-0.0006720484234392643
448.0,-0.0007119367364794016
480.0,-0.0017397410701960325
512.0,-0.0036898727994412184
576.0,-0.00016065376985352486
640.0,0.0016237035160884261
704.0,-5.89677028983715e-06
768.0,-0.0023116280790418386
832.0,-0.0018346724100410938
896.0,0.0010581983951851726
960.0,0.00026855134638026357
1024.0,-0.0009400181006640196
1152.0,-0.0008358724880963564
1280.0,0.002896844409406185
1408.0,0.003503866959363222
1536.0,0.0048146056942641735
1664.0,0.0009405392920598388
1792.0,-0.0040677436627447605
1920.0,-0.0023840833455324173
2048.0,-0.005130921956151724
2304.0,-0.0020891232416033745
2560.0,-0.002683671424165368
2816.0,0.0007667785394005477
3072.0,0.0022961387876421213
3328.0,-0.001678429078310728
3584.0,-0.001586364465765655
3840.0,1.9996901755803265e-05
4096.0,-0.0009992854902520776
4608.0,-0.0014624939067289233
5120.0,-0.0018725169356912374
5632.0,-0.0024912876542657614
6144.0,-0.000878863618709147
6656.0,-0.002078911755234003
7168.0,0.0010553156025707722
7680.0,-0.0010508568957448006
8192.0,0.0012711617164313793
9216.0,-0.00032440663198940456
10240.0,-0.0007989243604242802
11264.0,0.0010130659211426973
12288.0,-0.0009577730088494718
13312.0,-0.0026062976103276014
14336.0,0.0027643677312880754
end
