version,3.0
numOfCh,1
type,point
parent_name,0-cuts
ch_type,1_1
kcount,1
numberNandB,1
brightnessNandB,1
carpet pos,0
pc,0
Time (ms),CH1 Auto-Correlation
1.0,0.060722045600414276
2.0,0.05949835106730461
3.0,0.0583052858710289
4.0,0.05714688450098038
5.0,0.05605084076523781
6.0,0.05500680208206177
7.0,0.054009050130844116
8.0,0.05304728075861931
9.0,0.052072543650865555
10.0,0.05113956704735756
11.0,0.05025939643383026
12.0,0.04935338720679283
13.0,0.0484863743185997
14.0,0.04765087366104126
15.0,0.04684017598628998
16.0,0.046071574091911316
18.0,0.044608213007450104
20.0,0.04318629205226898
22.0,0.041859447956085205
24.0,0.040563762187957764
26.0,0.03939070180058479
28.0,0.03830352798104286
30.0,0.03729069605469704
32.0,0.03630242869257927
36.0,0.034343868494033813
40.0,0.032561443746089935
44.0,0.030955323949456215
48.0,0.02950170449912548
52.0,0.02822875790297985
56.0,0.027069099247455597
60.0,0.02609688974916935
64.0,0.02519860863685608
72.0,0.023687098175287247
80.0,0.022130414843559265
88.0,0.020586632192134857
96.0,0.018984194844961166
104.0,0.017430102452635765
112.0,0.015807414427399635
120.0,0.01397185493260622
128.0,0.012638425454497337
144.0,0.011289568617939949
160.0,0.00988011248409748
176.0,0.008265654556453228
192.0,0.007501174695789814
208.0,0.0072802272625267506
224.0,0.007450133562088013
240.0,0.007592702750116587
256.0,0.007665159180760384
288.0,0.0075937616638839245
320.0,0.006608373019844294
352.0,0.005346357356756926
384.0,0.00399065064266324
416.0,0.002919245744124055
448.0,0.00296416855417192
480.0,0.0036690887063741684
512.0,0.0028232333716005087
576.0,0.0007648910977877676
640.0,0.004103354178369045
704.0,0.0078523438423872
768.0,0.01070870365947485
832.0,0.0105212964117527
896.0,0.009713592939078808
960.0,0.006318368017673492
1024.0,0.002934778342023492
1152.0,0.0023798965848982334
1280.0,0.0018078325083479285
1408.0,-0.0014586132019758224
1536.0,0.0005458201048895717
1664.0,0.0036568583454936743
1792.0,0.004363677930086851
1920.0,0.0017663710750639439
2048.0,0.003305003046989441
2304.0,-0.0022537733893841505
2560.0,0.0033587103243917227
2816.0,0.003401102963835001
3072.0,0.0008132808725349605
3328.0,-0.0008148037013597786
3584.0,0.0013837876031175256
3840.0,0.007613991852849722
4096.0,0.0011794300517067313
4608.0,0.00016720716666895896
5120.0,-0.003759186016395688
5632.0,-0.010042603127658367
6144.0,-0.007913046516478062
6656.0,-0.004748297855257988
7168.0,-0.001575635396875441
7680.0,-0.0004283013695385307
8192.0,-0.004851741716265678
9216.0,-0.0025940195191651583
10240.0,-0.006390574388206005
11264.0,0.003074365435168147
12288.0,0.003098751651123166
13312.0,-0.004342768806964159
14336.0,-0.010156302712857723
end
