version,3.0
numOfCh,1
type,point
parent_name,0-cuts
ch_type,1_1
kcount,1
numberNandB,1
brightnessNandB,1
carpet pos,0
pc,0
Time (ms),CH1 Auto-Correlation
1.0,0.06425032764673233
2.0,0.06309626251459122
3.0,0.061980240046978
4.0,0.06093751639127731
5.0,0.05988505482673645
6.0,0.05886548012495041
7.0,0.057874999940395355
8.0,0.0569327287375927
9.0,0.056028563529253006
10.0,0.055180348455905914
11.0,0.05433179810643196
12.0,0.05347956344485283
13.0,0.05270108953118324
14.0,0.051916204392910004
15.0,0.05116686969995499
16.0,0.05043889954686165
18.0,0.04903669282793999
20.0,0.04772268980741501
22.0,0.04644626006484032
24.0,0.04520231485366821
26.0,0.043996669352054596
28.0,0.042890481650829315
30.0,0.041858989745378494
32.0,0.04088449850678444
36.0,0.03902605548501015
40.0,0.03730115294456482
44.0,0.03581737354397774
48.0,0.03440295159816742
52.0,0.03303641825914383
56.0,0.03168265148997307
60.0,0.030284559354186058
64.0,0.028864169493317604
72.0,0.026414720341563225
80.0,0.024543512612581253
88.0,0.023121794685721397
96.0,0.021620646119117737
104.0,0.02015533484518528
112.0,0.018942642956972122
120.0,0.018395094200968742
128.0,0.017659924924373627
144.0,0.016033468768000603
160.0,0.014186348766088486
176.0,0.01235240139067173
192.0,0.011444681324064732
208.0,0.01194702833890915
224.0,0.012464320287108421
240.0,0.012586179189383984
256.0,0.011844710446894169
288.0,0.010730596259236336
320.0,0.010037125088274479
352.0,0.01043951977044344
384.0,0.009119214490056038
416.0,0.007072407752275467
448.0,0.0038851129356771708
480.0,0.0004639327817130834
512.0,-0.000664372171740979
576.0,-0.0012854307424277067
640.0,-0.0013609817251563072
704.0,-0.0016695059603080153
768.0,-0.004196991212666035
832.0,-0.005570797249674797
896.0,-0.006408771499991417
960.0,-0.007469989359378815
1024.0,-0.008476524613797665
1152.0,-0.011070352047681808
1280.0,-0.0093808239325881
1408.0,-0.008609829470515251
1536.0,-0.006786345969885588
1664.0,-0.009020555764436722
1792.0,-0.007996972650289536
1920.0,-0.0034466241486370564
2048.0,-0.0024630981497466564
2304.0,0.0023939667735248804
2560.0,0.003107394091784954
2816.0,0.0038086064159870148
3072.0,0.008681455627083778
3328.0,0.009530872106552124
3584.0,0.007292432244867086
3840.0,-0.0002728738763835281
4096.0,-0.010131649672985077
4608.0,-0.005560333840548992
5120.0,-0.002299517160281539
5632.0,0.0020413477905094624
6144.0,0.002054732060059905
6656.0,0.007429094985127449
7168.0,-0.0025568667333573103
7680.0,-0.012053665705025196
8192.0,-0.004984662402421236
9216.0,0.0047298334538936615
10240.0,-0.0015141654293984175
11264.0,-0.0009666913538239896
12288.0,-0.0014060446992516518
13312.0,0.0012066445779055357
14336.0,0.0011584439780563116
end
