version,3.0
numOfCh,1
type,point
parent_name,0-cuts
ch_type,1_1
kcount,1
numberNandB,1
brightnessNandB,1
carpet pos,0
pc,0
Time (ms),CH1 Auto-Correlation
1.0,0.03565218672156334
2.0,0.03507328778505325
3.0,0.03450997173786163
4.0,0.03394464775919914
5.0,0.03339366987347603
6.0,0.03286239504814148
7.0,0.03234478086233139
8.0,0.031844235956668854
9.0,0.03138337284326553
10.0,0.030935117974877357
11.0,0.030508670955896378
12.0,0.030098430812358856
13.0,0.029710253700613976
14.0,0.02933511696755886
15.0,0.02897648699581623
16.0,0.028636528179049492
18.0,0.02799590863287449
20.0,0.027394289150834084
22.0,0.026820464059710503
24.0,0.026271436363458633
26.0,0.025719506666064262
28.0,0.02517561987042427
30.0,0.024645976722240448
32.0,0.024135658517479897
36.0,0.02319805882871151
40.0,0.022399015724658966
44.0,0.021691828966140747
48.0,0.020986776798963547
52.0,0.020357171073555946
56.0,0.019790245220065117
60.0,0.019309213384985924
64.0,0.01895127259194851
72.0,0.01818830333650112
80.0,0.017316099256277084
88.0,0.016415948048233986
96.0,0.015601197257637978
104.0,0.01494708750396967
112.0,0.014326575212180614
120.0,0.013804331421852112
128.0,0.013371183536946774
144.0,0.012807196006178856
160.0,0.011686439625918865
176.0,0.010386679321527481
192.0,0.009659110568463802
208.0,0.009296891279518604
224.0,0.008860236033797264
240.0,0.00838841125369072
256.0,0.008148337714374065
288.0,0.007538448087871075
320.0,0.005849199835211039
352.0,0.005215528886765242
384.0,0.004939316771924496
416.0,0.00436360202729702
448.0,0.00398139888420701
480.0,0.0030704198870807886
512.0,0.0024477331899106503
576.0,0.00034078877069987357
640.0,8.80081279319711e-05
704.0,0.0005949067417532206
768.0,0.0005111796199344099
832.0,0.0002461288822814822
896.0,-0.0008579532732255757
960.0,-0.0027993477415293455
1024.0,-0.004159338306635618
1152.0,-0.003718583146110177
1280.0,-0.0038587627932429314
1408.0,-0.0050730654038488865
1536.0,-0.004408723209053278
1664.0,-0.003774524899199605
1792.0,-0.0030841503757983446
1920.0,-0.0019747274927794933
2048.0,0.0013897470198571682
2304.0,0.00042110623326152563
2560.0,-0.0006575833540409803
2816.0,0.0021352043841034174
3072.0,0.0017139725387096405
3328.0,0.0005695243598893285
3584.0,-0.0031340152490884066
3840.0,-0.007776719983667135
4096.0,-0.004700157325714827
4608.0,0.0011433514300733805
5120.0,0.0036527730990201235
5632.0,0.00047588045708835125
6144.0,-0.001298247603699565
6656.0,-0.004210871644318104
7168.0,-0.0026740864850580692
7680.0,0.0016992415767163038
8192.0,0.0009734744089655578
9216.0,-0.0018705046968534589
10240.0,0.0018591273110359907
11264.0,-0.0028086844831705093
12288.0,0.000157870861585252
13312.0,0.0010217685485258698
14336.0,0.005336062982678413
end
