version,3.0
numOfCh,1
type,point
parent_name,0-cuts
ch_type,1_1
kcount,1
numberNandB,1
brightnessNandB,1
carpet pos,0
pc,0
Time (ms),CH1 Auto-Correlation
1.0,0.06855934858322144
2.0,0.06731529533863068
3.0,0.06609313935041428
4.0,0.06490206718444824
5.0,0.0637560561299324
6.0,0.06263164430856705
7.0,0.06155196577310562
8.0,0.06053619459271431
9.0,0.059578150510787964
10.0,0.05868708714842796
11.0,0.05783072113990784
12.0,0.05698120594024658
13.0,0.056130550801754
14.0,0.05528179556131363
15.0,0.05448542907834053
16.0,0.05369625240564346
18.0,0.05221732333302498
20.0,0.05081672966480255
22.0,0.04951925575733185
24.0,0.04825751483440399
26.0,0.047020260244607925
28.0,0.04573614150285721
30.0,0.04452468082308769
32.0,0.04337470605969429
36.0,0.041416168212890625
40.0,0.03981652110815048
44.0,0.038402009755373
48.0,0.03712082654237747
52.0,0.03609319031238556
56.0,0.035342831164598465
60.0,0.034608472138643265
64.0,0.03372868895530701
72.0,0.032087989151477814
80.0,0.03061256743967533
88.0,0.029157713055610657
96.0,0.0274778101593256
104.0,0.025947099551558495
112.0,0.02460603229701519
120.0,0.023477083072066307
128.0,0.02264036424458027
144.0,0.02046162076294422
160.0,0.018235323950648308
176.0,0.016363998875021935
192.0,0.014514384791254997
208.0,0.013259124010801315
224.0,0.012343499809503555
240.0,0.011887663044035435
256.0,0.011961373500525951
288.0,0.011126847937703133
320.0,0.009803359396755695
352.0,0.01045718789100647
384.0,0.010435305535793304
416.0,0.0107306819409132
448.0,0.011945798061788082
480.0,0.01318544615060091
512.0,0.015214366838335991
576.0,0.017067531123757362
640.0,0.019183382391929626
704.0,0.01841028220951557
768.0,0.014942411333322525
832.0,0.009169301018118858
896.0,0.005291688721626997
960.0,0.003365788608789444
1024.0,0.004906408488750458
1152.0,0.00599995581433177
1280.0,0.008584504015743732
1408.0,0.00433826819062233
1536.0,0.0037873578257858753
1664.0,-0.0006753316265530884
1792.0,0.0007755493279546499
1920.0,-0.0014156718971207738
2048.0,-0.002154584974050522
2304.0,-0.0011635150294750929
2560.0,-0.009059031493961811
2816.0,-0.008408698253333569
3072.0,-0.008466525003314018
3328.0,-0.0169504527002573
3584.0,-0.007720881141722202
3840.0,-0.0051727332174777985
4096.0,-0.005336437840014696
4608.0,9.177089668810368e-05
5120.0,0.0017878396902233362
5632.0,0.0008641445310786366
6144.0,0.0004562986723612994
6656.0,-0.00037852939567528665
7168.0,-0.0074464078061282635
7680.0,-0.010542103089392185
8192.0,-0.009096947498619556
9216.0,-0.004765544086694717
10240.0,0.006567472591996193
11264.0,0.021286411210894585
12288.0,0.005011013243347406
13312.0,-0.00666835717856884
14336.0,-0.030886618420481682
end
