version,3.0
numOfCh,1
type,point
parent_name,0-cuts
ch_type,1_1
kcount,1
numberNandB,1
brightnessNandB,1
carpet pos,0
pc,0
Time (ms),CH1 Auto-Correlation
1.0,0.032358452677726746
2.0,0.03178951516747475
3.0,0.031239992007613182
4.0,0.030721282586455345
5.0,0.030238613486289978
6.0,0.029771067202091217
7.0,0.029326487332582474
8.0,0.028889598324894905
9.0,0.028472350910305977
10.0,0.028051301836967468
11.0,0.027637340128421783
12.0,0.02723485231399536
13.0,0.026822935789823532
14.0,0.026434218510985374
15.0,0.02605990320444107
16.0,0.025685684755444527
18.0,0.025001293048262596
20.0,0.02436915412545204
22.0,0.023785633966326714
24.0,0.0232219398021698
26.0,0.022667167708277702
28.0,0.022133611142635345
30.0,0.02160762809216976
32.0,0.02112649939954281
36.0,0.020220130681991577
40.0,0.019416796043515205
44.0,0.01862124539911747
48.0,0.017856711521744728
52.0,0.017121747136116028
56.0,0.016460290178656578
60.0,0.015897439792752266
64.0,0.015323963016271591
72.0,0.014224914833903313
80.0,0.0132595868781209
88.0,0.012379935942590237
96.0,0.011673393659293652
104.0,0.011117526330053806
112.0,0.01045488752424717
120.0,0.009751263074576855
128.0,0.009154286235570908
144.0,0.007983728311955929
160.0,0.006496633403003216
176.0,0.004891140386462212
192.0,0.0037052975967526436
208.0,0.002898713108152151
224.0,0.0022750981152057648
240.0,0.0018590363906696439
256.0,0.0012302945833653212
288.0,0.0002003983099712059
320.0,-0.0005368615966290236
352.0,-0.0014566152822226286
384.0,-0.0018513447139412165
416.0,-0.0016685088630765676
448.0,-0.00045190771925263107
480.0,0.0007893279544077814
512.0,0.0008614279213361442
576.0,-0.00020683066395577043
640.0,-0.0034898521844297647
704.0,-0.004976775497198105
768.0,-0.004425800871104002
832.0,-0.0025813740212470293
896.0,-0.0012020927388221025
960.0,0.0009699822985567153
1024.0,0.0023200365249067545
1152.0,3.248270513722673e-05
1280.0,-0.001371580408886075
1408.0,-0.00019859103485941887
1536.0,0.0013211859622970223
1664.0,-0.0005992615479044616
1792.0,-0.00045332720037549734
1920.0,1.0623844900692347e-05
2048.0,0.0018292269669473171
2304.0,-0.002146001672372222
2560.0,-0.003368929261341691
2816.0,-0.0027804640121757984
3072.0,0.0008020181558094919
3328.0,-0.0003451324882917106
3584.0,-0.002395703224465251
3840.0,-0.0009422281291335821
4096.0,-0.002339312108233571
4608.0,0.0029223314486443996
5120.0,-0.003052282379940152
5632.0,0.0013363485923036933
6144.0,0.0024326418060809374
6656.0,-0.0006159112672321498
7168.0,0.00036829535383731127
7680.0,0.0030812921468168497
8192.0,-0.002111804438754916
9216.0,-0.001188197871670127
10240.0,4.294890823075548e-05
11264.0,-0.0006392400828190148
12288.0,0.0021177432499825954
13312.0,-0.002580382162705064
14336.0,0.0031303451396524906
end
