version,3.0
numOfCh,1
type,point
parent_name,0-cuts
ch_type,1_1
kcount,1
numberNandB,1
brightnessNandB,1
carpet pos,0
pc,0
Time (ms),CH1 Auto-Correlation
1.0,0.024455461651086807
2.0,0.024075843393802643
3.0,0.02372063137590885
4.0,0.02337634190917015
5.0,0.02304273098707199
6.0,0.022715192288160324
7.0,0.022395558655261993
8.0,0.022070055827498436
9.0,0.021765602752566338
10.0,0.021478701382875443
11.0,0.021200304850935936
12.0,0.02091255411505699
13.0,0.020640278235077858
14.0,0.0203778687864542
15.0,0.020121660083532333
16.0,0.01986272819340229
18.0,0.01935257762670517
20.0,0.0188613198697567
22.0,0.018354162573814392
24.0,0.017876675352454185
26.0,0.01743636652827263
28.0,0.016996290534734726
30.0,0.016560828313231468
32.0,0.01615072228014469
36.0,0.01540881022810936
40.0,0.014782346785068512
44.0,0.014194686897099018
48.0,0.013637145049870014
52.0,0.01309597585350275
56.0,0.01257864199578762
60.0,0.012111101299524307
64.0,0.011669919826090336
72.0,0.010912429541349411
80.0,0.010237989947199821
88.0,0.009648354724049568
96.0,0.009077762253582478
104.0,0.008552179671823978
112.0,0.008142290636897087
120.0,0.007883943617343903
128.0,0.0076221865601837635
144.0,0.007183291483670473
160.0,0.006960172671824694
176.0,0.006806786172091961
192.0,0.006530321668833494
208.0,0.005684494040906429
224.0,0.0050589656457304955
240.0,0.004933612886816263
256.0,0.004926731809973717
288.0,0.0046198321506381035
320.0,0.004018964245915413
352.0,0.0025122554507106543
384.0,0.0013810911914333701
416.0,0.0007728735799901187
448.0,0.0006615627789869905
480.0,0.00044449634151533246
512.0,0.0005555958487093449
576.0,0.0007908048573881388
640.0,0.00016626808792352676
704.0,-0.00105485029052943
768.0,-0.001359457615762949
832.0,-0.001305872923694551
896.0,-0.0021965354681015015
960.0,-0.0019824558403342962
1024.0,-0.0003293327463325113
1152.0,-0.002462835516780615
1280.0,-0.002242290647700429
1408.0,-0.0025490797124803066
1536.0,-0.002198341302573681
1664.0,-0.0011715320870280266
1792.0,-0.0002057575766230002
1920.0,-0.0010980614461004734
2048.0,-0.00027502988814376295
2304.0,-0.0006447993218898773
2560.0,0.00031632272293791175
2816.0,0.003548185806721449
3072.0,0.002999522490426898
3328.0,3.695093982969411e-05
3584.0,-0.0017396098701283336
3840.0,-0.001247380510903895
4096.0,-0.0015404094010591507
4608.0,-0.0011248752707615495
5120.0,-0.003910919651389122
5632.0,-0.001160536427050829
6144.0,0.0027257720939815044
6656.0,0.0005714569706469774
7168.0,-4.1762534237932414e-05
7680.0,-0.001904793200083077
8192.0,-0.0033536283299326897
9216.0,0.0012681620428338647
10240.0,0.0008111415081657469
11264.0,-0.0016874228604137897
12288.0,0.0016510342247784138
13312.0,-0.0017890214221552014
14336.0,0.0012063258327543736
end
