version,3.0
numOfCh,1
type,point
parent_name,0-cuts
ch_type,1_1
kcount,1
numberNandB,1
brightnessNandB,1
carpet pos,0
pc,0
Time (ms),CH1 Auto-Correlation
1.0,0.05479789152741432
2.0,0.05365071818232536
3.0,0.05255085229873657
4.0,0.05148019641637802
5.0,0.0504232756793499
6.0,0.04940309002995491
7.0,0.04840415343642235
8.0,0.047446612268686295
9.0,0.04649434611201286
10.0,0.04556986317038536
11.0,0.044671837240457535
12.0,0.04380807653069496
13.0,0.04296671971678734
14.0,0.04215966910123825
15.0,0.04134233295917511
16.0,0.04053923860192299
18.0,0.03903739154338837
20.0,0.037578269839286804
22.0,0.036236315965652466
24.0,0.03498196229338646
26.0,0.03375581279397011
28.0,0.0325874499976635
30.0,0.03150160610675812
32.0,0.030494701117277145
36.0,0.028576044365763664
40.0,0.026775522157549858
44.0,0.0252531711012125
48.0,0.023848900571465492
52.0,0.022508060559630394
56.0,0.021291688084602356
60.0,0.020213795825839043
64.0,0.019165417179465294
72.0,0.017119433730840683
80.0,0.015605047345161438
88.0,0.014589284546673298
96.0,0.014025421813130379
104.0,0.013180502690374851
112.0,0.012302698567509651
120.0,0.01158356573432684
128.0,0.010916587896645069
144.0,0.009530308656394482
160.0,0.00896562822163105
176.0,0.007868393324315548
192.0,0.006764042191207409
208.0,0.0051023513078689575
224.0,0.004460196942090988
240.0,0.0038232782389968634
256.0,0.0033013185020536184
288.0,0.005437228363007307
320.0,0.006986130028963089
352.0,0.007374846376478672
384.0,0.008301808498799801
416.0,0.007066996302455664
448.0,0.004464416764676571
480.0,0.0016466384986415505
512.0,0.0011561455903574824
576.0,0.0007407533121295273
640.0,-0.00150115427095443
704.0,-0.0038535241037607193
768.0,-0.003646360943093896
832.0,-0.004188896156847477
896.0,-0.003927163314074278
960.0,-0.0035220433492213488
1024.0,-0.004538780078291893
1152.0,-0.0040833731181919575
1280.0,-0.0068167420104146
1408.0,-0.005037488881498575
1536.0,0.0003441470908001065
1664.0,-0.002711766865104437
1792.0,-0.0064052315428853035
1920.0,-0.0028896392323076725
2048.0,-0.002384407678619027
2304.0,-0.00586679857224226
2560.0,-0.0033257652539759874
2816.0,-0.0006628053379245102
3072.0,0.006828642450273037
3328.0,0.006370916031301022
3584.0,0.0028113890439271927
3840.0,-0.0015967440558597445
4096.0,-0.000139344236231409
4608.0,-0.0014414588222280145
5120.0,-0.0033370857127010822
5632.0,0.0010755691910162568
6144.0,0.003171454183757305
6656.0,0.0009389484766870737
7168.0,-0.002437711926177144
7680.0,-0.0014995802193880081
8192.0,-0.0032299384474754333
9216.0,-0.00015621448983438313
10240.0,0.0015259593492373824
11264.0,-0.0026930368039757013
12288.0,0.0023276787251234055
13312.0,-0.0018502295715734363
14336.0,0.0020984183065593243
end
