version,3.0
numOfCh,1
type,point
parent_name,c1204_0dot2-1dot0
ch_type,1_1
kcount,1
numberNandB,1
brightnessNandB,1
carpet pos,0
pc,0
Time (ms),CH1 Auto-Correlation
1.0,0.018782947212457657
2.0,0.018367920070886612
3.0,0.017973624169826508
4.0,0.017583567649126053
5.0,0.017220113426446915
6.0,0.01688670739531517
7.0,0.016550248488783836
8.0,0.01624857261776924
9.0,0.01595713570713997
10.0,0.015662595629692078
11.0,0.015363933518528938
12.0,0.015069935470819473
13.0,0.014795063063502312
14.0,0.014521622098982334
15.0,0.014260584488511086
16.0,0.014017030596733093
18.0,0.013549881055951118
20.0,0.013112515211105347
22.0,0.012691488489508629
24.0,0.012299012392759323
26.0,0.011926761828362942
28.0,0.011591815389692783
30.0,0.011250958777964115
32.0,0.010937939397990704
36.0,0.010308499448001385
40.0,0.009769628755748272
44.0,0.009309024550020695
48.0,0.008822853676974773
52.0,0.008361473679542542
56.0,0.007924750447273254
60.0,0.00754227489233017
64.0,0.007173947058618069
72.0,0.0063589890487492085
80.0,0.005537554621696472
88.0,0.004891742020845413
96.0,0.004543160554021597
104.0,0.004397289827466011
112.0,0.004217624198645353
120.0,0.003993697930127382
128.0,0.0036404419224709272
144.0,0.00333856581710279
160.0,0.0032146757002919912
176.0,0.00335650029592216
192.0,0.003467305563390255
208.0,0.0036256134044378996
224.0,0.004146147519350052
240.0,0.004229135345667601
256.0,0.003870496992021799
288.0,0.003790258662775159
320.0,0.003758314298465848
352.0,0.0030708936974406242
384.0,0.0024340441450476646
416.0,0.0025296357925981283
448.0,0.002455709269270301
480.0,0.00249304436147213
512.0,0.002088745590299368
576.0,0.003073758212849498
640.0,0.004148538690060377
704.0,0.004291309509426355
768.0,0.003318952163681388
832.0,0.0035912294406443834
896.0,0.0035890049766749144
960.0,0.003068068763241172
1024.0,0.0027300359215587378
1152.0,0.0023532318882644176
1280.0,0.002643934916704893
1408.0,0.0022679278627038
1536.0,0.002312619239091873
1664.0,0.0014914427883923054
1792.0,0.001635718042962253
1920.0,0.0014049903256818652
2048.0,0.0020519031677395105
2304.0,0.0012069274671375751
2560.0,0.000715094618499279
2816.0,0.00045359923387877643
3072.0,0.0004462654469534755
3328.0,-0.00031861645402386785
3584.0,0.0007628631428815424
3840.0,9.353319182991982e-05
4096.0,-0.0017205236945301294
4608.0,-0.002052450319752097
5120.0,-0.0021534315310418606
5632.0,-0.002043495187535882
6144.0,-0.0017198668792843819
6656.0,-0.0024371889885514975
7168.0,-0.0008536441600881517
7680.0,-0.0006761536933481693
8192.0,-0.00021926725457888097
end
