version,3.0
numOfCh,1
type,point
parent_name,c1204_0dot2-1dot0
ch_type,1_1
kcount,1
numberNandB,1
brightnessNandB,1
carpet pos,0
pc,0
Time (ms),CH1 Auto-Correlation
1.0,0.02399049699306488
2.0,0.02355669066309929
3.0,0.023152465000748634
4.0,0.022766849026083946
5.0,0.02238977514207363
6.0,0.02201410010457039
7.0,0.02165432833135128
8.0,0.021323442459106445
9.0,0.021010691300034523
10.0,0.020715167745947838
11.0,0.020431721583008766
12.0,0.02015901729464531
13.0,0.01988549716770649
14.0,0.019612949341535568
15.0,0.01935240626335144
16.0,0.019094692543148994
18.0,0.018640993162989616
20.0,0.018245017156004906
22.0,0.017901917919516563
24.0,0.017552219331264496
26.0,0.017216462641954422
28.0,0.016875769942998886
30.0,0.016580887138843536
32.0,0.016285603865981102
36.0,0.0156813133507967
40.0,0.015112269669771194
44.0,0.014653471298515797
48.0,0.01421746239066124
52.0,0.013775551691651344
56.0,0.013412469998002052
60.0,0.01306808553636074
64.0,0.012663829140365124
72.0,0.011898725293576717
80.0,0.011221528984606266
88.0,0.010557134635746479
96.0,0.009802497923374176
104.0,0.009096942842006683
112.0,0.008419916965067387
120.0,0.007803813088685274
128.0,0.007242679130285978
144.0,0.006471301894634962
160.0,0.006022716406732798
176.0,0.005562703590840101
192.0,0.004946673288941383
208.0,0.004649423994123936
224.0,0.0042233034037053585
240.0,0.003918773960322142
256.0,0.0036271116696298122
288.0,0.0029254485853016376
320.0,0.002723356708884239
352.0,0.0023837636690586805
384.0,0.0027623833157122135
416.0,0.003112653736025095
448.0,0.003409074619412422
480.0,0.0033667213283479214
512.0,0.0031367959454655647
576.0,0.0026029550936073065
640.0,0.0017276772996410728
704.0,0.002042195526883006
768.0,0.0013561591040343046
832.0,-0.0003412125806789845
896.0,-0.0005096990498714149
960.0,-0.000164838507771492
1024.0,-0.0002762032672762871
1152.0,0.001518566394224763
1280.0,0.0024615516886115074
1408.0,9.747714648256078e-05
1536.0,-0.0009550723480060697
1664.0,-0.001492994138970971
1792.0,-0.002091145608574152
1920.0,8.898337546270341e-05
2048.0,-0.000980818527750671
2304.0,-0.003229859983548522
2560.0,-0.006159751210361719
2816.0,-0.005824222229421139
3072.0,-0.0027775599155575037
3328.0,-0.000306656991597265
3584.0,0.0009122471674345434
3840.0,-0.00033970666117966175
4096.0,-0.000764303607866168
4608.0,0.001113653415814042
5120.0,0.004810649901628494
5632.0,0.003548810025677085
6144.0,-0.001081310911104083
6656.0,0.0001855998270912096
7168.0,0.00033483916195109487
7680.0,-0.004154980648308992
8192.0,-0.003022441640496254
end
