version,3.0
numOfCh,1
type,point
parent_name,c1204_0dot2-1dot0
ch_type,1_1
kcount,1
numberNandB,1
brightnessNandB,1
carpet pos,0
pc,0
Time (ms),CH1 Auto-Correlation
1.0,0.023589903488755226
2.0,0.02315790392458439
3.0,0.022735334932804108
4.0,0.022328361868858337
5.0,0.02193726785480976
6.0,0.021553706377744675
7.0,0.021193768829107285
8.0,0.020851749926805496
9.0,0.020521236583590508
10.0,0.020196277648210526
11.0,0.019883856177330017
12.0,0.019580749794840813
13.0,0.019273383542895317
14.0,0.01898614503443241
15.0,0.018706340342760086
16.0,0.018447523936629295
18.0,0.01794285699725151
20.0,0.01748969592154026
22.0,0.01708107627928257
24.0,0.01669425331056118
26.0,0.01633894443511963
28.0,0.01599852554500103
30.0,0.015654733404517174
32.0,0.015324750915169716
36.0,0.014700295403599739
40.0,0.014146263711154461
44.0,0.01361166499555111
48.0,0.0130950091406703
52.0,0.012714331038296223
56.0,0.012436764314770699
60.0,0.012179953046143055
64.0,0.011919654905796051
72.0,0.011472522281110287
80.0,0.01112520694732666
88.0,0.010719956830143929
96.0,0.01032288745045662
104.0,0.010069078765809536
112.0,0.009799015708267689
120.0,0.009417232125997543
128.0,0.008943351916968822
144.0,0.008006621152162552
160.0,0.007267375942319632
176.0,0.006918514147400856
192.0,0.006647020578384399
208.0,0.0063929483294487
224.0,0.006183915305882692
240.0,0.005906614940613508
256.0,0.0056380340829491615
288.0,0.004772605840116739
320.0,0.004305271431803703
352.0,0.003812746610492468
384.0,0.0034563338849693537
416.0,0.0029573682695627213
448.0,0.002078918507322669
480.0,0.0018609849503263831
512.0,0.0012247113045305014
576.0,-0.00040403640014119446
640.0,-0.001052593463100493
704.0,-0.0013280513230711222
768.0,-0.0014321096241474152
832.0,-0.0018225640524178743
896.0,-0.001956481020897627
960.0,-0.000953220238443464
1024.0,0.00018034079403150827
1152.0,0.0004456640162970871
1280.0,0.0005983503069728613
1408.0,0.0015957659343257546
1536.0,0.0015563071938231587
1664.0,0.00046394276432693005
1792.0,0.00020619470160454512
1920.0,0.0006017468986101449
2048.0,0.0008584338356740773
2304.0,0.0010045195231214166
2560.0,-0.00028286920860409737
2816.0,-0.0018915778491646051
3072.0,-0.002594219520688057
3328.0,-0.003309377934783697
3584.0,-0.0027289334684610367
3840.0,0.001151565695181489
4096.0,0.001706839189864695
4608.0,0.0009249988943338394
5120.0,-0.0012415263336151838
5632.0,-0.00012143137428211048
6144.0,0.0013837608275935054
6656.0,0.0022219412494450808
7168.0,-0.0007742122397758067
7680.0,-0.0010388215305283666
8192.0,0.0003982488706242293
end
