version,3.0
numOfCh,1
type,point
parent_name,c1204_0dot2-1dot0
ch_type,1_1
kcount,1
numberNandB,1
brightnessNandB,1
carpet pos,0
pc,0
Time (ms),CH1 Auto-Correlation
1.0,0.020867105573415756
2.0,0.020412931218743324
3.0,0.0199676975607872
4.0,0.01953347586095333
5.0,0.019113967195153236
6.0,0.018724577501416206
7.0,0.01834157295525074
8.0,0.017965972423553467
9.0,0.01761193759739399
10.0,0.01726948469877243
11.0,0.016934044659137726
12.0,0.016596416011452675
13.0,0.016270706430077553
14.0,0.01596425473690033
15.0,0.01567515917122364
16.0,0.015404303558170795
18.0,0.014882366172969341
20.0,0.014416767284274101
22.0,0.013981450349092484
24.0,0.013576028868556023
26.0,0.013214705511927605
28.0,0.01289925817400217
30.0,0.01264103688299656
32.0,0.012385841459035873
36.0,0.011914764530956745
40.0,0.011529454961419106
44.0,0.011179063469171524
48.0,0.010841745883226395
52.0,0.01042201928794384
56.0,0.010009238496422768
60.0,0.009727605618536472
64.0,0.009534364566206932
72.0,0.009097425267100334
80.0,0.008621938526630402
88.0,0.008086658082902431
96.0,0.0075619034469127655
104.0,0.007205481640994549
112.0,0.006907537113875151
120.0,0.006633005570620298
128.0,0.006336049176752567
144.0,0.005400287453085184
160.0,0.004436415620148182
176.0,0.0036394258495420218
192.0,0.0032828492112457752
208.0,0.0031198072247207165
224.0,0.0030730459839105606
240.0,0.0029271873645484447
256.0,0.0026727893855422735
288.0,0.0026792469434440136
320.0,0.0024317309726029634
352.0,0.001917423796840012
384.0,0.0016427290393039584
416.0,0.001161311287432909
448.0,0.0009724091505631804
480.0,0.00063270831014961
512.0,0.0003136571031063795
576.0,0.00011489057214930654
640.0,0.0004622485430445522
704.0,0.001003424171358347
768.0,0.0017200469737872481
832.0,0.0018370684701949358
896.0,0.0015325472922995687
960.0,0.0021024339366704226
1024.0,0.0018817285308614373
1152.0,0.001159463543444872
1280.0,0.0010280688293278217
1408.0,-0.00032875718898139894
1536.0,-0.0012313969200477004
1664.0,-0.0015471454244107008
1792.0,-0.0005622989265248179
1920.0,3.1457388104172423e-05
2048.0,-0.00033206952502951026
2304.0,-0.0028164773248136044
2560.0,-0.0037916572764515877
2816.0,-0.0019473341526463628
3072.0,-0.0013637313386425376
3328.0,-0.0015132840489968657
3584.0,-0.0011925867293030024
3840.0,-0.0012088174698874354
4096.0,-0.0011686977231875062
4608.0,-1.54613680933835e-05
5120.0,0.0026918258517980576
5632.0,0.002212013816460967
6144.0,0.0006041090819053352
6656.0,0.001401073532178998
7168.0,0.0013225271832197905
7680.0,-0.0007158452062867582
8192.0,-0.0013545971596613526
end
