version,3.0
numOfCh,1
type,point
parent_name,c1204_0dot2-1dot0
ch_type,1_1
kcount,1
numberNandB,1
brightnessNandB,1
carpet pos,0
pc,0
Time (ms),CH1 Auto-Correlation
1.0,0.021057218313217163
2.0,0.020595941692590714
3.0,0.020170120522379875
4.0,0.019759194925427437
5.0,0.019376041367650032
6.0,0.019008634611964226
7.0,0.01866401918232441
8.0,0.018337680026888847
9.0,0.018020225688815117
10.0,0.017703553661704063
11.0,0.017405571416020393
12.0,0.017106831073760986
13.0,0.016811775043606758
14.0,0.01653643697500229
15.0,0.01626519486308098
16.0,0.016014043241739273
18.0,0.015530350618064404
20.0,0.015045719221234322
22.0,0.01457748468965292
24.0,0.014152443036437035
26.0,0.013746360316872597
28.0,0.01337820291519165
30.0,0.013006774708628654
32.0,0.012658161111176014
36.0,0.012007097713649273
40.0,0.011404926888644695
44.0,0.010788892395794392
48.0,0.010215558111667633
52.0,0.009671606123447418
56.0,0.009169296361505985
60.0,0.008708495646715164
64.0,0.008267395198345184
72.0,0.007485293783247471
80.0,0.00675378181040287
88.0,0.006109142210334539
96.0,0.0054678404703736305
104.0,0.004987666849046946
112.0,0.00454643415287137
120.0,0.004204818978905678
128.0,0.0038937281351536512
144.0,0.003583173267543316
160.0,0.0035599011462181807
176.0,0.0037193126045167446
192.0,0.0036676093004643917
208.0,0.0037248139269649982
224.0,0.0038674091920256615
240.0,0.003685698378831148
256.0,0.0035316413268446922
288.0,0.0025772913359105587
320.0,0.0014677272411063313
352.0,0.0007959525682963431
384.0,0.00020082047558389604
416.0,-0.00015096050628926605
448.0,-0.0003726668655872345
480.0,-0.0007597655639983714
512.0,-0.00040003773756325245
576.0,0.0012956648133695126
640.0,0.0016784515464678407
704.0,0.0006612195866182446
768.0,-0.0006147968815639615
832.0,0.0009649363928474486
896.0,0.0017621415900066495
960.0,0.001236847136169672
1024.0,-0.00035938533255830407
1152.0,0.00046182499499991536
1280.0,-0.0009171147248707712
1408.0,-0.002012459561228752
1536.0,-0.001579747535288334
1664.0,-0.0009238796774297953
1792.0,0.0008036727667786181
1920.0,-0.00019657809752970934
2048.0,-0.0001838469906942919
2304.0,-0.0009443841991014779
2560.0,-0.00033150569652207196
2816.0,0.00030215425067581236
3072.0,0.000640939746517688
3328.0,-0.002815763931721449
3584.0,-0.0009434677776880562
3840.0,-0.00023988047905731946
4096.0,0.00236356514506042
4608.0,0.000971637200564146
5120.0,0.0008022325346246362
5632.0,-0.0015024476451799273
6144.0,-0.0014027537545189261
6656.0,0.0009639437193982303
7168.0,0.00026696937857195735
7680.0,-0.0011189915239810944
8192.0,-0.001405170769430697
end
