version,3.0
numOfCh,1
type,point
parent_name,c1204_0dot2-1dot0
ch_type,1_1
kcount,1
numberNandB,1
brightnessNandB,1
carpet pos,0
pc,0
Time (ms),CH1 Auto-Correlation
1.0,0.020096078515052795
2.0,0.019624516367912292
3.0,0.019211294129490852
4.0,0.018788771703839302
5.0,0.01839553937315941
6.0,0.018031340092420578
7.0,0.01766946353018284
8.0,0.0173146054148674
9.0,0.016980119049549103
10.0,0.016655441373586655
11.0,0.016349267214536667
12.0,0.01605578325688839
13.0,0.015775041654706
14.0,0.015505162067711353
15.0,0.01523550320416689
16.0,0.01496435422450304
18.0,0.014425522647798061
20.0,0.013940081931650639
22.0,0.01348058320581913
24.0,0.013044480234384537
26.0,0.012625044211745262
28.0,0.012227223254740238
30.0,0.011841598898172379
32.0,0.011475864797830582
36.0,0.010884220711886883
40.0,0.010337021201848984
44.0,0.009880173951387405
48.0,0.009467441588640213
52.0,0.009100303053855896
56.0,0.008787368424236774
60.0,0.008512490428984165
64.0,0.008267693221569061
72.0,0.00772062037140131
80.0,0.007018242962658405
88.0,0.006354282144457102
96.0,0.0058515118435025215
104.0,0.005360412877053022
112.0,0.005012907553464174
120.0,0.004727798048406839
128.0,0.004463386721909046
144.0,0.004421965219080448
160.0,0.004310620483011007
176.0,0.004076024983078241
192.0,0.0038175913505256176
208.0,0.0033268651459366083
224.0,0.0026688105426728725
240.0,0.0021071741357445717
256.0,0.001838015508837998
288.0,0.0017067339504137635
320.0,0.0011558950645849109
352.0,0.0013322916347533464
384.0,0.001123395748436451
416.0,0.00099791563116014
448.0,0.0008548516780138016
480.0,0.0009693431784398854
512.0,0.0011781139764934778
576.0,0.0017976597882807255
640.0,0.0011298339813947678
704.0,0.00020528804452624172
768.0,-0.0004448026302270591
832.0,-0.0005804172251373529
896.0,-0.0007292323280125856
960.0,-0.00011458982044132426
1024.0,0.0011870975140482187
1152.0,0.0014432924799621105
1280.0,0.002188491402193904
1408.0,0.001319324248470366
1536.0,0.0009477318380959332
1664.0,0.0005920363473705947
1792.0,0.00023891867022030056
1920.0,-0.00120193837210536
2048.0,-0.002823072485625744
2304.0,-0.0028119119815528393
2560.0,-0.0019837364088743925
2816.0,-0.0008622330497018993
3072.0,-0.000656517397146672
3328.0,-0.002177214017137885
3584.0,-0.0011524689616635442
3840.0,0.00021882823784835637
4096.0,0.0006495335255749524
4608.0,0.0008875541971065104
5120.0,0.0009027733467519283
5632.0,0.0011298437602818012
6144.0,-0.0015040813013911247
6656.0,-0.0002697543823160231
7168.0,-0.0021466624457389116
7680.0,-0.0025412444956600666
8192.0,-5.4917156376177445e-05
end
