version,3.0
numOfCh,1
type,point
parent_name,c1204_0dot2-1dot0
ch_type,1_1
kcount,1
numberNandB,1
brightnessNandB,1
carpet pos,0
pc,0
Time (ms),CH1 Auto-Correlation
1.0,0.024271642789244652
2.0,0.02383331023156643
3.0,0.023401344195008278
4.0,0.023005250841379166
5.0,0.02261798456311226
6.0,0.022244807332754135
7.0,0.021886976435780525
8.0,0.021537695080041885
9.0,0.021204184740781784
10.0,0.02088332735002041
11.0,0.020564528182148933
12.0,0.02025056630373001
13.0,0.019935546442866325
14.0,0.01964483968913555
15.0,0.01937439665198326
16.0,0.019127175211906433
18.0,0.018669646233320236
20.0,0.018254196271300316
22.0,0.017866795882582664
24.0,0.01748608984053135
26.0,0.01710706762969494
28.0,0.01674688793718815
30.0,0.016412731260061264
32.0,0.016076914966106415
36.0,0.01542260404676199
40.0,0.014785170555114746
44.0,0.014227365143597126
48.0,0.013683668337762356
52.0,0.013170403428375721
56.0,0.012707099318504333
60.0,0.012216538190841675
64.0,0.011733615770936012
72.0,0.010851800441741943
80.0,0.010081660933792591
88.0,0.009540004655718803
96.0,0.009077341295778751
104.0,0.008636235259473324
112.0,0.008321371860802174
120.0,0.008071791380643845
128.0,0.007913810200989246
144.0,0.007699199952185154
160.0,0.007544949650764465
176.0,0.007494287099689245
192.0,0.007211552932858467
208.0,0.006924137473106384
224.0,0.006661504041403532
240.0,0.006317410618066788
256.0,0.0060125719755887985
288.0,0.00524628721177578
320.0,0.004720237571746111
352.0,0.004065721295773983
384.0,0.004077238962054253
416.0,0.0038925621192902327
448.0,0.003906963858753443
480.0,0.003869255306199193
512.0,0.003923540469259024
576.0,0.0030256444588303566
640.0,0.002063572173938155
704.0,0.0015823736321181059
768.0,0.0019694778602570295
832.0,0.0026934260968118906
896.0,0.002485555363819003
960.0,0.0017559994012117386
1024.0,0.001094810664653778
1152.0,-0.000838478677906096
1280.0,-0.0017692369874566793
1408.0,-0.0010860823094844818
1536.0,0.0002125717728631571
1664.0,0.0004466919635888189
1792.0,0.0005522326100617647
1920.0,-0.00025053441640920937
2048.0,-7.07213330315426e-05
2304.0,-0.002122403122484684
2560.0,-0.002236677799373865
2816.0,-0.004038424696773291
3072.0,-0.004374051466584206
3328.0,-0.00462639145553112
3584.0,-0.003980155102908611
3840.0,-0.001872014021500945
4096.0,-0.0030577541328966618
4608.0,-0.0015324072446674109
5120.0,0.0005021084798499942
5632.0,0.002710574073716998
6144.0,0.0024584506172686815
6656.0,0.0019401477184146643
7168.0,0.00039416083018295467
7680.0,0.0014349413104355335
8192.0,0.0011834846809506416
end
