version,3.0
numOfCh,1
type,point
parent_name,c1204_0dot2-1dot0
ch_type,1_1
kcount,1
numberNandB,1
brightnessNandB,1
carpet pos,0
pc,0
Time (ms),CH1 Auto-Correlation
1.0,0.02386685088276863
2.0,0.023400835692882538
3.0,0.022982530295848846
4.0,0.022578127682209015
5.0,0.02221369557082653
6.0,0.021859843283891678
7.0,0.021524367853999138
8.0,0.021186020225286484
9.0,0.020871968939900398
10.0,0.020565632730722427
11.0,0.020275047048926353
12.0,0.019960513338446617
13.0,0.019658857956528664
14.0,0.019374065101146698
15.0,0.0191047340631485
16.0,0.018841518089175224
18.0,0.018315749242901802
20.0,0.017802413552999496
22.0,0.017277728766202927
24.0,0.016779810190200806
26.0,0.016309084370732307
28.0,0.01584560051560402
30.0,0.015387941151857376
32.0,0.01494996715337038
36.0,0.014201131649315357
40.0,0.013555934652686119
44.0,0.013018043711781502
48.0,0.012499741278588772
52.0,0.012000907212495804
56.0,0.01152102928608656
60.0,0.011093005537986755
64.0,0.010750130750238895
72.0,0.010079281404614449
80.0,0.009510736912488937
88.0,0.0091076185926795
96.0,0.008720270358026028
104.0,0.00837695226073265
112.0,0.008119153790175915
120.0,0.00773638067767024
128.0,0.007359775714576244
144.0,0.006622825749218464
160.0,0.00618505384773016
176.0,0.005952549632638693
192.0,0.005522800609469414
208.0,0.004718699026852846
224.0,0.003885557409375906
240.0,0.0034793447703123093
256.0,0.0034892719704657793
288.0,0.0036573477555066347
320.0,0.0032573998905718327
352.0,0.0020061780232936144
384.0,0.0008595651015639305
416.0,0.00041571425390429795
448.0,0.0004373365081846714
480.0,0.0003313732740934938
512.0,0.0009951998945325613
576.0,0.00011450974125182256
640.0,-0.0010748342610895634
704.0,-0.0023466984275728464
768.0,-0.0022164189722388983
832.0,-0.0017819071654230356
896.0,-0.0009877159027382731
960.0,-0.0003836770192719996
1024.0,-0.0007822146289981902
1152.0,-0.00276888906955719
1280.0,-0.0033436669036746025
1408.0,-0.0019575206097215414
1536.0,-0.0010417983867228031
1664.0,0.00011984239245066419
1792.0,-0.0013548738788813353
1920.0,-0.001383520197123289
2048.0,-0.0015135100111365318
2304.0,0.0020037409849464893
2560.0,0.003993961960077286
2816.0,0.0019906065426766872
3072.0,-0.0020279407035559416
3328.0,-0.0019109573913738132
3584.0,-0.0014441508101299405
3840.0,-0.0007704391027800739
4096.0,-0.0012894412502646446
4608.0,-0.0020141613204032183
5120.0,0.0006631359574384987
5632.0,0.0010764565085992217
6144.0,-0.0003644808894023299
6656.0,-0.0021473888773471117
7168.0,-0.0018660281784832478
7680.0,0.0011395192705094814
8192.0,0.004139970522373915
end
