version,3.0
numOfCh,1
type,point
parent_name,c1204_0dot2-1dot0
ch_type,1_1
kcount,1
numberNandB,1
brightnessNandB,1
carpet pos,0
pc,0
Time (ms),CH1 Auto-Correlation
1.0,0.021360481157898903
2.0,0.020930396392941475
3.0,0.020534873008728027
4.0,0.02016141451895237
5.0,0.01979553885757923
6.0,0.019444873556494713
7.0,0.019104428589344025
8.0,0.01876700296998024
9.0,0.01844562590122223
10.0,0.018124112859368324
11.0,0.017799215391278267
12.0,0.017481600865721703
13.0,0.017163695767521858
14.0,0.016838278621435165
15.0,0.01653214357793331
16.0,0.0162194911390543
18.0,0.015658454969525337
20.0,0.015151108615100384
22.0,0.01466089952737093
24.0,0.014176295138895512
26.0,0.013691595755517483
28.0,0.01321448478847742
30.0,0.012792986817657948
32.0,0.012373358942568302
36.0,0.011594503186643124
40.0,0.010879114270210266
44.0,0.010274142026901245
48.0,0.00971128698438406
52.0,0.00916521530598402
56.0,0.008643983863294125
60.0,0.008169546723365784
64.0,0.007782284170389175
72.0,0.007189054042100906
80.0,0.0067810737527906895
88.0,0.006354697048664093
96.0,0.005914495326578617
104.0,0.0055054533295333385
112.0,0.004998507909476757
120.0,0.0045411488972604275
128.0,0.004197091329842806
144.0,0.0036788475699722767
160.0,0.003555860836058855
176.0,0.0036137867718935013
192.0,0.0036992612294852734
208.0,0.0038050757721066475
224.0,0.003927706740796566
240.0,0.003726182272657752
256.0,0.0034316848032176495
288.0,0.0025390395894646645
320.0,0.001986914547160268
352.0,0.0013580614468082786
384.0,0.0006215359317138791
416.0,0.00064615294104442
448.0,0.0006914847181178629
480.0,-0.0001758412254275754
512.0,-0.0008201655000448227
576.0,-0.000928869703784585
640.0,-0.0012094092089682817
704.0,-0.001312989741563797
768.0,-0.0010317076230421662
832.0,0.0002742349752224982
896.0,0.0013315760297700763
960.0,-3.300658136140555e-05
1024.0,-0.0004383799387142062
1152.0,-0.0010126496199518442
1280.0,-0.0003543029597494751
1408.0,0.0001230276102432981
1536.0,-0.000405390455853194
1664.0,0.0018775706412270665
1792.0,0.00014343857765197754
1920.0,0.0001274281821679324
2048.0,-0.001971303950995207
2304.0,-0.0009694125037640333
2560.0,0.00031271885382011533
2816.0,0.0008825611439533532
3072.0,-0.00035146833397448063
3328.0,-0.002082404214888811
3584.0,-0.003391978098079562
3840.0,-0.0006372809875756502
4096.0,-0.0005864707636646926
4608.0,-0.0004408366803545505
5120.0,0.0010762978345155716
5632.0,0.0017479322850704193
6144.0,-0.0018009316409006715
6656.0,0.0003562343481462449
7168.0,0.0006155336741358042
7680.0,-0.0019671039190143347
8192.0,-0.0006886651390232146
end
