version,3.0
numOfCh,1
type,point
parent_name,c1204_0dot2-1dot0
ch_type,1_1
kcount,1
numberNandB,1
brightnessNandB,1
carpet pos,0
pc,0
Time (ms),CH1 Auto-Correlation
1.0,0.021413877606391907
2.0,0.020995140075683594
3.0,0.020590854808688164
4.0,0.020211389288306236
5.0,0.01985451951622963
6.0,0.019523773342370987
7.0,0.01918676681816578
8.0,0.018860630691051483
9.0,0.018547886982560158
10.0,0.01823924109339714
11.0,0.0179321076720953
12.0,0.017624350264668465
13.0,0.017320960760116577
14.0,0.01702885329723358
15.0,0.016745083034038544
16.0,0.016475174576044083
18.0,0.0159511249512434
20.0,0.015431523323059082
22.0,0.014938991516828537
24.0,0.014481949619948864
26.0,0.014055533334612846
28.0,0.013638014905154705
30.0,0.013238885439932346
32.0,0.01286314520984888
36.0,0.0121564706787467
40.0,0.011498003266751766
44.0,0.010853500105440617
48.0,0.010235690511763096
52.0,0.009650305844843388
56.0,0.009122713468968868
60.0,0.008635519072413445
64.0,0.008158537559211254
72.0,0.007203329354524612
80.0,0.006119114812463522
88.0,0.005207363981753588
96.0,0.004612750373780727
104.0,0.004195004235953093
112.0,0.0038837259635329247
120.0,0.0036227726377546787
128.0,0.0033539715223014355
144.0,0.002543847309425473
160.0,0.0017353924922645092
176.0,0.0010418335441499949
192.0,0.000423856865381822
208.0,0.00015606828674208373
224.0,0.0001341287570539862
240.0,9.126743861997966e-06
256.0,-0.00034496854641474783
288.0,-0.0004824702918995172
320.0,-0.00037096967571415007
352.0,-0.0003217137709725648
384.0,-9.092742402572185e-06
416.0,0.0003854097449220717
448.0,0.001483030035160482
480.0,0.002584658097475767
512.0,0.0026664994657039642
576.0,0.0019288375042378902
640.0,0.002213559579104185
704.0,0.0011169990757480264
768.0,0.0013363909674808383
832.0,0.002185950055718422
896.0,0.002208355814218521
960.0,0.0022492080461233854
1024.0,0.0016677078092470765
1152.0,-0.00023320042237173766
1280.0,0.0015544695779681206
1408.0,0.002521608490496874
1536.0,0.0008997805998660624
1664.0,0.0013325470499694347
1792.0,0.0005971097270958126
1920.0,2.1378442397690378e-05
2048.0,-0.0010334817925468087
2304.0,0.0003325162106193602
2560.0,-0.0007276730029843748
2816.0,-0.00048355848412029445
3072.0,-0.00015623551735188812
3328.0,-0.0018597339512780309
3584.0,0.0009363425197079778
3840.0,-0.0011316406307742
4096.0,-2.727995888562873e-05
4608.0,-0.0004890737473033369
5120.0,-0.00034888609661720693
5632.0,-0.0013656148221343756
6144.0,-0.0019710210617631674
6656.0,-0.0022841121535748243
7168.0,-0.002205220051109791
7680.0,-0.001781810657121241
8192.0,-0.0020550470799207687
end
