version,3.0
numOfCh,1
type,point
parent_name,c1204_0dot2-1dot0
ch_type,1_1
kcount,1
numberNandB,1
brightnessNandB,1
carpet pos,0
pc,0
Time (ms),CH1 Auto-Correlation
1.0,0.023183712735772133
2.0,0.022758595645427704
3.0,0.022367699071764946
4.0,0.0220014825463295
5.0,0.021657509729266167
6.0,0.021318430081009865
7.0,0.020985525101423264
8.0,0.020673587918281555
9.0,0.02037428691983223
10.0,0.02007484622299671
11.0,0.019769785925745964
12.0,0.01949508674442768
13.0,0.019239189103245735
14.0,0.018991118296980858
15.0,0.018735665827989578
16.0,0.018491830676794052
18.0,0.018022524192929268
20.0,0.017534319311380386
22.0,0.01708913967013359
24.0,0.01666315086185932
26.0,0.01625550352036953
28.0,0.015890905633568764
30.0,0.015486270189285278
32.0,0.015101755037903786
36.0,0.014332561753690243
40.0,0.013614804483950138
44.0,0.012979000806808472
48.0,0.01246180571615696
52.0,0.012012685649096966
56.0,0.01158545445650816
60.0,0.011178114451467991
64.0,0.010699042119085789
72.0,0.010077307000756264
80.0,0.00958033837378025
88.0,0.009175384417176247
96.0,0.008816658519208431
104.0,0.008432704024016857
112.0,0.008095026016235352
120.0,0.007979136891663074
128.0,0.007992642000317574
144.0,0.008062291890382767
160.0,0.00796929094940424
176.0,0.007292184978723526
192.0,0.006730891298502684
208.0,0.0060206991620361805
224.0,0.005329652689397335
240.0,0.005285721272230148
256.0,0.005434613209217787
288.0,0.005836187861859798
320.0,0.006157901603728533
352.0,0.005594406742602587
384.0,0.004938931204378605
416.0,0.004711316432803869
448.0,0.004727356135845184
480.0,0.004383485298603773
512.0,0.00337314628995955
576.0,0.002872779034078121
640.0,0.0033529128413647413
704.0,0.001899280003271997
768.0,0.0011708771344274282
832.0,0.0006480842712335289
896.0,0.00032241884036920965
960.0,0.0005865063285455108
1024.0,-0.00026405139942653477
1152.0,-0.0022622765973210335
1280.0,-0.002087929053232074
1408.0,-0.001723140012472868
1536.0,-0.0007883243961259723
1664.0,0.00010914810263784602
1792.0,-0.0015925128245726228
1920.0,-0.0017426128033548594
2048.0,-0.0012030553771182895
2304.0,-0.00010428004316054285
2560.0,-0.0010952415177598596
2816.0,-0.0022305003367364407
3072.0,-0.0009621564531698823
3328.0,-0.00045230091200210154
3584.0,-0.0002874956408049911
3840.0,-0.00014861590170767158
4096.0,-0.00035095473867841065
4608.0,-0.0016935606254264712
5120.0,-0.0031534573063254356
5632.0,-0.00019059456826653332
6144.0,0.0008083496359176934
6656.0,0.0014867146965116262
7168.0,0.002976602641865611
7680.0,0.003524486208334565
8192.0,0.002476691734045744
end
