version,3.0
numOfCh,1
type,point
parent_name,c1204_0dot2-1dot0
ch_type,1_1
kcount,1
numberNandB,1
brightnessNandB,1
carpet pos,0
pc,0
Time (ms),CH1 Auto-Correlation
1.0,0.025418950244784355
2.0,0.02495616301894188
3.0,0.024522045627236366
4.0,0.024116676300764084
5.0,0.023729728534817696
6.0,0.023373523727059364
7.0,0.023039836436510086
8.0,0.02271103486418724
9.0,0.022389156743884087
10.0,0.02207288332283497
11.0,0.021765628829598427
12.0,0.021461671218276024
13.0,0.021171845495700836
14.0,0.020893748849630356
15.0,0.02061217650771141
16.0,0.020328080281615257
18.0,0.019819602370262146
20.0,0.019337452948093414
22.0,0.018898213282227516
24.0,0.018480762839317322
26.0,0.018083643168210983
28.0,0.017696117982268333
30.0,0.017343200743198395
32.0,0.01700916513800621
36.0,0.016389820724725723
40.0,0.01578451320528984
44.0,0.015198207460343838
48.0,0.014612428843975067
52.0,0.014000080525875092
56.0,0.013430396094918251
60.0,0.012855255976319313
64.0,0.012305534444749355
72.0,0.011338604614138603
80.0,0.010333496145904064
88.0,0.009382171556353569
96.0,0.00850428082048893
104.0,0.0077002341859042645
112.0,0.007084185257554054
120.0,0.00658015999943018
128.0,0.006274249870330095
144.0,0.005887623410671949
160.0,0.005536768585443497
176.0,0.005187458824366331
192.0,0.005175190977752209
208.0,0.005267543718218803
224.0,0.005359954200685024
240.0,0.005209695547819138
256.0,0.005138776730746031
288.0,0.003929466474801302
320.0,0.0022629504092037678
352.0,0.0011042769765481353
384.0,0.0004513867315836251
416.0,0.000430507177952677
448.0,0.0009757275111041963
480.0,0.0016196741489693522
512.0,0.00199695723131299
576.0,0.001536696800030768
640.0,0.000657601107377559
704.0,0.0008079204708337784
768.0,-0.0003583452489692718
832.0,-0.0012936302227899432
896.0,-0.0017284021014347672
960.0,-0.0017544415313750505
1024.0,-0.0015102610923349857
1152.0,-9.182045346278755e-07
1280.0,-0.0002877808874472976
1408.0,0.002040199702605605
1536.0,0.0011594566749408841
1664.0,-0.00037491670809686184
1792.0,-0.0022011026740074158
1920.0,-0.001432744087651372
2048.0,-0.0013768394710496068
2304.0,0.0006525406497530639
2560.0,0.0016032481798902154
2816.0,0.0007594556082040071
3072.0,0.00013950186257716268
3328.0,0.0005448987358249724
3584.0,0.0004930710420012474
3840.0,0.002226344309747219
4096.0,0.0015671446453779936
4608.0,0.00034265988506376743
5120.0,-0.001367291435599327
5632.0,-0.005534146446734667
6144.0,-0.00199105660431087
6656.0,0.0009010910871438682
7168.0,0.0008573553059250116
7680.0,-0.00020367013348732144
8192.0,-0.0021166775841265917
end
