version,3.0
numOfCh,1
type,point
parent_name,c1204_0dot2-1dot0
ch_type,1_1
kcount,1
numberNandB,1
brightnessNandB,1
carpet pos,0
pc,0
Time (ms),CH1 Auto-Correlation
1.0,0.025951499119400978
2.0,0.025495948269963264
3.0,0.025068942457437515
4.0,0.02467545121908188
5.0,0.024304155260324478
6.0,0.02394731156527996
7.0,0.023615680634975433
8.0,0.02328699268400669
9.0,0.02297927439212799
10.0,0.022701093927025795
11.0,0.022408727556467056
12.0,0.022117340937256813
13.0,0.021852746605873108
14.0,0.02159009501338005
15.0,0.021332886070013046
16.0,0.021071024239063263
18.0,0.020564943552017212
20.0,0.020095057785511017
22.0,0.019663438200950623
24.0,0.019238069653511047
26.0,0.018822545185685158
28.0,0.018389441072940826
30.0,0.01797708123922348
32.0,0.017559891566634178
36.0,0.016773289069533348
40.0,0.016023622825741768
44.0,0.015351134352385998
48.0,0.014709697104990482
52.0,0.014071823097765446
56.0,0.013494881801307201
60.0,0.012979624792933464
64.0,0.012501558288931847
72.0,0.011784161441028118
80.0,0.011174660176038742
88.0,0.010672743432223797
96.0,0.01029466837644577
104.0,0.010010750964283943
112.0,0.009911355562508106
120.0,0.009855635464191437
128.0,0.009683579206466675
144.0,0.009315039031207561
160.0,0.0085350526496768
176.0,0.00766361178830266
192.0,0.0072268107905983925
208.0,0.007258322089910507
224.0,0.0073114922270178795
240.0,0.007021756377071142
256.0,0.006502593867480755
288.0,0.005506996065378189
320.0,0.005318069364875555
352.0,0.005460341926664114
384.0,0.005326380021870136
416.0,0.00482022762298584
448.0,0.00437418557703495
480.0,0.0036696370225399733
512.0,0.003621059935539961
576.0,0.002824250375851989
640.0,0.0015561138279736042
704.0,0.0008285747026093304
768.0,0.0013348974753171206
832.0,0.0011668783845379949
896.0,0.0022337529808282852
960.0,0.0025796648114919662
1024.0,0.0026564616709947586
1152.0,0.0009357698145322502
1280.0,0.002320524537935853
1408.0,0.0018133221892639995
1536.0,0.0020745170768350363
1664.0,0.0028420581948012114
1792.0,0.003608069382607937
1920.0,0.0028528242837637663
2048.0,0.0035671552177518606
2304.0,0.003933243453502655
2560.0,0.004311997909098864
2816.0,0.003924956079572439
3072.0,0.0010974594624713063
3328.0,8.169423381332308e-05
3584.0,0.0006793938227929175
3840.0,0.0016968271229416132
4096.0,0.0020169620402157307
4608.0,-0.0006440056604333222
5120.0,-0.0037254716735333204
5632.0,-0.0023011486046016216
6144.0,-0.003211744362488389
6656.0,-0.0029879070352762938
7168.0,-0.003971297759562731
7680.0,-0.004053608980029821
8192.0,-0.004644608125090599
end
