version,3.0
numOfCh,1
type,point
parent_name,c1204_0dot2-1dot0
ch_type,1_1
kcount,1
numberNandB,1
brightnessNandB,1
carpet pos,0
pc,0
Time (ms),CH1 Auto-Correlation
1.0,0.02439599670469761
2.0,0.023974372074007988
3.0,0.023586878553032875
4.0,0.023220516741275787
5.0,0.022865593433380127
6.0,0.0225247573107481
7.0,0.022193288430571556
8.0,0.021872641518712044
9.0,0.02156829461455345
10.0,0.021272556856274605
11.0,0.020992642268538475
12.0,0.020737214013934135
13.0,0.020479416474699974
14.0,0.020222097635269165
15.0,0.019969070330262184
16.0,0.019735177978873253
18.0,0.01930534839630127
20.0,0.01887187734246254
22.0,0.018458057194948196
24.0,0.018088748678565025
26.0,0.017732905223965645
28.0,0.017365558072924614
30.0,0.01700175553560257
32.0,0.01664763316512108
36.0,0.015992242842912674
40.0,0.01537218689918518
44.0,0.014786304906010628
48.0,0.014273143373429775
52.0,0.013885779306292534
56.0,0.01351463608443737
60.0,0.01310043316334486
64.0,0.01271845679730177
72.0,0.012064017355442047
80.0,0.011581103317439556
88.0,0.011041845194995403
96.0,0.010357777588069439
104.0,0.009602832607924938
112.0,0.008926614187657833
120.0,0.008278490044176579
128.0,0.007716713007539511
144.0,0.006944977678358555
160.0,0.006358343642205
176.0,0.005885266233235598
192.0,0.0054361335933208466
208.0,0.005078773479908705
224.0,0.004878553096204996
240.0,0.004783727694302797
256.0,0.004478484392166138
288.0,0.00427431333810091
320.0,0.004580014385282993
352.0,0.0048456653021276
384.0,0.005084297154098749
416.0,0.006258556619286537
448.0,0.007120765279978514
480.0,0.007601086515933275
512.0,0.008234734646975994
576.0,0.006175576243549585
640.0,0.004294642712920904
704.0,0.0031632648315280676
768.0,0.002938902471214533
832.0,0.0015988376690074801
896.0,0.0007962915115058422
960.0,0.0017983739962801337
1024.0,0.002264028415083885
1152.0,0.0036409273743629456
1280.0,0.002545694587752223
1408.0,0.00044267295743338764
1536.0,0.00029493169859051704
1664.0,0.0016323006711900234
1792.0,0.00015118930605240166
1920.0,-0.0012347819283604622
2048.0,-0.0004703027370851487
2304.0,-0.0023634920362383127
2560.0,-0.002552012214437127
2816.0,-0.002485264092683792
3072.0,-0.003816868644207716
3328.0,-0.001974939601495862
3584.0,-0.0045306324027478695
3840.0,-0.0032371480483561754
4096.0,-0.0034280356485396624
4608.0,-0.002648373367264867
5120.0,-0.0006902024615556002
5632.0,0.0017783106304705143
6144.0,0.004856074694544077
6656.0,0.004528175573796034
7168.0,0.0021532622631639242
7680.0,0.0005415168707258999
8192.0,-0.0020188544876873493
end
