version,3.0
numOfCh,1
type,point
parent_name,c1204_0dot2-1dot0
ch_type,1_1
kcount,1
numberNandB,1
brightnessNandB,1
carpet pos,0
pc,0
Time (ms),CH1 Auto-Correlation
1.0,0.021329404786229134
2.0,0.020909583196043968
3.0,0.02051032893359661
4.0,0.020111894235014915
5.0,0.019736273214221
6.0,0.019366178661584854
7.0,0.01901150494813919
8.0,0.018657563254237175
9.0,0.018319785594940186
10.0,0.018005123361945152
11.0,0.017697539180517197
12.0,0.01740170270204544
13.0,0.017115730792284012
14.0,0.016836972907185555
15.0,0.01656901277601719
16.0,0.016313813626766205
18.0,0.01581915281713009
20.0,0.015352102927863598
22.0,0.014941003173589706
24.0,0.014581438153982162
26.0,0.014253857545554638
28.0,0.013939989730715752
30.0,0.013656504452228546
32.0,0.013384588994085789
36.0,0.012842328287661076
40.0,0.012275722809135914
44.0,0.011732205748558044
48.0,0.011210743337869644
52.0,0.010755246505141258
56.0,0.01038974430412054
60.0,0.010096793062984943
64.0,0.009823461063206196
72.0,0.009270627982914448
80.0,0.008724525570869446
88.0,0.008184976875782013
96.0,0.007745528593659401
104.0,0.007391037885099649
112.0,0.00700770877301693
120.0,0.006704261992126703
128.0,0.0064710527658462524
144.0,0.006165770813822746
160.0,0.005867784842848778
176.0,0.005457730498164892
192.0,0.004978451412171125
208.0,0.00451535964384675
224.0,0.004388995468616486
240.0,0.004312001168727875
256.0,0.003890263382345438
288.0,0.0028980344068259
320.0,0.0024508724454790354
352.0,0.0019746762700378895
384.0,0.0014938319800421596
416.0,0.00102555425837636
448.0,0.0006530359969474375
480.0,0.00040776500827632844
512.0,0.0003860891447402537
576.0,0.0006552445120178163
640.0,0.0012918642023578286
704.0,0.0008872209000401199
768.0,0.00049097731243819
832.0,-0.0001966789277503267
896.0,-2.728280560404528e-05
960.0,0.000510640733409673
1024.0,0.0007621476543135941
1152.0,-7.110602018656209e-05
1280.0,0.001101381960324943
1408.0,0.0019209187012165785
1536.0,0.002879919484257698
1664.0,0.002554807346314192
1792.0,0.0009003680315800011
1920.0,6.821915121690836e-06
2048.0,-0.00042018742533400655
2304.0,0.001068565878085792
2560.0,-4.160256139584817e-06
2816.0,-0.0013494406593963504
3072.0,-0.0028949168045073748
3328.0,-0.003572774352505803
3584.0,-0.0027096765115857124
3840.0,-0.0005508306785486639
4096.0,-0.0004699653945863247
4608.0,-0.0029188161715865135
5120.0,-0.0020280457101762295
5632.0,-0.0032425664830952883
6144.0,-0.0013806672068312764
6656.0,0.0002311537100467831
7168.0,-0.002073317300528288
7680.0,0.001995674567297101
8192.0,0.0035699116997420788
end
