version,3.0
numOfCh,1
type,point
parent_name,c1204_0dot2-1dot0
ch_type,1_1
kcount,1
numberNandB,1
brightnessNandB,1
carpet pos,0
pc,0
Time (ms),CH1 Auto-Correlation
1.0,0.02014092542231083
2.0,0.01972239837050438
3.0,0.019334834069013596
4.0,0.018961066380143166
5.0,0.018593700602650642
6.0,0.018223030492663383
7.0,0.01787077635526657
8.0,0.017535259947180748
9.0,0.017215685918927193
10.0,0.016908839344978333
11.0,0.01661285012960434
12.0,0.016330024227499962
13.0,0.016041574999690056
14.0,0.015758030116558075
15.0,0.015485971234738827
16.0,0.015210147947072983
18.0,0.014684650115668774
20.0,0.014168418943881989
22.0,0.0136784128844738
24.0,0.013209806755185127
26.0,0.012755755335092545
28.0,0.012326827272772789
30.0,0.011950677260756493
32.0,0.011632293462753296
36.0,0.011030429042875767
40.0,0.010497893206775188
44.0,0.010012957267463207
48.0,0.009548556059598923
52.0,0.009069854393601418
56.0,0.008641096763312817
60.0,0.008234749548137188
64.0,0.007845700718462467
72.0,0.006999556440860033
80.0,0.006155238952487707
88.0,0.005462092347443104
96.0,0.004842767491936684
104.0,0.004363742657005787
112.0,0.0038868775591254234
120.0,0.003484640270471573
128.0,0.0032383431680500507
144.0,0.0026324086356908083
160.0,0.0020363160874694586
176.0,0.0012603331124410033
192.0,0.0005628239014185965
208.0,-0.00014839549839962274
224.0,-0.0006380865233950317
240.0,-0.0006582466303370893
256.0,-0.00012838213297072798
288.0,0.00041040516225621104
320.0,0.00038694177055731416
352.0,0.00019363082537893206
384.0,0.00011499410902615637
416.0,0.0008840563823468983
448.0,0.0010848845122382045
480.0,0.000437969749327749
512.0,-0.00029393163276836276
576.0,-0.00017623112944420427
640.0,-0.0009551358525641263
704.0,1.2196438547107391e-05
768.0,0.0018389010801911354
832.0,0.0015398315154016018
896.0,0.0003084943164139986
960.0,-0.002378383418545127
1024.0,-0.003269959706813097
1152.0,-0.001261113677173853
1280.0,-0.0009201747016049922
1408.0,-0.0007925813551992178
1536.0,-0.0015224311500787735
1664.0,-0.0008611577795818448
1792.0,-0.0023164586164057255
1920.0,-0.002770455554127693
2048.0,-0.0007376784342341125
2304.0,-0.0009649323183111846
2560.0,-0.0006650920258834958
2816.0,-0.0001327521458733827
3072.0,0.0009790135081857443
3328.0,0.0011732010170817375
3584.0,0.002056458033621311
3840.0,0.0007839647587388754
4096.0,0.001986933406442404
4608.0,-5.599673841061303e-06
5120.0,2.0914521883241832e-05
5632.0,-0.0012596241431310773
6144.0,-0.002181865042075515
6656.0,-0.00028665567515417933
7168.0,0.0009994911961257458
7680.0,0.0017787428805604577
8192.0,0.001448752824217081
end
