version,3.0
numOfCh,1
type,point
parent_name,c1204_0dot2-1dot0
ch_type,1_1
kcount,1
numberNandB,1
brightnessNandB,1
carpet pos,0
pc,0
Time (ms),CH1 Auto-Correlation
1.0,0.02246985211968422
2.0,0.022024067118763924
3.0,0.02160215564072132
4.0,0.021219350397586823
5.0,0.020842010155320168
6.0,0.020481286570429802
7.0,0.020136674866080284
8.0,0.01980709284543991
9.0,0.01949206553399563
10.0,0.019172320142388344
11.0,0.018863625824451447
12.0,0.018551195040345192
13.0,0.01824302226305008
14.0,0.017941145226359367
15.0,0.01766945980489254
16.0,0.01741044409573078
18.0,0.016923198476433754
20.0,0.01643478125333786
22.0,0.015970656648278236
24.0,0.0155343571677804
26.0,0.015127714723348618
28.0,0.014742889441549778
30.0,0.01440513227134943
32.0,0.014096111059188843
36.0,0.013554831966757774
40.0,0.013101393356919289
44.0,0.012723964639008045
48.0,0.012356218881905079
52.0,0.011963165365159512
56.0,0.011563392356038094
60.0,0.011228945106267929
64.0,0.01095415186136961
72.0,0.010350063443183899
80.0,0.009764604270458221
88.0,0.00923042930662632
96.0,0.008789677172899246
104.0,0.008428994566202164
112.0,0.008046952076256275
120.0,0.007523967418819666
128.0,0.007146870717406273
144.0,0.006695454940199852
160.0,0.006336519960314035
176.0,0.0063436743803322315
192.0,0.006356955971568823
208.0,0.006388588342815638
224.0,0.006542122457176447
240.0,0.006115365773439407
256.0,0.005634439643472433
288.0,0.005765268113464117
320.0,0.005227009300142527
352.0,0.004785498604178429
384.0,0.004710953216999769
416.0,0.005456897430121899
448.0,0.006354772951453924
480.0,0.0068743182346224785
512.0,0.007374416571110487
576.0,0.006252340041100979
640.0,0.005370437167584896
704.0,0.005044514313340187
768.0,0.00510909128934145
832.0,0.004731051158159971
896.0,0.0034863969776779413
960.0,0.0034058191813528538
1024.0,0.004449732601642609
1152.0,0.004122089594602585
1280.0,0.00534916901960969
1408.0,0.004131207708269358
1536.0,0.003983592614531517
1664.0,0.0028221136890351772
1792.0,0.0040131062269210815
1920.0,0.0009639763156883419
2048.0,0.0009378941613249481
2304.0,0.0001370478858007118
2560.0,-0.000589152448810637
2816.0,-0.0005782869411632419
3072.0,-0.00143421720713377
3328.0,-0.0014351982390508056
3584.0,-0.0037076312582939863
3840.0,-0.0037756292149424553
4096.0,-0.004702460020780563
4608.0,-0.004459765274077654
5120.0,-0.003920428920537233
5632.0,-0.0028751345816999674
6144.0,-0.0025653159245848656
6656.0,-0.00034644946572370827
7168.0,0.0008246418437920511
7680.0,0.0019018385792151093
8192.0,0.004096330609172583
end
