version,3.0
numOfCh,1
type,point
parent_name,0cd20_1dot0-0dot01
ch_type,1_1
kcount,1
numberNandB,1
brightnessNandB,1
carpet pos,0
pc,0
Time (ms),CH1 Auto-Correlation
1.0,0.038784533739089966
2.0,0.0356178842484951
3.0,0.03287427872419357
4.0,0.03045891411602497
5.0,0.028349660336971283
6.0,0.026437947526574135
7.0,0.024776430800557137
8.0,0.023291071876883507
9.0,0.02183597721159458
10.0,0.0205635204911232
11.0,0.019495142623782158
12.0,0.01846301183104515
13.0,0.017619654536247253
14.0,0.016782093793153763
15.0,0.015964195132255554
16.0,0.015297530218958855
18.0,0.01422709971666336
20.0,0.013409786857664585
22.0,0.012670263648033142
24.0,0.012157076969742775
26.0,0.011778564192354679
28.0,0.01123834028840065
30.0,0.010691594332456589
32.0,0.010318690910935402
36.0,0.009454253129661083
40.0,0.008399362675845623
44.0,0.007343953475356102
48.0,0.006756811868399382
52.0,0.0064788698218762875
56.0,0.006314069498330355
60.0,0.006169065833091736
64.0,0.0058864993043243885
72.0,0.004775910172611475
80.0,0.003295770613476634
88.0,0.0016396349528804421
96.0,0.00019017746672034264
104.0,-0.0005667173536494374
112.0,-0.00045426320866681635
120.0,-0.00017513202328700572
128.0,0.00044133292976766825
144.0,0.0006401239079423249
160.0,0.00039310281863436103
176.0,-0.0003750167088583112
192.0,-0.0005885454011149704
208.0,-0.000386488827643916
224.0,-3.203810047125444e-05
240.0,-0.0008576450636610389
256.0,-0.0002239138848381117
288.0,0.0010272904764860868
320.0,0.0013643772108480334
352.0,0.00258258986286819
384.0,0.001843676553107798
416.0,0.001425937400199473
448.0,0.0002109149208990857
480.0,6.482085882453248e-05
512.0,-0.0002296227467013523
576.0,0.0003305559221189469
640.0,0.00144184660166502
704.0,0.0005097636603750288
768.0,-0.00018399623513687402
832.0,0.0005402297247201204
896.0,0.0018020233837887645
960.0,0.002452150220051408
1024.0,-0.0001527558924863115
1152.0,-6.680720980511978e-05
1280.0,0.0005947239696979523
1408.0,0.00017707637744024396
1536.0,0.0002803195675369352
1664.0,-0.0007367136422544718
1792.0,-0.0012583127245306969
1920.0,0.001091431942768395
2048.0,-5.637880803988082e-06
2304.0,-0.0009161479538306594
2560.0,-0.0025263833813369274
2816.0,-0.0015635098097845912
3072.0,-0.001531569636426866
3328.0,-0.0014122652355581522
3584.0,5.482460983330384e-05
3840.0,-0.00020814863091800362
4096.0,-0.0004022441280540079
4608.0,0.0006431909278035164
5120.0,0.0011050526518374681
5632.0,0.0015249000862240791
6144.0,-0.0002076270611723885
6656.0,0.0005245970678515732
7168.0,-0.0004523174720816314
7680.0,0.0003103914496023208
8192.0,-0.00112686469219625
end
