version,3.0
numOfCh,1
type,point
parent_name,0cd20_1dot0-0dot01
ch_type,1_1
kcount,1
numberNandB,1
brightnessNandB,1
carpet pos,0
pc,0
Time (ms),CH1 Auto-Correlation
1.0,0.038038354367017746
2.0,0.034763362258672714
3.0,0.03213369846343994
4.0,0.029830582439899445
5.0,0.027765562757849693
6.0,0.025933966040611267
7.0,0.02433345839381218
8.0,0.022924846038222313
9.0,0.021723579615354538
10.0,0.020706109702587128
11.0,0.019839035347104073
12.0,0.019017092883586884
13.0,0.018289290368556976
14.0,0.017560021951794624
15.0,0.016964497044682503
16.0,0.016438428312540054
18.0,0.015457733534276485
20.0,0.014651147648692131
22.0,0.013660113327205181
24.0,0.0127705754712224
26.0,0.012131099589169025
28.0,0.01162794791162014
30.0,0.01129128411412239
32.0,0.010887403041124344
36.0,0.0098023172467947
40.0,0.008839634247124195
44.0,0.007802965585142374
48.0,0.006808951031416655
52.0,0.0063141267746686935
56.0,0.006110409740358591
60.0,0.005535769741982222
64.0,0.005000738427042961
72.0,0.004225429147481918
80.0,0.0040504890494048595
88.0,0.004173513501882553
96.0,0.0040639182552695274
104.0,0.0027783859986811876
112.0,0.0020069831516593695
120.0,0.001489735790528357
128.0,0.0015155056025832891
144.0,0.0011788834817707539
160.0,0.0007244399166665971
176.0,0.0006711686728522182
192.0,0.0012711762683466077
208.0,0.0014295573346316814
224.0,0.0016334709944203496
240.0,0.0011174893006682396
256.0,0.001887779333628714
288.0,0.0013914263108745217
320.0,0.0012413716176524758
352.0,0.001008135499432683
384.0,0.000750937033444643
416.0,0.0013988687423989177
448.0,0.0017266134964302182
480.0,0.0012582003837451339
512.0,0.0009931670501828194
576.0,-0.00029394327430054545
640.0,-0.0019501380156725645
704.0,-0.002901724772527814
768.0,-0.0024202598724514246
832.0,-0.0012043524766340852
896.0,-0.00034651040914468467
960.0,-0.000400260032620281
1024.0,-0.0028772244695574045
1152.0,-0.0015718215145170689
1280.0,0.0008957061218097806
1408.0,-0.00012137198791606352
1536.0,0.0007915261667221785
1664.0,-0.0010916427709162235
1792.0,-0.00023685753694735467
1920.0,0.0013709639897570014
2048.0,-0.002186350291594863
2304.0,0.0015400488628074527
2560.0,0.0010090741561725736
2816.0,0.0008505595615133643
3072.0,-0.00030249039991758764
3328.0,-0.0013805775670334697
3584.0,-0.00046116102021187544
3840.0,0.00045781396329402924
4096.0,0.0009521112660877407
4608.0,-0.0006486824131570756
5120.0,-0.0008783828234300017
5632.0,0.00036858348175883293
6144.0,-0.00034030573442578316
6656.0,-0.0006067004287615418
7168.0,-0.0009929955704137683
7680.0,-0.0016786230262368917
8192.0,0.0018204053631052375
end
