version,3.0
numOfCh,1
type,point
parent_name,0cd20_1dot0-0dot01
ch_type,1_1
kcount,1
numberNandB,1
brightnessNandB,1
carpet pos,0
pc,0
Time (ms),CH1 Auto-Correlation
1.0,0.041831549257040024
2.0,0.03858398273587227
3.0,0.03576899319887161
4.0,0.03333577141165733
5.0,0.031135695055127144
6.0,0.029274094849824905
7.0,0.027711424976587296
8.0,0.026339160278439522
9.0,0.025005588307976723
10.0,0.02377023734152317
11.0,0.02257639355957508
12.0,0.021581852808594704
13.0,0.02064693160355091
14.0,0.019729267805814743
15.0,0.018932851031422615
16.0,0.018180515617132187
18.0,0.016883505508303642
20.0,0.015806902199983597
22.0,0.01478718314319849
24.0,0.013897381722927094
26.0,0.013190887868404388
28.0,0.01257547177374363
30.0,0.01201415341347456
32.0,0.01153792254626751
36.0,0.010533272288739681
40.0,0.009673739783465862
44.0,0.008803038857877254
48.0,0.008113042451441288
52.0,0.007435481995344162
56.0,0.006831412203609943
60.0,0.006335141137242317
64.0,0.005759367719292641
72.0,0.004247820936143398
80.0,0.0034059775061905384
88.0,0.0028137140907347202
96.0,0.002380297752097249
104.0,0.002743680961430073
112.0,0.0033369569573551416
120.0,0.002992672147229314
128.0,0.003330447943881154
144.0,0.003798842430114746
160.0,0.004334338009357452
176.0,0.0035914217587560415
192.0,0.002285818802192807
208.0,0.0009029601351357996
224.0,0.0010816844878718257
240.0,0.0006060305167920887
256.0,0.0009159655892290175
288.0,0.0010967280250042677
320.0,4.747676939587109e-05
352.0,0.0008997632539831102
384.0,0.0010198395466431975
416.0,0.0015959709417074919
448.0,0.0008006957359611988
480.0,-0.0011859541991725564
512.0,-0.0022470736876130104
576.0,-0.00035696738632395864
640.0,-0.0034592947922647
704.0,-0.0011950429761782289
768.0,0.0011425602715462446
832.0,-0.001249971566721797
896.0,3.220959843019955e-05
960.0,0.0006615438032895327
1024.0,-0.0003312675980851054
1152.0,5.9335514379199594e-05
1280.0,-0.0002481669362168759
1408.0,-0.0002031613257713616
1536.0,-0.0006364405271597207
1664.0,-0.0024840885307639837
1792.0,-0.0004557684005703777
1920.0,-0.0006433375529013574
2048.0,-0.0011695156572386622
2304.0,-0.0013280203565955162
2560.0,0.00032447578269056976
2816.0,-0.0007212012424133718
3072.0,-0.0029764713253825903
3328.0,-0.001409674994647503
3584.0,0.001374732470139861
3840.0,0.0019105493556708097
4096.0,-0.00015183874347712845
4608.0,0.0024031675420701504
5120.0,-0.00031179733923636377
5632.0,-0.0007068865234032273
6144.0,0.0008909152238629758
6656.0,-0.0033268053084611893
7168.0,-0.00026931805768981576
7680.0,7.84586081863381e-05
8192.0,0.001999590313062072
end
