version,3.0
numOfCh,1
type,point
parent_name,0cd20_1dot0-0dot01
ch_type,1_1
kcount,1
numberNandB,1
brightnessNandB,1
carpet pos,0
pc,0
Time (ms),CH1 Auto-Correlation
1.0,0.042058661580085754
2.0,0.03903673589229584
3.0,0.036447856575250626
4.0,0.034159597009420395
5.0,0.032379139214754105
6.0,0.030701756477355957
7.0,0.029213376343250275
8.0,0.027824247255921364
9.0,0.02656223624944687
10.0,0.02539944089949131
11.0,0.024304892867803574
12.0,0.023255204781889915
13.0,0.02233903855085373
14.0,0.021533524617552757
15.0,0.02083180844783783
16.0,0.020123718306422234
18.0,0.018853142857551575
20.0,0.017882872372865677
22.0,0.017002159729599953
24.0,0.016308216378092766
26.0,0.015674713999032974
28.0,0.015037083066999912
30.0,0.014325656928122044
32.0,0.013481374830007553
36.0,0.012370596639811993
40.0,0.011211606673896313
44.0,0.010380292311310768
48.0,0.009673205204308033
52.0,0.009110060520470142
56.0,0.008946656249463558
60.0,0.008824273012578487
64.0,0.008577784523367882
72.0,0.007839652709662914
80.0,0.0063768853433430195
88.0,0.005312879104167223
96.0,0.004316383972764015
104.0,0.0035653894301503897
112.0,0.0027042613364756107
120.0,0.001591985928826034
128.0,0.0014320589834824204
144.0,0.0012769985478371382
160.0,0.0010512248845770955
176.0,0.0016514649614691734
192.0,0.00029153338982723653
208.0,-0.0003846566833090037
224.0,-0.00039538845885545015
240.0,0.0018351892940700054
256.0,0.0033274407032877207
288.0,0.0035299628507345915
320.0,0.003306950442492962
352.0,0.004320766311138868
384.0,0.0048293559812009335
416.0,0.0038115300703793764
448.0,0.0016659303801134229
480.0,0.002638304838910699
512.0,0.002612290671095252
576.0,0.002245855052024126
640.0,0.0017569216433912516
704.0,0.0017194213578477502
768.0,0.00018094795814249665
832.0,0.0013308466877788305
896.0,0.0020674094557762146
960.0,0.0028394567780196667
1024.0,0.0030913164373487234
1152.0,0.0027590140234678984
1280.0,0.0012391103664413095
1408.0,-4.2647145164664835e-05
1536.0,-0.0006693546893075109
1664.0,-0.001643573516048491
1792.0,0.001321845455095172
1920.0,0.0011143895098939538
2048.0,0.001195059739984572
2304.0,-0.0008382738451473415
2560.0,-0.002272428711876273
2816.0,-0.0012297664070501924
3072.0,0.00036045603337697685
3328.0,-0.0007666696910746396
3584.0,-0.00016826244245748967
3840.0,2.0247622160241008e-05
4096.0,0.0034907713998109102
4608.0,-0.0003624963283073157
5120.0,-0.0018279666546732187
5632.0,-0.0029297457076609135
6144.0,-0.0027729340363293886
6656.0,-0.0035833027213811874
7168.0,-0.0024729513097554445
7680.0,-0.0013819484738633037
8192.0,0.001355847460217774
end
