version,3.0
numOfCh,1
type,point
parent_name,0cd20_1dot0-0dot01
ch_type,1_1
kcount,1
numberNandB,1
brightnessNandB,1
carpet pos,0
pc,0
Time (ms),CH1 Auto-Correlation
1.0,0.040939442813396454
2.0,0.03762338310480118
3.0,0.03472726047039032
4.0,0.03218966722488403
5.0,0.030104419216513634
6.0,0.028212962672114372
7.0,0.026495710015296936
8.0,0.02493804320693016
9.0,0.0235584806650877
10.0,0.022200310602784157
11.0,0.021060479804873466
12.0,0.020026052370667458
13.0,0.019093865528702736
14.0,0.018211746588349342
15.0,0.017394140362739563
16.0,0.016685882583260536
18.0,0.015474162064492702
20.0,0.014440520666539669
22.0,0.013547850772738457
24.0,0.012822018936276436
26.0,0.012045327574014664
28.0,0.01140414085239172
30.0,0.010844419710338116
32.0,0.010397275909781456
36.0,0.009867079555988312
40.0,0.009621047414839268
44.0,0.009112800471484661
48.0,0.00872031133621931
52.0,0.00857588928192854
56.0,0.008231612853705883
60.0,0.007276463788002729
64.0,0.006349238567054272
72.0,0.00466560572385788
80.0,0.003347520949319005
88.0,0.0028876373544335365
96.0,0.00326576828956604
104.0,0.0036242257338017225
112.0,0.0041467188857495785
120.0,0.004309582989662886
128.0,0.004238060209900141
144.0,0.004103916231542826
160.0,0.004165532998740673
176.0,0.004361797124147415
192.0,0.002716532675549388
208.0,0.002030964009463787
224.0,0.001893439912237227
240.0,0.0019727323669940233
256.0,0.0010955296456813812
288.0,0.0012895709369331598
320.0,0.0011305916123092175
352.0,0.001783653162419796
384.0,0.002058669226244092
416.0,0.002644023159518838
448.0,0.0030855252407491207
480.0,0.0023834763560444117
512.0,0.002306290902197361
576.0,0.0034482316114008427
640.0,0.003541461657732725
704.0,0.0013050995767116547
768.0,-0.0007114856271073222
832.0,-0.002008179435506463
896.0,-0.0007743200403638184
960.0,-0.00022456195438280702
1024.0,0.00010033872968051583
1152.0,0.000910906761419028
1280.0,0.0001069914796971716
1408.0,-9.91939305095002e-05
1536.0,-0.0005804388201795518
1664.0,0.0008257395238615572
1792.0,0.0004859697073698044
1920.0,-0.0002505123266018927
2048.0,-0.0028009999077767134
2304.0,-0.0017177574336528778
2560.0,-0.0019250293262302876
2816.0,-0.001256877789273858
3072.0,0.00010946277325274423
3328.0,0.00028874145937152207
3584.0,-0.00020093050261493772
3840.0,0.000558622763492167
4096.0,0.0013250454794615507
4608.0,0.00033874184009619057
5120.0,0.000982716795988381
5632.0,0.0002484667347744107
6144.0,-0.00206740596331656
6656.0,-0.0018779425881803036
7168.0,-0.0003231547598261386
7680.0,-0.0025763814337551594
8192.0,-0.0015287925489246845
end
