version,3.0
numOfCh,1
type,point
parent_name,0cd20_1dot0-0dot01
ch_type,1_1
kcount,1
numberNandB,1
brightnessNandB,1
carpet pos,0
pc,0
Time (ms),CH1 Auto-Correlation
1.0,0.24575532972812653
2.0,0.2436324954032898
3.0,0.24164633452892303
4.0,0.23976662755012512
5.0,0.23811371624469757
6.0,0.23659762740135193
7.0,0.23516179621219635
8.0,0.23380951583385468
9.0,0.2325080931186676
10.0,0.23136073350906372
11.0,0.23023095726966858
12.0,0.22912469506263733
13.0,0.2280607670545578
14.0,0.22714175283908844
15.0,0.2263098657131195
16.0,0.22536300122737885
18.0,0.22358837723731995
20.0,0.22214436531066895
22.0,0.22073927521705627
24.0,0.21958941221237183
26.0,0.21859444677829742
28.0,0.2175740897655487
30.0,0.21667954325675964
32.0,0.21568563580513
36.0,0.21283811330795288
40.0,0.21026472747325897
44.0,0.2077457457780838
48.0,0.2045992761850357
52.0,0.20183230936527252
56.0,0.1995568424463272
60.0,0.19719387590885162
64.0,0.19464951753616333
72.0,0.19008184969425201
80.0,0.1856977790594101
88.0,0.18059562146663666
96.0,0.17582844197750092
104.0,0.1716773957014084
112.0,0.16792502999305725
120.0,0.16471612453460693
128.0,0.16124656796455383
144.0,0.15621161460876465
160.0,0.15202394127845764
176.0,0.14885428547859192
192.0,0.1487986147403717
208.0,0.1479617953300476
224.0,0.1474488228559494
240.0,0.14791004359722137
256.0,0.14925695955753326
288.0,0.15619124472141266
320.0,0.1642124354839325
352.0,0.16910743713378906
384.0,0.1703319251537323
416.0,0.16933712363243103
448.0,0.16291774809360504
480.0,0.15195803344249725
512.0,0.13938139379024506
576.0,0.11908243596553802
640.0,0.10572907328605652
704.0,0.10619097948074341
768.0,0.10816235840320587
832.0,0.1082223653793335
896.0,0.10035915672779083
960.0,0.07840677350759506
1024.0,0.057555533945560455
1152.0,0.04485558718442917
1280.0,0.03078620694577694
1408.0,0.004724521655589342
1536.0,-0.01651395484805107
1664.0,-0.0305766761302948
1792.0,-0.03511995077133179
1920.0,-0.04794830456376076
2048.0,-0.05766164883971214
2304.0,-0.0751008614897728
2560.0,-0.09367275983095169
2816.0,-0.10028370469808578
3072.0,-0.12194900214672089
3328.0,-0.13667793571949005
3584.0,-0.16497209668159485
3840.0,-0.17572136223316193
4096.0,-0.18769031763076782
end
