version,3.0
numOfCh,1
type,point
parent_name,0cd20_1dot0-0dot01
ch_type,1_1
kcount,1
numberNandB,1
brightnessNandB,1
carpet pos,0
pc,0
Time (ms),CH1 Auto-Correlation
1.0,0.042348217219114304
2.0,0.03910888358950615
3.0,0.036222316324710846
4.0,0.03368394076824188
5.0,0.0315035916864872
6.0,0.029512133449316025
7.0,0.02776678279042244
8.0,0.02613007463514805
9.0,0.024595502763986588
10.0,0.02323209121823311
11.0,0.02203519456088543
12.0,0.020977817475795746
13.0,0.020038364455103874
14.0,0.01917133294045925
15.0,0.01851741224527359
16.0,0.017836039885878563
18.0,0.016549324616789818
20.0,0.01554054580628872
22.0,0.014640620909631252
24.0,0.013960421085357666
26.0,0.013460342772305012
28.0,0.01311847846955061
30.0,0.0128112668171525
32.0,0.012315929867327213
36.0,0.011156193912029266
40.0,0.009590180590748787
44.0,0.008262320421636105
48.0,0.007676237728446722
52.0,0.00800161249935627
56.0,0.00781961064785719
60.0,0.0075187901966273785
64.0,0.0069687506183981895
72.0,0.005666723940521479
80.0,0.0050376225262880325
88.0,0.0053881388157606125
96.0,0.0053791762329638
104.0,0.004925988614559174
112.0,0.004412901122123003
120.0,0.004040498752146959
128.0,0.0035033344756811857
144.0,0.0032958583906292915
160.0,0.0033780585508793592
176.0,0.0028474268037825823
192.0,0.0027603795751929283
208.0,0.0018088117940351367
224.0,0.00240120617672801
240.0,0.0017434597248211503
256.0,0.0015334298368543386
288.0,0.0010793724795803428
320.0,0.0010147601133212447
352.0,0.0007935399189591408
384.0,-6.55528056086041e-05
416.0,-0.00017867823771666735
448.0,-0.0014982997672632337
480.0,7.702072616666555e-05
512.0,0.0010803856421262026
576.0,-0.00027609066455625
640.0,-0.001210724120028317
704.0,-0.0008644105400890112
768.0,-0.0019944594241678715
832.0,-0.0006590561242774129
896.0,-0.0006110711838118732
960.0,-0.0009579468169249594
1024.0,-0.0007124030380509794
1152.0,-0.0027718450874090195
1280.0,-0.0014437708305194974
1408.0,-0.00010950832074740902
1536.0,0.0009817780228331685
1664.0,0.0008253584383055568
1792.0,0.0006175065645948052
1920.0,3.5283766919746995e-05
2048.0,-0.0004904922679997981
2304.0,-0.0004238717374391854
2560.0,-0.0011821980588138103
2816.0,-0.0023717940784990788
3072.0,-0.001255835872143507
3328.0,0.0011487590381875634
3584.0,0.00038503415999002755
3840.0,0.0006448259809985757
4096.0,0.0005315418820828199
4608.0,-0.0005939817056059837
5120.0,-0.00010314315295545384
5632.0,0.00045843873522244394
6144.0,-0.0008923908462747931
6656.0,0.0008449412416666746
7168.0,0.0010976657504215837
7680.0,0.0005386954289861023
8192.0,0.00021360880054999143
end
