version,3.0
numOfCh,1
type,point
parent_name,0cd20_1dot0-0dot01
ch_type,1_1
kcount,1
numberNandB,1
brightnessNandB,1
carpet pos,0
pc,0
Time (ms),CH1 Auto-Correlation
1.0,0.044472794979810715
2.0,0.04136813059449196
3.0,0.03868137300014496
4.0,0.03625645861029625
5.0,0.034161392599344254
6.0,0.03232159465551376
7.0,0.030719276517629623
8.0,0.029222819954156876
9.0,0.02787730097770691
10.0,0.02665974386036396
11.0,0.025555286556482315
12.0,0.024647245183587074
13.0,0.023854436352849007
14.0,0.023090800270438194
15.0,0.022476909682154655
16.0,0.021920789033174515
18.0,0.020985983312129974
20.0,0.020093068480491638
22.0,0.019013021141290665
24.0,0.017925038933753967
26.0,0.016842270269989967
28.0,0.01594558171927929
30.0,0.015044931322336197
32.0,0.014367776922881603
36.0,0.013568833470344543
40.0,0.01292872242629528
44.0,0.012021797709167004
48.0,0.011105604469776154
52.0,0.010649025440216064
56.0,0.010064458474516869
60.0,0.009224163368344307
64.0,0.008584103547036648
72.0,0.007504309061914682
80.0,0.007465388625860214
88.0,0.007110783830285072
96.0,0.006630584131926298
104.0,0.0064361789263784885
112.0,0.0055791898630559444
120.0,0.004767909180372953
128.0,0.005243663676083088
144.0,0.0049691167660057545
160.0,0.0035578152164816856
176.0,0.001402412774041295
192.0,0.0007970803417265415
208.0,0.0003413729718886316
224.0,0.0005324361263774335
240.0,0.00010858550376724452
256.0,0.000782699091359973
288.0,0.0016041838098317385
320.0,0.0019309325143694878
352.0,0.001513395574875176
384.0,0.0020174921955913305
416.0,0.0004137205542065203
448.0,-0.0012009022757411003
480.0,-0.0017511884216219187
512.0,-0.002382580190896988
576.0,-0.0019511266145855188
640.0,-0.0021001684945076704
704.0,-0.0004988743457943201
768.0,0.0012652724981307983
832.0,9.95447626337409e-05
896.0,0.0011036506621167064
960.0,0.000766424578614533
1024.0,-0.0001519155193818733
1152.0,0.000461530959000811
1280.0,0.0027872968930751085
1408.0,0.0030185687355697155
1536.0,0.0022503703366965055
1664.0,0.0022392424289137125
1792.0,-0.0006915990961715579
1920.0,-0.0021331545431166887
2048.0,-0.0034601648803800344
2304.0,-0.002303346060216427
2560.0,-0.003413933562114835
2816.0,-0.003438937710598111
3072.0,-0.00034049953683279455
3328.0,-0.00035996470251120627
3584.0,-0.0033413267228752375
3840.0,-0.0032734801061451435
4096.0,-0.0020662827882915735
4608.0,0.0020297940354794264
5120.0,0.0011118280235677958
5632.0,-0.0005245009087957442
6144.0,0.004271448124200106
6656.0,-0.000894205120857805
7168.0,0.0011435298947617412
7680.0,-0.00014243814803194255
8192.0,-0.0004900663043372333
end
