version,3.0
numOfCh,1
type,point
parent_name,0cd20_1dot0-0dot01
ch_type,1_1
kcount,1
numberNandB,1
brightnessNandB,1
carpet pos,0
pc,0
Time (ms),CH1 Auto-Correlation
1.0,0.0372137725353241
2.0,0.03406316787004471
3.0,0.03131985664367676
4.0,0.029020881280303
5.0,0.02710464410483837
6.0,0.02543211355805397
7.0,0.024035880342125893
8.0,0.02282978594303131
9.0,0.021679118275642395
10.0,0.02069867216050625
11.0,0.01969391107559204
12.0,0.018788373097777367
13.0,0.01801280863583088
14.0,0.017210986465215683
15.0,0.016418451443314552
16.0,0.015606357716023922
18.0,0.014424476772546768
20.0,0.013592278584837914
22.0,0.01315237209200859
24.0,0.012981102801859379
26.0,0.01258719339966774
28.0,0.011941280215978622
30.0,0.011303474195301533
32.0,0.01092214323580265
36.0,0.010190620087087154
40.0,0.009162853471934795
44.0,0.008394521661102772
48.0,0.00817547831684351
52.0,0.007924950681626797
56.0,0.008058758452534676
60.0,0.00825095921754837
64.0,0.00810915231704712
72.0,0.007282279897481203
80.0,0.00682420888915658
88.0,0.006160079501569271
96.0,0.0053456490859389305
104.0,0.005255958065390587
112.0,0.005501028150320053
120.0,0.005602693650871515
128.0,0.005399754270911217
144.0,0.005603337660431862
160.0,0.004043633118271828
176.0,0.0029271086677908897
192.0,0.001442091423086822
208.0,0.0018131723627448082
224.0,0.0018426813185214996
240.0,0.0013067148393020034
256.0,0.0018027129117399454
288.0,0.0007234052172861993
320.0,0.0004026365641038865
352.0,0.0005642115138471127
384.0,0.0013048883993178606
416.0,0.0004420045006554574
448.0,0.0017359351040795445
480.0,0.0015865358291193843
512.0,0.0020465205889195204
576.0,0.0022224271669983864
640.0,0.0024018557742238045
704.0,0.0023122632410377264
768.0,0.003300419542938471
832.0,0.0031220847740769386
896.0,0.0027134637348353863
960.0,0.0021068546921014786
1024.0,0.0016223303973674774
1152.0,0.0013379271840676665
1280.0,-0.00012935027189087123
1408.0,-0.0005460117827169597
1536.0,0.0006321690161712468
1664.0,0.0032214487437158823
1792.0,0.002719504525884986
1920.0,0.00019092040020041168
2048.0,-0.0017249712254852057
2304.0,-0.0017408119747415185
2560.0,0.0032880110666155815
2816.0,-0.0007698121480643749
3072.0,-0.0003539752506185323
3328.0,-0.000979047268629074
3584.0,-0.0005545569001697004
3840.0,-0.003388524753972888
4096.0,-0.0036120438016951084
4608.0,-0.004209969192743301
5120.0,-0.003004444995895028
5632.0,-0.0016733745578676462
6144.0,-0.0015663859667256474
6656.0,-0.0014739995822310448
7168.0,-0.0010163121623918414
7680.0,-0.00204258318990469
8192.0,-0.00033467309549450874
end
