version,3.0
numOfCh,1
type,point
parent_name,0cd20_1dot0-0dot01
ch_type,1_1
kcount,1
numberNandB,1
brightnessNandB,1
carpet pos,0
pc,0
Time (ms),CH1 Auto-Correlation
1.0,0.03951102867722511
2.0,0.036479514092206955
3.0,0.03384295850992203
4.0,0.031508613377809525
5.0,0.029538830742239952
6.0,0.027821555733680725
7.0,0.02622860297560692
8.0,0.02472454123198986
9.0,0.023261433467268944
10.0,0.022031888365745544
11.0,0.02093108557164669
12.0,0.019972071051597595
13.0,0.019065076485276222
14.0,0.018146652728319168
15.0,0.01732892356812954
16.0,0.01652456820011139
18.0,0.01515454426407814
20.0,0.013950358144938946
22.0,0.012743191793560982
24.0,0.011444522999227047
26.0,0.010318705812096596
28.0,0.009229937568306923
30.0,0.008302755653858185
32.0,0.00752719072625041
36.0,0.006211825180798769
40.0,0.005423224531114101
44.0,0.004816956352442503
48.0,0.004232677165418863
52.0,0.004132764879614115
56.0,0.004197696689516306
60.0,0.0038599842227995396
64.0,0.003648672951385379
72.0,0.003212228650227189
80.0,0.0032123408745974302
88.0,0.00244887825101614
96.0,0.0020259516313672066
104.0,0.001941576017998159
112.0,0.002097418298944831
120.0,0.0018648117547854781
128.0,0.0017827823758125305
144.0,0.0012526270002126694
160.0,0.000534284336026758
176.0,0.0009543092455714941
192.0,0.0007607245352119207
208.0,0.0007501586806029081
224.0,-4.953775351168588e-05
240.0,0.00030275783501565456
256.0,0.00061994040152058
288.0,-0.0001894201704999432
320.0,-0.001648769248276949
352.0,-0.0011480833636596799
384.0,-9.814264922169968e-05
416.0,-0.0007381030009128153
448.0,-0.0013371201930567622
480.0,-0.0010194260394200683
512.0,-0.0017095580697059631
576.0,-0.0016650051111355424
640.0,-0.0012859284179285169
704.0,-0.0008991538197733462
768.0,-0.0009723499533720315
832.0,-2.0697169020422734e-05
896.0,0.00016923045041039586
960.0,0.00049183628289029
1024.0,-0.00047566453577019274
1152.0,-0.001203432446345687
1280.0,-0.00031988666160032153
1408.0,0.00011495906073832884
1536.0,0.0009484598995186388
1664.0,0.0002624922781251371
1792.0,0.000883015978615731
1920.0,-0.000450520048616454
2048.0,-0.0023239613510668278
2304.0,0.0006086300127208233
2560.0,0.00187588669359684
2816.0,0.00024417429813183844
3072.0,-0.0015906355110928416
3328.0,-0.00020595823298208416
3584.0,0.0003896691487170756
3840.0,-0.0010778314899653196
4096.0,0.00031702424166724086
4608.0,-0.0012405973393470049
5120.0,0.0011107095051556826
5632.0,-0.00042632417171262205
6144.0,-0.0003743940615095198
6656.0,0.00017095972725655884
7168.0,-7.64195283409208e-05
7680.0,-0.00017280454630963504
8192.0,0.0012484161416068673
end
