version,3.0
numOfCh,1
type,point
parent_name,0cd20_1dot0-0dot01
ch_type,1_1
kcount,1
numberNandB,1
brightnessNandB,1
carpet pos,0
pc,0
Time (ms),CH1 Auto-Correlation
1.0,0.06614705175161362
2.0,0.0626189261674881
3.0,0.059541624039411545
4.0,0.05683504045009613
5.0,0.05427245795726776
6.0,0.05202525854110718
7.0,0.05000033602118492
8.0,0.04810852184891701
9.0,0.04647425562143326
10.0,0.0448998361825943
11.0,0.043300312012434006
12.0,0.04177718237042427
13.0,0.04041464626789093
14.0,0.039143167436122894
15.0,0.03799642249941826
16.0,0.03698127716779709
18.0,0.03495818004012108
20.0,0.03335373476147652
22.0,0.031876321882009506
24.0,0.03067856840789318
26.0,0.029638390988111496
28.0,0.028519777581095695
30.0,0.027574630454182625
32.0,0.02631632797420025
36.0,0.024143407121300697
40.0,0.02221403457224369
44.0,0.0206121988594532
48.0,0.019222263246774673
52.0,0.01731756329536438
56.0,0.016771331429481506
60.0,0.016653306782245636
64.0,0.016148125752806664
72.0,0.015338861383497715
80.0,0.01513450313359499
88.0,0.015003272332251072
96.0,0.014701304025948048
104.0,0.01431256253272295
112.0,0.013925825245678425
120.0,0.012816790491342545
128.0,0.012570716440677643
144.0,0.013464401476085186
160.0,0.012760650366544724
176.0,0.010701220482587814
192.0,0.007928718812763691
208.0,0.00406083557754755
224.0,0.001305704819969833
240.0,-0.0004030124400742352
256.0,-0.0003064048942178488
288.0,0.00047846033703535795
320.0,-0.00017512263730168343
352.0,-0.0002714315487537533
384.0,0.0009930093074217439
416.0,0.0023570081684738398
448.0,0.002934362506493926
480.0,0.002238400047644973
512.0,0.0008492400520481169
576.0,0.003884632373228669
640.0,0.0034936927258968353
704.0,0.0014432218158617616
768.0,0.00016875058645382524
832.0,0.001369608216919005
896.0,-0.002205444034188986
960.0,-0.0018075015395879745
1024.0,-0.00045203088666312397
1152.0,6.899687286932021e-05
1280.0,-0.003780533093959093
1408.0,-0.001885887118987739
1536.0,0.00012310626334510744
1664.0,0.00018196593737229705
1792.0,-0.0007718453416600823
1920.0,0.00021915894467383623
2048.0,0.0004897105391137302
2304.0,-0.001664483454078436
2560.0,-1.4967449146752188e-07
2816.0,7.320337317651138e-05
3072.0,-0.0006020577857270837
3328.0,1.558731310069561e-05
3584.0,0.0024867416359484196
3840.0,0.0021639433689415455
4096.0,0.002113544847816229
4608.0,-0.00019755068933591247
5120.0,-0.0012603114591911435
5632.0,0.0033470713533461094
6144.0,-0.0026370794512331486
6656.0,0.0014034046325832605
7168.0,0.0005827253917232156
7680.0,0.0019443321507424116
8192.0,-0.0006621444481424987
end
