version,3.0
numOfCh,1
type,point
parent_name,0cd20_1dot0-0dot01
ch_type,1_1
kcount,1
numberNandB,1
brightnessNandB,1
carpet pos,0
pc,0
Time (ms),CH1 Auto-Correlation
1.0,0.18992476165294647
2.0,0.18705369532108307
3.0,0.18443961441516876
4.0,0.1821792870759964
5.0,0.18012911081314087
6.0,0.17828147113323212
7.0,0.1765967458486557
8.0,0.17492890357971191
9.0,0.1732455939054489
10.0,0.17164021730422974
11.0,0.17007586359977722
12.0,0.16875441372394562
13.0,0.16752833127975464
14.0,0.16633200645446777
15.0,0.16526927053928375
16.0,0.1642797440290451
18.0,0.1626397967338562
20.0,0.16100873053073883
22.0,0.1593897044658661
24.0,0.15800972282886505
26.0,0.1567573994398117
28.0,0.1555929183959961
30.0,0.15456898510456085
32.0,0.15356327593326569
36.0,0.1519005000591278
40.0,0.1505328267812729
44.0,0.14924828708171844
48.0,0.14743416011333466
52.0,0.14551900327205658
56.0,0.1436350792646408
60.0,0.14137087762355804
64.0,0.13977016508579254
72.0,0.13536876440048218
80.0,0.13273222744464874
88.0,0.1315573751926422
96.0,0.12905775010585785
104.0,0.1264108419418335
112.0,0.12406250834465027
120.0,0.12075532227754593
128.0,0.11661523580551147
144.0,0.10549697279930115
160.0,0.09789421409368515
176.0,0.08970670402050018
192.0,0.0820973739027977
208.0,0.07499485462903976
224.0,0.06948050111532211
240.0,0.06510545313358307
256.0,0.05958128720521927
288.0,0.046467747539281845
320.0,0.035098377615213394
352.0,0.029036667197942734
384.0,0.030270850285887718
416.0,0.03275923430919647
448.0,0.034677330404520035
480.0,0.03654675558209419
512.0,0.0364215150475502
576.0,0.03704328462481499
640.0,0.03484463319182396
704.0,0.03513093665242195
768.0,0.035855285823345184
832.0,0.04408195614814758
896.0,0.05544315278530121
960.0,0.0639658272266388
1024.0,0.059170227497816086
1152.0,0.012822655029594898
1280.0,-0.0076795765198767185
1408.0,-0.008451409637928009
1536.0,-0.003463889006525278
1664.0,-0.009097529575228691
1792.0,-0.014028117060661316
1920.0,-0.01615157164633274
2048.0,-0.015110201202332973
2304.0,-0.009630071930587292
2560.0,-0.008781815879046917
2816.0,-0.0021822089329361916
3072.0,0.001948641729541123
3328.0,0.011109222657978535
3584.0,-0.01603185385465622
3840.0,-0.019318535923957825
4096.0,-0.012228700332343578
4608.0,-0.021746521815657616
5120.0,-0.012021071277558804
5632.0,-0.008646690286695957
6144.0,-0.024612590670585632
6656.0,-0.05119510740041733
7168.0,-0.08973218500614166
7680.0,-0.09500866383314133
8192.0,-0.11126579344272614
end
