version,3.0
numOfCh,1
type,point
parent_name,0cd20_1dot0-0dot01
ch_type,1_1
kcount,1
numberNandB,1
brightnessNandB,1
carpet pos,0
pc,0
Time (ms),CH1 Auto-Correlation
1.0,0.043816227465867996
2.0,0.04081203043460846
3.0,0.03828711062669754
4.0,0.03613676875829697
5.0,0.03422224149107933
6.0,0.032588597387075424
7.0,0.03115314058959484
8.0,0.029968854039907455
9.0,0.0288558229804039
10.0,0.027810711413621902
11.0,0.026796290650963783
12.0,0.02578965574502945
13.0,0.024936318397521973
14.0,0.024185122922062874
15.0,0.023515358567237854
16.0,0.02280651405453682
18.0,0.021453507244586945
20.0,0.020358262583613396
22.0,0.019290192052721977
24.0,0.018360091373324394
26.0,0.017587199807167053
28.0,0.01697005145251751
30.0,0.01645476184785366
32.0,0.01606479473412037
36.0,0.015393825247883797
40.0,0.014568883925676346
44.0,0.01376256812363863
48.0,0.013088102452456951
52.0,0.012395994737744331
56.0,0.01165261771529913
60.0,0.01116099301725626
64.0,0.010769843123853207
72.0,0.01003678236156702
80.0,0.009548644535243511
88.0,0.00922650657594204
96.0,0.009006962180137634
104.0,0.008850333280861378
112.0,0.008264846168458462
120.0,0.007453226950019598
128.0,0.006394088268280029
144.0,0.006276523228734732
160.0,0.007007364183664322
176.0,0.006555947475135326
192.0,0.006411462090909481
208.0,0.006279222201555967
224.0,0.0057247052900493145
240.0,0.00524877617135644
256.0,0.005812736228108406
288.0,0.005592664238065481
320.0,0.0047944774851202965
352.0,0.003168665338307619
384.0,0.002472437685355544
416.0,0.00048650955432094634
448.0,-0.000553697522263974
480.0,-0.0009721120586618781
512.0,-0.002400975674390793
576.0,-0.0036222715862095356
640.0,-0.002440280979499221
704.0,-0.003373019630089402
768.0,-0.0020049777813255787
832.0,-0.0038482702802866697
896.0,-0.002650720765814185
960.0,-0.002251291647553444
1024.0,-0.001635972992517054
1152.0,-0.00031629830482415855
1280.0,0.0010580046800896525
1408.0,0.0013920858036726713
1536.0,-0.0003209912683814764
1664.0,-0.0011214466067031026
1792.0,-0.0029368482064455748
1920.0,-0.0011569581693038344
2048.0,-0.0010456324089318514
2304.0,0.00013329196372069418
2560.0,0.0008534123189747334
2816.0,0.002444749465212226
3072.0,0.00028733775252476335
3328.0,0.0014944331487640738
3584.0,3.350264705659356e-06
3840.0,-0.004192340187728405
4096.0,-0.0030299299396574497
4608.0,0.0010499389609321952
5120.0,-0.0016401222674176097
5632.0,0.0017357674660161138
6144.0,-0.0003555840521585196
6656.0,0.003120498498901725
7168.0,-0.0027526766061782837
7680.0,0.0011616284027695656
8192.0,-0.002034809673205018
end
