version,3.0
numOfCh,1
type,point
parent_name,0cd20_1dot0-0dot01
ch_type,1_1
kcount,1
numberNandB,1
brightnessNandB,1
carpet pos,0
pc,0
Time (ms),CH1 Auto-Correlation
1.0,0.08317258954048157
2.0,0.08061577379703522
3.0,0.07844049483537674
4.0,0.07648219168186188
5.0,0.07470677047967911
6.0,0.07311233133077621
7.0,0.07173674553632736
8.0,0.07047456502914429
9.0,0.0693148747086525
10.0,0.06819801032543182
11.0,0.06713422387838364
12.0,0.06622043997049332
13.0,0.06526655703783035
14.0,0.06443342566490173
15.0,0.06360530853271484
16.0,0.06288140267133713
18.0,0.06153526529669762
20.0,0.060218654572963715
22.0,0.059039268642663956
24.0,0.0580449216067791
26.0,0.0570499487221241
28.0,0.05615663528442383
30.0,0.05538642778992653
32.0,0.05478118732571602
36.0,0.053238313645124435
40.0,0.052017875015735626
44.0,0.05066103860735893
48.0,0.049384500831365585
52.0,0.04833364486694336
56.0,0.04729447513818741
60.0,0.046751100569963455
64.0,0.046557437628507614
72.0,0.045523274689912796
80.0,0.04445184767246246
88.0,0.043239858001470566
96.0,0.042089514434337616
104.0,0.040806207805871964
112.0,0.03965204954147339
120.0,0.03845416009426117
128.0,0.037655409425497055
144.0,0.03605254739522934
160.0,0.034463848918676376
176.0,0.033354297280311584
192.0,0.032939549535512924
208.0,0.03390650078654289
224.0,0.03433512896299362
240.0,0.034074459224939346
256.0,0.03315725922584534
288.0,0.03341252729296684
320.0,0.031927838921546936
352.0,0.029931804165244102
384.0,0.02765658125281334
416.0,0.02412867359817028
448.0,0.02074996568262577
480.0,0.020638616755604744
512.0,0.020863085985183716
576.0,0.01819753088057041
640.0,0.01497441716492176
704.0,0.00895136222243309
768.0,0.007955407723784447
832.0,0.0065833525732159615
896.0,0.007968458347022533
960.0,0.003359866328537464
1024.0,0.0011303971987217665
1152.0,-0.0016847363440319896
1280.0,-0.0028647349681705236
1408.0,-0.004434253554791212
1536.0,-0.005671567749232054
1664.0,-0.009169400669634342
1792.0,-0.011182321235537529
1920.0,-0.015150731429457664
2048.0,-0.015043840743601322
2304.0,-0.008865601383149624
2560.0,-0.0009324901620857418
2816.0,0.005816084798425436
3072.0,0.005372731480747461
3328.0,0.007632910273969173
3584.0,0.008846016600728035
3840.0,0.007077965419739485
4096.0,0.0059866830706596375
4608.0,-0.009370572865009308
5120.0,-0.006867346353828907
5632.0,-0.005949662998318672
6144.0,-0.004264847841113806
6656.0,0.003416377352550626
7168.0,0.007954444736242294
7680.0,-0.0022174599580466747
8192.0,-0.02420048601925373
end
