version,3.0
numOfCh,1
type,point
parent_name,0cd20_1dot0-0dot01
ch_type,1_1
kcount,1
numberNandB,1
brightnessNandB,1
carpet pos,0
pc,0
Time (ms),CH1 Auto-Correlation
1.0,0.04310736432671547
2.0,0.03987869620323181
3.0,0.03702143579721451
4.0,0.034536827355623245
5.0,0.03245551511645317
6.0,0.030591627582907677
7.0,0.028969839215278625
8.0,0.027546420693397522
9.0,0.026239020749926567
10.0,0.025089945644140244
11.0,0.02409207634627819
12.0,0.023043043911457062
13.0,0.022233935073018074
14.0,0.021406743675470352
15.0,0.020735902711749077
16.0,0.02008107118308544
18.0,0.018774665892124176
20.0,0.017565522342920303
22.0,0.0164570901542902
24.0,0.01557048037648201
26.0,0.014929249882698059
28.0,0.014368594624102116
30.0,0.01383516937494278
32.0,0.01315912976861
36.0,0.011890177614986897
40.0,0.011131060309708118
44.0,0.010489686392247677
48.0,0.009595821611583233
52.0,0.008636991493403912
56.0,0.007719750516116619
60.0,0.006951600778847933
64.0,0.006493690889328718
72.0,0.006771802436560392
80.0,0.0069657498970627785
88.0,0.006718924734741449
96.0,0.005547825712710619
104.0,0.0045654624700546265
112.0,0.004728613421320915
120.0,0.004506723489612341
128.0,0.005136812571436167
144.0,0.005459930282086134
160.0,0.0039032858330756426
176.0,0.0026206709444522858
192.0,0.0017098559765145183
208.0,0.0025180717930197716
224.0,0.0032529800664633512
240.0,0.003836218500509858
256.0,0.004046929534524679
288.0,0.0031392539385706186
320.0,0.00275116297416389
352.0,0.001813510782085359
384.0,0.0018418027320876718
416.0,0.003352654632180929
448.0,0.0015650028362870216
480.0,0.001492357929237187
512.0,0.0014952622586861253
576.0,0.001708058058284223
640.0,0.002075477736070752
704.0,0.0010397526202723384
768.0,0.0006350657786242664
832.0,0.002302726497873664
896.0,0.0010381222236901522
960.0,0.00026196936960332096
1024.0,0.003190151182934642
1152.0,-0.00012211198918521404
1280.0,-0.001792357536032796
1408.0,-0.0010019115870818496
1536.0,-0.00034378384589217603
1664.0,-0.0008301785564981401
1792.0,-0.002276520011946559
1920.0,-0.0028739962726831436
2048.0,-0.0025593978352844715
2304.0,-0.0025109886191785336
2560.0,-0.00012854007945861667
2816.0,-0.0011117192916572094
3072.0,-0.0022982913069427013
3328.0,-0.0025413057301193476
3584.0,-0.0022937990725040436
3840.0,-0.0023932154290378094
4096.0,-0.0017188637284561992
4608.0,-0.0018212466966360807
5120.0,0.0008476327056996524
5632.0,0.0017454525223001838
6144.0,0.00126064068172127
6656.0,0.0025471369735896587
7168.0,0.0011367934057489038
7680.0,0.001887603895738721
8192.0,0.0001843861537054181
end
