version,3.0
numOfCh,1
type,point
parent_name,0cd20_1dot0-0dot01
ch_type,1_1
kcount,1
numberNandB,1
brightnessNandB,1
carpet pos,0
pc,0
Time (ms),CH1 Auto-Correlation
1.0,0.038385335355997086
2.0,0.035226963460445404
3.0,0.032485924661159515
4.0,0.030158551409840584
5.0,0.028051340952515602
6.0,0.02624645084142685
7.0,0.02477569505572319
8.0,0.023332322016358376
9.0,0.021925676614046097
10.0,0.020594868808984756
11.0,0.01954284869134426
12.0,0.01855829916894436
13.0,0.017764151096343994
14.0,0.016987979412078857
15.0,0.016224751248955727
16.0,0.015607788227498531
18.0,0.014639675617218018
20.0,0.01376407966017723
22.0,0.012819696217775345
24.0,0.011715210042893887
26.0,0.010728592053055763
28.0,0.009924186393618584
30.0,0.009340709075331688
32.0,0.00901988334953785
36.0,0.00846042949706316
40.0,0.007597500924021006
44.0,0.0067487857304513454
48.0,0.0062719471752643585
52.0,0.0060678464360535145
56.0,0.005964045412838459
60.0,0.005774513352662325
64.0,0.0053386325016617775
72.0,0.004934852942824364
80.0,0.004461255855858326
88.0,0.004350497853010893
96.0,0.004343736916780472
104.0,0.004487905185669661
112.0,0.004432944115251303
120.0,0.004938315134495497
128.0,0.004921030253171921
144.0,0.0027006161399185658
160.0,0.0007082403171807528
176.0,-0.0007417278247885406
192.0,-0.0006757091032341123
208.0,-0.001096879132091999
224.0,-0.0009230207069776952
240.0,-0.0010331011144444346
256.0,-0.0012992402771487832
288.0,-0.0013590460876002908
320.0,-0.0007051319698803127
352.0,-0.0014085272559896111
384.0,-0.00021778320660814643
416.0,-0.0002529117336962372
448.0,0.0002842298417817801
480.0,-8.099219121504575e-05
512.0,-0.0017631901428103447
576.0,-0.0015504560433328152
640.0,-0.002149559324607253
704.0,-0.002193758264183998
768.0,-0.000928860972635448
832.0,-0.0003502618055790663
896.0,-0.0004043435328640044
960.0,-0.0015791646437719464
1024.0,-0.0012052133679389954
1152.0,-6.599711196031421e-05
1280.0,0.001253825961612165
1408.0,2.1163219571462832e-05
1536.0,0.0005728913238272071
1664.0,0.0015288962749764323
1792.0,0.0003389408520888537
1920.0,0.0003772193449549377
2048.0,-0.0007123512914404273
2304.0,-0.0015552927507087588
2560.0,-0.002055992605164647
2816.0,0.0005078827380202711
3072.0,0.0001582383702043444
3328.0,-2.9305236239451915e-05
3584.0,0.0012318857479840517
3840.0,-8.642477769171819e-05
4096.0,-0.0014713008422404528
4608.0,0.0006008120253682137
5120.0,-0.0012379984837025404
5632.0,-0.00023313635028898716
6144.0,0.00011165313480887562
6656.0,-4.7703750169603154e-05
7168.0,8.398169302381575e-05
7680.0,0.0005498574464581907
8192.0,0.00012421506107784808
end
