version,3.0
numOfCh,1
type,point
parent_name,ff67b_10dot0-1dot0
ch_type,1_1
kcount,1
numberNandB,1
brightnessNandB,1
carpet pos,0
pc,0
Time (ms),CH1 Auto-Correlation
1.0,0.013103154487907887
2.0,0.008681385777890682
3.0,0.00634824950248003
4.0,0.0050086271949112415
5.0,0.004295384977012873
6.0,0.003766042646020651
7.0,0.0034390692599117756
8.0,0.00304674101062119
9.0,0.0027457461692392826
10.0,0.0024399887770414352
11.0,0.002228390658274293
12.0,0.0019311991054564714
13.0,0.0016571090091019869
14.0,0.0014008370926603675
15.0,0.0011119046248495579
16.0,0.0012334184721112251
18.0,0.0012017624685540795
20.0,0.0010286057367920876
22.0,0.0006741582183167338
24.0,0.0005050816689617932
26.0,0.00043729919707402587
28.0,0.00026679132133722305
30.0,0.0002395736228208989
32.0,0.00031897492590360343
36.0,0.0002226035576313734
40.0,0.00022283474390860647
44.0,0.00026609821361489594
48.0,0.00024264042440336198
52.0,0.00023576228704769164
56.0,2.939099431387149e-06
60.0,0.00024423748254776
64.0,0.00022900194744579494
72.0,-1.7685342754703015e-05
80.0,-9.727994620334357e-05
88.0,7.924662349978462e-05
96.0,0.00013294695236254483
104.0,7.572351023554802e-05
112.0,-0.00027451285859569907
120.0,-8.646977948956192e-05
128.0,-3.4001855965470895e-05
144.0,-0.00031455166754312813
160.0,-0.00031690753530710936
176.0,-0.00019966543186455965
192.0,-0.00010281090362695977
208.0,-0.0004209257895126939
224.0,-0.00015586419613100588
240.0,-7.975528569659218e-05
256.0,0.00017444851982872933
288.0,0.00010110783478012308
320.0,0.00012028626952087507
352.0,0.00010612850746838376
384.0,-0.0001262671867152676
416.0,0.0001386081421514973
448.0,0.00016556728223804384
480.0,5.04970557813067e-05
512.0,0.00018370681209489703
576.0,2.945451342384331e-05
640.0,-0.00016516262257937342
704.0,-0.00022094673477113247
768.0,-5.560491626965813e-05
832.0,-4.299147622077726e-05
896.0,0.000182304487680085
960.0,-0.0002229507954325527
1024.0,-0.000255652324995026
1152.0,0.00013008975656703115
1280.0,-0.0001492153969593346
1408.0,-0.00014204723993316293
1536.0,6.325405411189422e-05
1664.0,5.0941518566105515e-05
1792.0,-7.548464782303199e-05
1920.0,-9.770566248334944e-05
2048.0,0.00010623162961564958
2304.0,-1.935972431965638e-05
2560.0,9.046150080394e-05
2816.0,1.7168433259939775e-05
3072.0,2.917156280091149e-06
3328.0,5.157246778253466e-05
3584.0,-5.6160126405302435e-05
3840.0,-3.5989975003758445e-05
4096.0,2.1663488951162435e-05
4608.0,0.00013900638441555202
5120.0,5.193700417294167e-05
5632.0,-0.0002068180765490979
6144.0,6.764192949049175e-05
6656.0,3.073538755415939e-05
7168.0,-4.6754466893617064e-05
7680.0,-0.0001341896568192169
8192.0,-2.1798532543471083e-05
end
