version,3.0
numOfCh,1
type,point
parent_name,ff67b_10dot0-1dot0
ch_type,1_1
kcount,1
numberNandB,1
brightnessNandB,1
carpet pos,0
pc,0
Time (ms),CH1 Auto-Correlation
1.0,0.01275434996932745
2.0,0.009054343216121197
3.0,0.00683954544365406
4.0,0.005497619044035673
5.0,0.00448752474039793
6.0,0.003863338613882661
7.0,0.0033555065747350454
8.0,0.003077391069382429
9.0,0.002773259999230504
10.0,0.002355845645070076
11.0,0.002099041361361742
12.0,0.001848134328611195
13.0,0.001803525723516941
14.0,0.0018367088632658124
15.0,0.0016461595660075545
16.0,0.0016435349825769663
18.0,0.001473420881666243
20.0,0.00128224678337574
22.0,0.00109557353425771
24.0,0.0010364338522776961
26.0,0.0008718864992260933
28.0,0.0006281999521888793
30.0,0.0005528228939510882
32.0,0.000692310743033886
36.0,0.0005253942799754441
40.0,0.00037236305070109665
44.0,0.0004125238920096308
48.0,0.0004054680757690221
52.0,0.00022269823239184916
56.0,0.00032181679853238165
60.0,0.00027128306101076305
64.0,-2.450931970088277e-05
72.0,-0.00012521925964392722
80.0,-0.00015803970745764673
88.0,-1.502815393905621e-05
96.0,-0.00012170293484814465
104.0,-0.0003101967740803957
112.0,-0.000262233370449394
120.0,-0.00022834284754935652
128.0,-9.090291860047728e-05
144.0,0.0001810523244785145
160.0,5.198563667363487e-05
176.0,-0.0003381548449397087
192.0,-0.0005467705195769668
208.0,-0.00011463212285889313
224.0,0.00019917933968827128
240.0,4.7404795623151585e-05
256.0,0.0002756760222837329
288.0,3.129969263682142e-05
320.0,0.0001691078214207664
352.0,5.6352113460889086e-05
384.0,-5.3442799980985e-06
416.0,-0.0001468824193580076
448.0,0.00012746946595143527
480.0,0.00018058952991850674
512.0,1.4682609617011622e-05
576.0,0.0002250794059364125
640.0,-0.00017434799519833177
704.0,0.0005033382913097739
768.0,-0.00019652491027954966
832.0,1.397413871018216e-05
896.0,-0.0001680427376413718
960.0,0.00010328549979021773
1024.0,0.00021889331401325762
1152.0,-0.00016007982776500285
1280.0,-0.0004112750175409019
1408.0,0.00010110451694345102
1536.0,-0.00017672529793344438
1664.0,-0.00019546420662663877
1792.0,3.234646555938525e-06
1920.0,-3.484397893771529e-05
2048.0,9.11933311726898e-05
2304.0,4.1785562643781304e-05
2560.0,6.042754466761835e-05
2816.0,0.00012115277058910578
3072.0,0.00010641977132763714
3328.0,-7.710150384809822e-05
3584.0,-9.578031313139945e-05
3840.0,5.4949290642980486e-05
4096.0,-0.0002860805543605238
4608.0,-9.82441270025447e-05
5120.0,-0.00012041250738548115
5632.0,4.798480586032383e-05
6144.0,-1.8068727740683244e-06
6656.0,-8.823145617498085e-05
7168.0,-5.922769196331501e-05
7680.0,4.5724787923973054e-05
8192.0,4.137381984037347e-05
end
