version,3.0
numOfCh,1
type,point
parent_name,100-cuts
ch_type,1_1
kcount,1
numberNandB,1
brightnessNandB,1
carpet pos,0
pc,0
Time (ms),CH1 Auto-Correlation
1.0,0.027101362124085426
2.0,0.024774592369794846
3.0,0.022803407162427902
4.0,0.02106919139623642
5.0,0.019584961235523224
6.0,0.018340563401579857
7.0,0.017255058512091637
8.0,0.016260696575045586
9.0,0.015329720452427864
10.0,0.014459478668868542
11.0,0.013688473962247372
12.0,0.012956980615854263
13.0,0.012298384681344032
14.0,0.011684749275445938
15.0,0.011069067753851414
16.0,0.010527186095714569
18.0,0.009704804979264736
20.0,0.009018678218126297
22.0,0.008428209461271763
24.0,0.007893756963312626
26.0,0.007213274482637644
28.0,0.006605800241231918
30.0,0.00623985193669796
32.0,0.0060612959787249565
36.0,0.005692350212484598
40.0,0.005259478464722633
44.0,0.005083698779344559
48.0,0.004878510721027851
52.0,0.004325401969254017
56.0,0.004074715077877045
60.0,0.003874510293826461
64.0,0.003526683896780014
72.0,0.002746592741459608
80.0,0.0026683819014579058
88.0,0.0028990590944886208
96.0,0.0027335186023265123
104.0,0.00264133233577013
112.0,0.0019487759564071894
120.0,0.0010332901729270816
128.0,0.0002629024675115943
144.0,-9.444585157325491e-05
160.0,-0.0006875271792523563
176.0,-0.0017316502053290606
192.0,-0.0017687211511656642
208.0,-0.0013140373630449176
224.0,-0.0005891624605283141
240.0,-0.0003555994189810008
256.0,-0.0008387078414671123
288.0,-0.0011170149082317948
320.0,-0.000269778334768489
352.0,0.00034297292586416006
384.0,-0.00028814704273827374
416.0,-0.0012014295207336545
448.0,-0.0016282767755910754
480.0,-0.0005728813703171909
512.0,-0.0005078374524600804
576.0,-0.0007427023956552148
640.0,0.0010225084843114018
704.0,0.0012836568057537079
768.0,0.0001636440574657172
832.0,-0.0007872206042520702
896.0,-0.0002598283754196018
960.0,0.0009142869967035949
1024.0,0.0010795088019222021
1152.0,-1.43374591061729e-05
1280.0,-0.0007343560573644936
1408.0,0.0010984835680574179
1536.0,0.00017908032168634236
1664.0,-0.0004079455975443125
1792.0,-0.0007993790786713362
1920.0,3.275150220360956e-06
2048.0,0.0003161660279147327
2304.0,-0.0007610245374962687
2560.0,0.0003480495070107281
2816.0,-0.0018854502122849226
3072.0,0.0007766532944515347
3328.0,-0.0013878017198294401
3584.0,0.0008050567703321576
3840.0,-8.501866250298917e-05
4096.0,-0.00043875427218154073
4608.0,-6.947088422748493e-06
5120.0,0.00012460091966204345
5632.0,-0.0005084844888187945
6144.0,4.394161805976182e-06
6656.0,8.100490958895534e-06
7168.0,0.00034829089418053627
7680.0,0.0004155983042437583
8192.0,0.00044313393300399184
9216.0,0.00018407079915050417
10240.0,-0.00019906721718143672
11264.0,-0.0002148801286239177
12288.0,0.0001857227471191436
13312.0,-9.181858331430703e-05
14336.0,-0.00030288330162875354
end
