version,3.0
numOfCh,1
type,point
parent_name,100-cuts
ch_type,1_1
kcount,1
numberNandB,1
brightnessNandB,1
carpet pos,0
pc,0
Time (ms),CH1 Auto-Correlation
1.0,0.04129769280552864
2.0,0.03779928758740425
3.0,0.03480891138315201
4.0,0.03219058737158775
5.0,0.029924072325229645
6.0,0.027965663000941277
7.0,0.02632109634578228
8.0,0.024879634380340576
9.0,0.023665539920330048
10.0,0.022589776664972305
11.0,0.021561099216341972
12.0,0.020603913813829422
13.0,0.01975727267563343
14.0,0.018966371193528175
15.0,0.01819268800318241
16.0,0.017447369173169136
18.0,0.016094693914055824
20.0,0.014784703031182289
22.0,0.013712409883737564
24.0,0.012700974009931087
26.0,0.011865735054016113
28.0,0.011179628781974316
30.0,0.010549784637987614
32.0,0.009997240267693996
36.0,0.009011667221784592
40.0,0.008049571886658669
44.0,0.007166256196796894
48.0,0.006630530580878258
52.0,0.006209818180650473
56.0,0.005711825098842382
60.0,0.00547640398144722
64.0,0.005273583810776472
72.0,0.004624928347766399
80.0,0.005311280023306608
88.0,0.005349895916879177
96.0,0.004949919413775206
104.0,0.004470711573958397
112.0,0.0037429784424602985
120.0,0.0030754401814192533
128.0,0.0025025957729667425
144.0,0.0018933825194835663
160.0,0.0008855524356476963
176.0,0.0007071891450323164
192.0,0.00025919725885614753
208.0,0.00021034381643403322
224.0,0.0003666759002953768
240.0,-8.058807725319639e-05
256.0,-0.0008839325746521354
288.0,-0.0010917959734797478
320.0,-0.0008000392699614167
352.0,-0.0015393669018521905
384.0,-0.0020718914456665516
416.0,-0.001391702564433217
448.0,-0.0018252141308039427
480.0,-0.0018080300651490688
512.0,0.0008645657217130065
576.0,0.0015100790187716484
640.0,0.0004742672899737954
704.0,-0.00026830719434656203
768.0,0.00031037547159940004
832.0,-0.0011426963610574603
896.0,-0.00017506150470580906
960.0,0.001086351927369833
1024.0,0.0023412422742694616
1152.0,0.0031336594838649035
1280.0,0.00035773529089055955
1408.0,-0.0003754248027689755
1536.0,0.00018681513029150665
1664.0,4.858220927417278e-05
1792.0,0.0008252812549471855
1920.0,-0.0021041554864495993
2048.0,-0.00012733845505863428
2304.0,0.0006457907147705555
2560.0,-0.0020400923676788807
2816.0,0.0015696940245106816
3072.0,-0.00012270269508007914
3328.0,0.001078672707080841
3584.0,-0.0004520490183494985
3840.0,-0.0002708998217713088
4096.0,-2.9856382752768695e-05
4608.0,0.00024744810070842505
5120.0,-0.00038412385038100183
5632.0,-0.00027970370138064027
6144.0,-0.00011948536121053621
6656.0,-0.0008900721441023052
7168.0,0.00028902641497552395
7680.0,-0.00162197754252702
8192.0,-0.001075087464414537
9216.0,-0.0003109874087385833
10240.0,0.00022451965196523815
11264.0,-0.0008676806464791298
12288.0,-0.0014514198992401361
13312.0,-0.0004852729325648397
14336.0,0.0019069616682827473
end
