version,3.0
numOfCh,1
type,point
parent_name,100-cuts
ch_type,1_1
kcount,1
numberNandB,1
brightnessNandB,1
carpet pos,0
pc,0
Time (ms),CH1 Auto-Correlation
1.0,0.02792420983314514
2.0,0.025767028331756592
3.0,0.023920804262161255
4.0,0.022261910140514374
5.0,0.0207817405462265
6.0,0.019467968493700027
7.0,0.018236948177218437
8.0,0.017175933346152306
9.0,0.016182977706193924
10.0,0.01524569932371378
11.0,0.014365172944962978
12.0,0.013617766089737415
13.0,0.01296227890998125
14.0,0.012347476556897163
15.0,0.011778412386775017
16.0,0.011226329952478409
18.0,0.010212122462689877
20.0,0.00932410079985857
22.0,0.008467447012662888
24.0,0.007822844199836254
26.0,0.007210038136690855
28.0,0.006632698234170675
30.0,0.006124705076217651
32.0,0.005652894265949726
36.0,0.005018071737140417
40.0,0.004469268023967743
44.0,0.003986119292676449
48.0,0.0038483482785522938
52.0,0.003603954566642642
56.0,0.003222530707716942
60.0,0.0030389800667762756
64.0,0.0030039071571081877
72.0,0.002716471441090107
80.0,0.0025478790048509836
88.0,0.002752588829025626
96.0,0.0027256605681031942
104.0,0.002240121830254793
112.0,0.0018490259535610676
120.0,0.0017181717557832599
128.0,0.001686727860942483
144.0,0.0015128187369555235
160.0,0.0012617860920727253
176.0,0.0007105894037522376
192.0,0.0003860637662000954
208.0,0.0008314605802297592
224.0,0.0006723975529894233
240.0,0.0008586434414610267
256.0,0.002060391940176487
288.0,0.0007765848422423005
320.0,-0.00010105477849720046
352.0,0.0002593607932794839
384.0,-0.0003376532404217869
416.0,-0.00018245965475216508
448.0,0.00022847577929496765
480.0,-0.00025303862639702857
512.0,-0.00027612282428890467
576.0,-0.0008264988427981734
640.0,0.000697144481819123
704.0,0.00015299882215913385
768.0,0.00037321055424399674
832.0,0.0013760478468611836
896.0,0.001467450987547636
960.0,0.0005972797516733408
1024.0,-0.0002785789256449789
1152.0,7.22453751222929e-06
1280.0,-0.001123921014368534
1408.0,-0.0004510121652856469
1536.0,-0.00025148564600385725
1664.0,0.00011175589315826073
1792.0,0.00037896091816946864
1920.0,0.0007961341761983931
2048.0,-0.0002284671791130677
2304.0,-0.0015782659174874425
2560.0,-0.00018676684703677893
2816.0,0.0005380702787078917
3072.0,-0.0015095245325937867
3328.0,-0.001231531030498445
3584.0,-9.83212303253822e-05
3840.0,-5.5631309805903584e-05
4096.0,-0.0011350136483088136
4608.0,-0.00038034116732887924
5120.0,0.0002163653844036162
5632.0,0.0006359417457133532
6144.0,-0.0008161042933352292
6656.0,0.00016855844296514988
7168.0,0.0008544142474420369
7680.0,0.000717407267075032
8192.0,0.00045353639870882034
9216.0,-0.0003376090317033231
10240.0,-0.00023593194782733917
11264.0,-0.00038629790651611984
12288.0,0.0002915106888394803
13312.0,0.00038722995668649673
14336.0,-0.0003541399200912565
end
