version,3.0
numOfCh,1
type,point
parent_name,100-cuts
ch_type,1_1
kcount,1
numberNandB,1
brightnessNandB,1
carpet pos,0
pc,0
Time (ms),CH1 Auto-Correlation
1.0,0.02639891393482685
2.0,0.024092430248856544
3.0,0.022086454555392265
4.0,0.020373625680804253
5.0,0.01886707730591297
6.0,0.017550311982631683
7.0,0.01639537885785103
8.0,0.015370870009064674
9.0,0.014444905333220959
10.0,0.013703442178666592
11.0,0.013049681670963764
12.0,0.0123895900323987
13.0,0.011834943667054176
14.0,0.011292089708149433
15.0,0.010726134292781353
16.0,0.010152175091207027
18.0,0.009104523807764053
20.0,0.008112077601253986
22.0,0.0073210992850363255
24.0,0.006670867092907429
26.0,0.006051591131836176
28.0,0.0054966663010418415
30.0,0.005013762973248959
32.0,0.004647627007216215
36.0,0.004118116106837988
40.0,0.0034635942429304123
44.0,0.0027968587819486856
48.0,0.0021223798394203186
52.0,0.001573251560330391
56.0,0.0013054501032456756
60.0,0.0011677229776978493
64.0,0.0009648035629652441
72.0,0.0011471133911982179
80.0,0.001020193682052195
88.0,0.0009199745254591107
96.0,0.0009318547672592103
104.0,0.0007417832966893911
112.0,0.0004729121283162385
120.0,0.00042220577597618103
128.0,0.00027294535539112985
144.0,-0.0005820917431265116
160.0,-0.0001942151429830119
176.0,0.0007784925401210785
192.0,0.0012260150397196412
208.0,0.0006086077191866934
224.0,-0.00027574351406656206
240.0,-0.0010308620985597372
256.0,-0.00045157442218624055
288.0,-0.0005846059648320079
320.0,-0.0007602610858157277
352.0,-0.0008827213896438479
384.0,-3.0229834010242485e-05
416.0,0.00014146458124741912
448.0,0.0005739544285461307
480.0,0.00013213243801146746
512.0,-0.0002430719614494592
576.0,-0.0005082704010419548
640.0,-0.0001433413417544216
704.0,-0.0001468166447011754
768.0,-0.0004385267093311995
832.0,0.00025239106616936624
896.0,0.000659859215375036
960.0,0.001423872890882194
1024.0,-2.9581959097413346e-05
1152.0,0.00016934335872065276
1280.0,-0.000672816124279052
1408.0,0.0005729063414037228
1536.0,0.00013821151515003294
1664.0,0.0005407744902186096
1792.0,-4.988073851563968e-05
1920.0,-0.00030597878503613174
2048.0,-0.0011518337996676564
2304.0,-0.00018334951892029494
2560.0,-0.00013496520114131272
2816.0,-0.00024158523592632264
3072.0,0.0004211888008285314
3328.0,-5.014988346374594e-05
3584.0,-0.0009727579308673739
3840.0,-0.0008088150061666965
4096.0,-0.0001764357730280608
4608.0,-4.4770627027901355e-06
5120.0,-0.001078506000339985
5632.0,0.0006282138638198376
6144.0,-0.00011609036300797015
6656.0,-0.00012239825446158648
7168.0,0.000731793639715761
7680.0,0.0007490403950214386
8192.0,-0.0004290154029149562
9216.0,-0.00011923572310479358
10240.0,0.0004984104889445007
11264.0,-0.00025062510394491255
12288.0,-0.0004515866457950324
13312.0,3.251260568504222e-05
14336.0,-0.00011345773236826062
end
