version,3.0
numOfCh,1
type,point
parent_name,100-cuts
ch_type,1_1
kcount,1
numberNandB,1
brightnessNandB,1
carpet pos,0
pc,0
Time (ms),CH1 Auto-Correlation
1.0,0.02922186627984047
2.0,0.026888586580753326
3.0,0.02491888962686062
4.0,0.02319393679499626
5.0,0.021712524816393852
6.0,0.020408108830451965
7.0,0.01919090934097767
8.0,0.01815362460911274
9.0,0.017273638397455215
10.0,0.016487976536154747
11.0,0.015815244987607002
12.0,0.015286164358258247
13.0,0.014793025329709053
14.0,0.014325958676636219
15.0,0.013787073083221912
16.0,0.01333282794803381
18.0,0.012485172599554062
20.0,0.01168696116656065
22.0,0.01101707387715578
24.0,0.010390336625277996
26.0,0.009846746921539307
28.0,0.009437017142772675
30.0,0.00907523836940527
32.0,0.008782426826655865
36.0,0.008406873792409897
40.0,0.007938744500279427
44.0,0.007305427920073271
48.0,0.006962589453905821
52.0,0.006684861145913601
56.0,0.006419813260436058
60.0,0.006189209409058094
64.0,0.00574063416570425
72.0,0.004421983379870653
80.0,0.0036286504473537207
88.0,0.0033660070039331913
96.0,0.0032755821011960506
104.0,0.0034776253160089254
112.0,0.0033086163457483053
120.0,0.0027732043527066708
128.0,0.0024740472435951233
144.0,0.002020116662606597
160.0,0.0021100661251693964
176.0,0.0018195121083408594
192.0,0.001064213691279292
208.0,0.0006449386710301042
224.0,0.0003228850837331265
240.0,-0.00018168266979046166
256.0,-0.0004685892490670085
288.0,-0.0006580289918929338
320.0,-0.0011502901325002313
352.0,1.0901020687015262e-05
384.0,0.0004023306246381253
416.0,-0.0006608907715417445
448.0,-0.0017183508025482297
480.0,-0.0015011653304100037
512.0,-0.0017813241574913263
576.0,-0.001004409627057612
640.0,-0.0006818866240791976
704.0,-0.00023361053899861872
768.0,0.0008702247869223356
832.0,0.00023799984774086624
896.0,-0.0004562051617540419
960.0,-0.00044529690057970583
1024.0,-0.0016722006257623434
1152.0,-0.0010803809855133295
1280.0,0.0002124379388988018
1408.0,0.0009930611122399569
1536.0,0.00041324907215312123
1664.0,0.0003075458516832441
1792.0,-0.0014889463782310486
1920.0,-0.0021060637664049864
2048.0,0.0002312641154276207
2304.0,0.0003747176961041987
2560.0,-0.0018224390223622322
2816.0,-0.0015769776655361056
3072.0,0.0012637514155358076
3328.0,-0.001364192576147616
3584.0,-0.0008417536155320704
3840.0,-0.0005455896607600152
4096.0,0.00044637289829552174
4608.0,0.0007122836541384459
5120.0,-1.3689658771909308e-05
5632.0,-7.65023723943159e-05
6144.0,0.00011510064359754324
6656.0,0.0013857726007699966
7168.0,-0.00045040217810310423
7680.0,-0.001149799209088087
8192.0,-0.0005771723808720708
9216.0,-0.0008337246836163104
10240.0,0.0007354890112765133
11264.0,0.0006504366174340248
12288.0,-0.0012284779222682118
13312.0,0.00014701797044835985
14336.0,0.0011349237756803632
end
