version,3.0
numOfCh,1
type,point
parent_name,100-cuts
ch_type,1_1
kcount,1
numberNandB,1
brightnessNandB,1
carpet pos,0
pc,0
Time (ms),CH1 Auto-Correlation
1.0,0.0423181876540184
2.0,0.03898659348487854
3.0,0.036125391721725464
4.0,0.03365354612469673
5.0,0.03142651170492172
6.0,0.02951767109334469
7.0,0.027811378240585327
8.0,0.02626587264239788
9.0,0.024861326441168785
10.0,0.023641806095838547
11.0,0.022485455498099327
12.0,0.021398048847913742
13.0,0.020422272384166718
14.0,0.019574696198105812
15.0,0.01885325089097023
16.0,0.01822817698121071
18.0,0.017044875770807266
20.0,0.01623607985675335
22.0,0.015535013750195503
24.0,0.014713158831000328
26.0,0.013878353871405125
28.0,0.01306141261011362
30.0,0.012309670448303223
32.0,0.011514720506966114
36.0,0.010683072730898857
40.0,0.010046201758086681
44.0,0.009169891476631165
48.0,0.00819473247975111
52.0,0.007507781498134136
56.0,0.0072791120037436485
60.0,0.006906852591782808
64.0,0.006591501645743847
72.0,0.005605005659162998
80.0,0.004547132644802332
88.0,0.0038498882204294205
96.0,0.0026458001229912043
104.0,0.0018937953282147646
112.0,0.0016223617130890489
120.0,0.0016216168878600001
128.0,0.0018322290852665901
144.0,0.0027795929927378893
160.0,0.002771526575088501
176.0,0.002628216752782464
192.0,0.003231148235499859
208.0,0.0028765900060534477
224.0,0.0022931499406695366
240.0,0.0012116520665585995
256.0,-0.00019921087368857116
288.0,0.0005230720853433013
320.0,0.0006700005033053458
352.0,-0.00037902704207226634
384.0,0.00023766521189827472
416.0,-4.796864595846273e-05
448.0,0.0006604434456676245
480.0,0.00019082512881141156
512.0,-0.0003514951386023313
576.0,-0.0006919303559698164
640.0,0.0018893001833930612
704.0,-0.0008258536690846086
768.0,-0.0022589077707380056
832.0,-0.00034995051100850105
896.0,-0.0005429459852166474
960.0,-0.00024194431898649782
1024.0,-0.003813906107097864
1152.0,-0.002069182228296995
1280.0,-0.0011313172290101647
1408.0,-0.0011275933356955647
1536.0,-0.001436428283341229
1664.0,0.00015603883366566151
1792.0,-0.0014579173875972629
1920.0,0.00037568624247796834
2048.0,-0.00033420382533222437
2304.0,-0.0009941740427166224
2560.0,-0.001040410716086626
2816.0,0.001313106040470302
3072.0,0.001465091947466135
3328.0,0.0009443798917345703
3584.0,0.0013344365870580077
3840.0,-0.0015110013773664832
4096.0,-0.00013648715685121715
4608.0,0.000636604439932853
5120.0,-0.000458378839539364
5632.0,-0.0005319080664776266
6144.0,0.0014539998956024647
6656.0,0.0006421255529858172
7168.0,-0.0021704428363591433
7680.0,-0.000847675371915102
8192.0,-0.00044600211549550295
9216.0,0.0016036565648391843
10240.0,0.00028304674196988344
11264.0,-0.0026697288267314434
12288.0,0.0025665159337222576
13312.0,-0.00042275103623978794
14336.0,4.629254908650182e-05
end
