version,3.0
numOfCh,1
type,point
parent_name,100-cuts
ch_type,1_1
kcount,1
numberNandB,1
brightnessNandB,1
carpet pos,0
pc,0
Time (ms),CH1 Auto-Correlation
1.0,0.04205424711108208
2.0,0.03863901644945145
3.0,0.035746295005083084
4.0,0.03327729180455208
5.0,0.031083887442946434
6.0,0.029186688363552094
7.0,0.02750197798013687
8.0,0.02608226053416729
9.0,0.024810967966914177
10.0,0.023618998005986214
11.0,0.022501440718770027
12.0,0.021479446440935135
13.0,0.02047715336084366
14.0,0.01959848217666149
15.0,0.018801625818014145
16.0,0.018072504550218582
18.0,0.0166939664632082
20.0,0.015433777123689651
22.0,0.01443058904260397
24.0,0.013417566195130348
26.0,0.012394172139465809
28.0,0.01141455490142107
30.0,0.010568136349320412
32.0,0.009680322371423244
36.0,0.008230438455939293
40.0,0.007327493745833635
44.0,0.006522303447127342
48.0,0.005496777128428221
52.0,0.004586192313581705
56.0,0.0036689219996333122
60.0,0.002996278926730156
64.0,0.00211893068626523
72.0,0.001278122654184699
80.0,0.000806948053650558
88.0,0.00017727489466778934
96.0,-0.0005731082055717707
104.0,-0.0013663418358191848
112.0,-0.0010038242908194661
120.0,-0.0004920265055261552
128.0,4.956523116561584e-05
144.0,0.0012828491162508726
160.0,0.0010229670442640781
176.0,0.00040124505176208913
192.0,-0.0005434839404188097
208.0,-4.888296825811267e-05
224.0,0.000557946739718318
240.0,0.0008959357510320842
256.0,0.0014364958042278886
288.0,0.0014373711310327053
320.0,0.0010702410945668817
352.0,-0.0012524747289717197
384.0,-5.812000745208934e-05
416.0,0.00029028000426478684
448.0,-0.0004821403417736292
480.0,-0.0006003966554999352
512.0,-0.00031446764478459954
576.0,-0.001071134232915938
640.0,-0.0009027297492139041
704.0,0.00042848847806453705
768.0,-0.0016548779094591737
832.0,-8.938444079831243e-05
896.0,-9.267509449273348e-05
960.0,0.0004840469919145107
1024.0,0.00020321256306488067
1152.0,-0.0015851325588300824
1280.0,-0.0002414900081930682
1408.0,-0.00012395369412843138
1536.0,-0.0013443887000903487
1664.0,-0.00010658005339791998
1792.0,-3.364397707628086e-05
1920.0,0.00013018333993386477
2048.0,0.0011285999789834023
2304.0,0.0005296634626574814
2560.0,-4.265868847141974e-05
2816.0,0.0001074114115908742
3072.0,0.0006357862730510533
3328.0,-0.00023580514243803918
3584.0,-0.001158050145022571
3840.0,-0.0009390097693540156
4096.0,-0.001139446860179305
4608.0,-0.00022858956072013825
5120.0,0.00012504404003266245
5632.0,-0.0015837372047826648
6144.0,-0.000756782537791878
6656.0,-0.0003271517634857446
7168.0,0.0012673389865085483
7680.0,8.520593837602064e-05
8192.0,-0.00047922227531671524
9216.0,0.000762848649173975
10240.0,-0.00020492749172262847
11264.0,0.0002625431807246059
12288.0,0.0005833683535456657
13312.0,-0.001991747645661235
14336.0,0.001500690937973559
end
