version,3.0
numOfCh,1
type,point
parent_name,100-cuts
ch_type,1_1
kcount,1
numberNandB,1
brightnessNandB,1
carpet pos,0
pc,0
Time (ms),CH1 Auto-Correlation
1.0,0.027460632845759392
2.0,0.025179585441946983
3.0,0.023271901533007622
4.0,0.02158917486667633
5.0,0.020086249336600304
6.0,0.018801696598529816
7.0,0.01765618473291397
8.0,0.01666148193180561
9.0,0.015719711780548096
10.0,0.014887652359902859
11.0,0.014060539193451405
12.0,0.013397816568613052
13.0,0.012792778201401234
14.0,0.012234488502144814
15.0,0.01177260372787714
16.0,0.011337590403854847
18.0,0.010525901801884174
20.0,0.009702387265861034
22.0,0.00894097238779068
24.0,0.008399584330618382
26.0,0.007953126914799213
28.0,0.0076258545741438866
30.0,0.007313969079405069
32.0,0.0069928159937262535
36.0,0.006529389414936304
40.0,0.0057288287207484245
44.0,0.005054304841905832
48.0,0.004535446409136057
52.0,0.004084325395524502
56.0,0.0034660573583096266
60.0,0.0029484680853784084
64.0,0.0026760927867144346
72.0,0.0019101090729236603
80.0,0.001317325746640563
88.0,0.0011808769777417183
96.0,0.0011193595128133893
104.0,0.0008699772297404706
112.0,0.00037822965532541275
120.0,0.000307895359583199
128.0,0.0008943022694438696
144.0,0.0008084733854047954
160.0,-0.0003690659941639751
176.0,-0.0006566197844222188
192.0,-0.001194490003399551
208.0,-0.001418444560840726
224.0,-0.0016106681432574987
240.0,-0.0011836816556751728
256.0,-0.0010845692595466971
288.0,-0.00029992818599566817
320.0,-0.00021428968466352671
352.0,0.000828183488920331
384.0,0.00046923328773118556
416.0,0.0007389946840703487
448.0,0.0012497021816670895
480.0,0.002071680733934045
512.0,0.0012840668205171824
576.0,-0.000112661458842922
640.0,-0.000345335021847859
704.0,-0.0011148633202537894
768.0,-0.001098322100006044
832.0,0.0016616950742900372
896.0,0.0007408329984173179
960.0,-0.00047745366464369
1024.0,-0.0010477801552042365
1152.0,-0.0004230390477459878
1280.0,-0.0004220804257784039
1408.0,-0.00045057706302031875
1536.0,-0.0004655514203477651
1664.0,0.0011717895977199078
1792.0,-0.0005895098438486457
1920.0,-0.0018505286425352097
2048.0,0.0008347290568053722
2304.0,0.00042963019222952425
2560.0,-0.0007166061550378799
2816.0,0.00039396947249770164
3072.0,0.00019966265244875103
3328.0,0.0002579099091235548
3584.0,-0.00034459077869541943
3840.0,5.508011963684112e-05
4096.0,-0.00043457429273985326
4608.0,-0.00047003544750623405
5120.0,-0.0006607837276533246
5632.0,0.00012364615395199507
6144.0,5.879408854525536e-05
6656.0,-0.0002581001608632505
7168.0,0.00011634740803856403
7680.0,-5.6903962104115635e-05
8192.0,0.0003396501124370843
9216.0,0.0005216617719270289
10240.0,-0.0008504436118528247
11264.0,0.0003015650436282158
12288.0,-0.0001884294324554503
13312.0,-0.0007949380669742823
14336.0,0.0009662225493229926
end
