version,3.0
numOfCh,1
type,point
parent_name,100-cuts
ch_type,1_1
kcount,1
numberNandB,1
brightnessNandB,1
carpet pos,0
pc,0
Time (ms),CH1 Auto-Correlation
1.0,0.026896335184574127
2.0,0.024591749534010887
3.0,0.0226934552192688
4.0,0.02099233865737915
5.0,0.019555941224098206
6.0,0.01827177219092846
7.0,0.017213111743330956
8.0,0.016239916905760765
9.0,0.015387819148600101
10.0,0.014634361490607262
11.0,0.013980136252939701
12.0,0.013369972817599773
13.0,0.012855768203735352
14.0,0.012357484549283981
15.0,0.011948755010962486
16.0,0.011536585167050362
18.0,0.010632351972162724
20.0,0.009714223444461823
22.0,0.008831768296658993
24.0,0.008025368675589561
26.0,0.007411307189613581
28.0,0.006922864355146885
30.0,0.00651010125875473
32.0,0.005987979006022215
36.0,0.005202877800911665
40.0,0.004817354958504438
44.0,0.004384899977594614
48.0,0.004182014148682356
52.0,0.00378765189088881
56.0,0.003601203439757228
60.0,0.0035757068544626236
64.0,0.0034258917439728975
72.0,0.003048141486942768
80.0,0.0023717526346445084
88.0,0.002121161436662078
96.0,0.0017953766509890556
104.0,0.0012657784391194582
112.0,0.0010595148196443915
120.0,0.0012679594801738858
128.0,0.0014059768291190267
144.0,0.0013819205341860652
160.0,0.0011819829232990742
176.0,0.0005805915570817888
192.0,0.0013770728837698698
208.0,0.0018559627933427691
224.0,0.0010403308551758528
240.0,0.0004813091945834458
256.0,0.0009091346873901784
288.0,0.001025524572469294
320.0,0.0006098160520195961
352.0,0.00027716445038095117
384.0,0.00032297108555212617
416.0,0.000366049847798422
448.0,-0.0002572896773926914
480.0,0.00018613625434227288
512.0,0.0005855690687894821
576.0,0.0002662232727743685
640.0,0.00021545722847804427
704.0,0.0003704304399434477
768.0,-0.00012870412319898605
832.0,-0.0003659516223706305
896.0,0.0007289714994840324
960.0,0.001026892801746726
1024.0,-0.00022662141418550164
1152.0,-3.532885557433474e-06
1280.0,-0.0005474126664921641
1408.0,-0.0009570986730977893
1536.0,-0.0005250092362985015
1664.0,-0.0009614730952307582
1792.0,0.0015969377709552646
1920.0,0.0009824368171393871
2048.0,0.0001337497087661177
2304.0,0.0003192301082890481
2560.0,0.0002530193596612662
2816.0,0.00021433398069348186
3072.0,-0.00027099254657514393
3328.0,-0.0016637970693409443
3584.0,-0.0009895869297906756
3840.0,-0.001095190760679543
4096.0,-0.0011998310219496489
4608.0,-0.00019196217181161046
5120.0,0.0008944712462835014
5632.0,0.00012460601283237338
6144.0,-0.0004496506880968809
6656.0,0.00032159406691789627
7168.0,0.0006687204004265368
7680.0,0.0013364333426579833
8192.0,0.0006668023997917771
9216.0,-0.000825298426207155
10240.0,3.616846151999198e-05
11264.0,-0.001024580211378634
12288.0,-0.00048681904445402324
13312.0,-0.00034704277641139925
14336.0,-0.00022057481692172587
end
