version,3.0
numOfCh,1
type,point
parent_name,100-cuts
ch_type,1_1
kcount,1
numberNandB,1
brightnessNandB,1
carpet pos,0
pc,0
Time (ms),CH1 Auto-Correlation
1.0,0.027374740689992905
2.0,0.025073859840631485
3.0,0.023093460127711296
4.0,0.02143344096839428
5.0,0.019927434623241425
6.0,0.018614230677485466
7.0,0.017434244975447655
8.0,0.016312211751937866
9.0,0.015356319025158882
10.0,0.014502023346722126
11.0,0.01370738074183464
12.0,0.013058886863291264
13.0,0.012434246018528938
14.0,0.011826840229332447
15.0,0.011192354373633862
16.0,0.010695499368011951
18.0,0.009764742106199265
20.0,0.008917207829654217
22.0,0.008020580746233463
24.0,0.00724137993529439
26.0,0.006717279553413391
28.0,0.006199521478265524
30.0,0.005729882512241602
32.0,0.005284024868160486
36.0,0.0042909178882837296
40.0,0.003621431766077876
44.0,0.0030670345295220613
48.0,0.0023655586410313845
52.0,0.0018161655170843005
56.0,0.0016325536416843534
60.0,0.0013944125967100263
64.0,0.0012517969589680433
72.0,0.0007125429692678154
80.0,0.0002635905984789133
88.0,0.0005921043921262026
96.0,0.0008589290082454681
104.0,0.0008681059116497636
112.0,0.000816150801256299
120.0,0.0008889773744158447
128.0,0.0009028458152897656
144.0,0.0009940855670720339
160.0,0.0005443423870019615
176.0,0.0011112805223092437
192.0,0.0013172222534194589
208.0,0.0005757963517680764
224.0,0.0008003223920240998
240.0,0.0013841312611475587
256.0,0.0014063443522900343
288.0,0.0008088091271929443
320.0,0.00020252421381883323
352.0,0.0002907080634031445
384.0,0.00014892715262249112
416.0,-0.000358310469891876
448.0,-0.0013499900233000517
480.0,-0.0016433658311143517
512.0,-0.0016346608754247427
576.0,-0.0007202521082945168
640.0,-0.0006509219529107213
704.0,0.0002388742141192779
768.0,-0.0005086119053885341
832.0,-0.0003246609412599355
896.0,0.0002297329338034615
960.0,0.00048049824545159936
1024.0,0.0005315018352121115
1152.0,0.00084554502973333
1280.0,8.839939982863143e-05
1408.0,-0.00024138546723406762
1536.0,0.0005929608014412224
1664.0,-0.00023155534290708601
1792.0,-0.00018138706218451262
1920.0,-0.0004998077638447285
2048.0,-0.0003010866930708289
2304.0,0.00031281038536690176
2560.0,0.00043081436888314784
2816.0,-0.0008380539948120713
3072.0,-0.00122492341324687
3328.0,-0.0004127974098082632
3584.0,-0.00016096913896035403
3840.0,-4.468525276024593e-06
4096.0,-0.0006080818711780012
4608.0,0.00012195785529911518
5120.0,-3.3898042602231726e-05
5632.0,0.00014351305435411632
6144.0,-8.69415671331808e-05
6656.0,0.00037564217927865684
7168.0,3.18136480927933e-05
7680.0,-0.00022874593560118228
8192.0,-0.00010477456817170605
9216.0,-9.992189734475687e-05
10240.0,-0.0004895281163044274
11264.0,0.00024131566169671714
12288.0,0.0006845413008704782
13312.0,0.0007056277245283127
14336.0,-0.00032651241053827107
end
