version,3.0
numOfCh,1
type,point
parent_name,100-cuts
ch_type,1_1
kcount,1
numberNandB,1
brightnessNandB,1
carpet pos,0
pc,0
Time (ms),CH1 Auto-Correlation
1.0,0.0462181381881237
2.0,0.042797017842531204
3.0,0.03977196663618088
4.0,0.03709398955106735
5.0,0.034831225872039795
6.0,0.032857496291399
7.0,0.031108222901821136
8.0,0.029477832838892937
9.0,0.02790909633040428
10.0,0.026593556627631187
11.0,0.025447793304920197
12.0,0.024304835125803947
13.0,0.02341517247259617
14.0,0.02248159423470497
15.0,0.021660657599568367
16.0,0.02094404213130474
18.0,0.01945413276553154
20.0,0.01814129576086998
22.0,0.0170120932161808
24.0,0.015917688608169556
26.0,0.01496715098619461
28.0,0.01411095354706049
30.0,0.013204709626734257
32.0,0.012234360910952091
36.0,0.01056140661239624
40.0,0.009525032714009285
44.0,0.008743972517549992
48.0,0.007900035008788109
52.0,0.007189772091805935
56.0,0.006474326364696026
60.0,0.005793572403490543
64.0,0.005365425255149603
72.0,0.005428776144981384
80.0,0.005743097513914108
88.0,0.005783536937087774
96.0,0.0054561421275138855
104.0,0.005395000334829092
112.0,0.005067418795078993
120.0,0.0047303419560194016
128.0,0.004425240680575371
144.0,0.004381999373435974
160.0,0.0035956210922449827
176.0,0.003379814326763153
192.0,0.0019802937749773264
208.0,0.0012474313843995333
224.0,0.0008528833859600127
240.0,0.0009095846326090395
256.0,-0.000534718856215477
288.0,-0.0009975300636142492
320.0,-0.0019796695560216904
352.0,-0.0018516683485358953
384.0,-0.0010032262653112411
416.0,-0.00027477683033794165
448.0,-0.0002997150004375726
480.0,-0.0005230482784099877
512.0,-0.0017528338357806206
576.0,-0.0007967486162669957
640.0,0.00029339679167605937
704.0,-0.00044131302274763584
768.0,0.00029307889053598046
832.0,0.00011717547749867663
896.0,0.0012063508620485663
960.0,0.0018462983425706625
1024.0,0.00047469057608395815
1152.0,0.0007933392771519721
1280.0,-0.0009100663592107594
1408.0,-0.0012427924666553736
1536.0,-0.00037803867598995566
1664.0,-0.001268857391551137
1792.0,0.0001998037041630596
1920.0,0.00019962122314609587
2048.0,-0.0008301272173412144
2304.0,-0.00022847071522846818
2560.0,-0.00017359884805046022
2816.0,-0.0008055949001573026
3072.0,-0.000517760927323252
3328.0,-0.0012127556838095188
3584.0,-0.0022496681194752455
3840.0,-0.0008695083670318127
4096.0,0.0008772589499130845
4608.0,-0.0006790400948375463
5120.0,0.0008430550806224346
5632.0,0.0005047395825386047
6144.0,0.0020887809805572033
6656.0,0.0010612268233671784
7168.0,0.0006719258381053805
7680.0,-0.0017366934334859252
8192.0,-0.0009618941694498062
9216.0,-0.0012730115558952093
10240.0,4.873859143117443e-05
11264.0,0.00042504709563218057
12288.0,0.0002826545387506485
13312.0,-0.00047762037138454616
14336.0,-0.0012768353335559368
end
