version,3.0
numOfCh,1
type,point
parent_name,100-cuts
ch_type,1_1
kcount,1
numberNandB,1
brightnessNandB,1
carpet pos,0
pc,0
Time (ms),CH1 Auto-Correlation
1.0,0.029650934040546417
2.0,0.027319923043251038
3.0,0.025379877537488937
4.0,0.023645911365747452
5.0,0.02208111621439457
6.0,0.02070719376206398
7.0,0.019473956897854805
8.0,0.018395498394966125
9.0,0.017417211085557938
10.0,0.016549622640013695
11.0,0.015770714730024338
12.0,0.015108553692698479
13.0,0.014494122937321663
14.0,0.013903947547078133
15.0,0.013292597606778145
16.0,0.012690925039350986
18.0,0.011700932867825031
20.0,0.010742214508354664
22.0,0.009910929948091507
24.0,0.009174033999443054
26.0,0.008398938924074173
28.0,0.007824931293725967
30.0,0.0073764994740486145
32.0,0.007090040948241949
36.0,0.006156659219413996
40.0,0.005125034600496292
44.0,0.004428594373166561
48.0,0.003959886264055967
52.0,0.003651429433375597
56.0,0.003272597910836339
60.0,0.002779053756967187
64.0,0.00238501513376832
72.0,0.002226186916232109
80.0,0.0021835097577422857
88.0,0.0018491281662136316
96.0,0.0016983745153993368
104.0,0.0016741789877414703
112.0,0.001872497727163136
120.0,0.00196024589240551
128.0,0.0018764168489724398
144.0,0.0012109738308936357
160.0,0.0005774165620096028
176.0,0.00028196090715937316
192.0,0.0006130367401055992
208.0,0.00034729880280792713
224.0,0.00023620761930942535
240.0,0.001705268630757928
256.0,0.0018202632199972868
288.0,0.0003177816397510469
320.0,0.0003497510333545506
352.0,-0.0008504289435222745
384.0,-0.0001820366596803069
416.0,0.0015792633639648557
448.0,0.0017663519829511642
480.0,0.0009917487623170018
512.0,0.0007808849331922829
576.0,0.0011069871252402663
640.0,0.00046162615763023496
704.0,0.00014696108701173216
768.0,-0.00010999937512679026
832.0,-0.0010604312410578132
896.0,-0.0018396575469523668
960.0,-0.002373065799474716
1024.0,-0.001893349806778133
1152.0,2.3272763428394683e-05
1280.0,-0.0019898542668670416
1408.0,-0.0009908024221658707
1536.0,-0.0008058651001192629
1664.0,0.0005258063320070505
1792.0,-0.0012945407070219517
1920.0,-0.0006296109058894217
2048.0,-0.002079801866784692
2304.0,0.00048507057363167405
2560.0,-0.0007018126780167222
2816.0,0.0006432929658330977
3072.0,0.0004539530782494694
3328.0,0.0018778094090521336
3584.0,-0.000786107440944761
3840.0,-6.833635416114703e-05
4096.0,-0.0006213232991285622
4608.0,1.9764866010518745e-05
5120.0,0.00045799612416885793
5632.0,-0.0006582838832400739
6144.0,-0.0015273308381438255
6656.0,-0.0001037647743942216
7168.0,0.0010147800203412771
7680.0,0.001505982712842524
8192.0,0.0006237441557459533
9216.0,-0.0008726085070520639
10240.0,-0.0003132302954327315
11264.0,0.00010508525156183168
12288.0,0.00036158255534246564
13312.0,-0.00018468925554770976
14336.0,6.124596256995574e-05
end
