version,3.0
numOfCh,1
type,point
parent_name,100-cuts
ch_type,1_1
kcount,1
numberNandB,1
brightnessNandB,1
carpet pos,0
pc,0
Time (ms),CH1 Auto-Correlation
1.0,0.09449505060911179
2.0,0.08732821047306061
3.0,0.08120416849851608
4.0,0.07572359591722488
5.0,0.07069551944732666
6.0,0.0662655234336853
7.0,0.06230450049042702
8.0,0.05860750377178192
9.0,0.05523810535669327
10.0,0.05203257128596306
11.0,0.04903968796133995
12.0,0.04631440341472626
13.0,0.04389497637748718
14.0,0.04179408401250839
15.0,0.03979051858186722
16.0,0.03782527521252632
18.0,0.03436102345585823
20.0,0.03167875111103058
22.0,0.02957678772509098
24.0,0.0280314814299345
26.0,0.026307541877031326
28.0,0.024574289098381996
30.0,0.02304079569876194
32.0,0.021712621673941612
36.0,0.019826343283057213
40.0,0.018028654158115387
44.0,0.015974203124642372
48.0,0.014356188476085663
52.0,0.012760109268128872
56.0,0.01126064546406269
60.0,0.009549864567816257
64.0,0.008327476680278778
72.0,0.006526818033307791
80.0,0.005227962043136358
88.0,0.0045556859113276005
96.0,0.004146723076701164
104.0,0.004011814948171377
112.0,0.0051905387081205845
120.0,0.0045815096236765385
128.0,0.004913086537271738
144.0,0.004700473044067621
160.0,0.004986172541975975
176.0,0.004232172854244709
192.0,0.0055220238864421844
208.0,0.003082802752032876
224.0,-0.0008080802508629858
240.0,0.00023658809368498623
256.0,0.0026622640434652567
288.0,0.007603697013109922
320.0,0.006741184275597334
352.0,0.0017342233331874013
384.0,-0.002104450948536396
416.0,4.904207798972493e-06
448.0,0.00014959863619878888
480.0,0.0002048112073680386
512.0,-0.00538821704685688
576.0,-0.002009432530030608
640.0,0.0031286876183003187
704.0,-0.00175676797516644
768.0,-0.0007385556236840785
832.0,0.0011695820139721036
896.0,0.0008342725923284888
960.0,0.0005699843168258667
1024.0,-0.0014433806063607335
1152.0,-0.006237194873392582
1280.0,-0.0009128737146966159
1408.0,-0.0014517676318064332
1536.0,0.00037610632716678083
1664.0,0.0012086196802556515
1792.0,-0.00037371646612882614
1920.0,-0.0008192923269234598
2048.0,-0.0033530360087752342
2304.0,4.440033808350563e-05
2560.0,-0.001049747341312468
2816.0,0.0016564569668844342
3072.0,0.002309658331796527
3328.0,-0.0035380148328840733
3584.0,-0.0025287019088864326
3840.0,0.00013434579886961728
4096.0,-0.002875066827982664
4608.0,0.0015781159745529294
5120.0,0.00161608902271837
5632.0,-0.0020759503822773695
6144.0,-0.0017719549359753728
6656.0,0.00032645135070197284
7168.0,-0.0017246974166482687
7680.0,0.0011462676338851452
8192.0,0.0032319538295269012
9216.0,0.0005631303647533059
10240.0,-0.0018608022946864367
11264.0,-0.002163457917049527
12288.0,0.0005141942529007792
13312.0,0.0023951788898557425
14336.0,0.001077977824024856
end
