version,3.0
numOfCh,1
type,point
parent_name,100-cuts
ch_type,1_1
kcount,1
numberNandB,1
brightnessNandB,1
carpet pos,0
pc,0
Time (ms),CH1 Auto-Correlation
1.0,0.039406534284353256
2.0,0.03600886091589928
3.0,0.03306612744927406
4.0,0.03057965263724327
5.0,0.0283312126994133
6.0,0.026355750858783722
7.0,0.024630533531308174
8.0,0.023058146238327026
9.0,0.021700264886021614
10.0,0.020526733249425888
11.0,0.01944088190793991
12.0,0.018351994454860687
13.0,0.017334382981061935
14.0,0.01639886200428009
15.0,0.015537606552243233
16.0,0.014847648330032825
18.0,0.013482268899679184
20.0,0.012281490489840508
22.0,0.011276982724666595
24.0,0.01041064690798521
26.0,0.009545711800456047
28.0,0.00879575777798891
30.0,0.00803053192794323
32.0,0.007527865935117006
36.0,0.006864703726023436
40.0,0.006118618883192539
44.0,0.005595123860985041
48.0,0.00496748648583889
52.0,0.004591927397996187
56.0,0.004171003587543964
60.0,0.003579431911930442
64.0,0.0028565756510943174
72.0,0.002406472573056817
80.0,0.0016115539474412799
88.0,0.0006670759757980704
96.0,-2.3016709747025743e-05
104.0,-0.00014141248539090157
112.0,-0.0008408224675804377
120.0,-0.0014035527128726244
128.0,-0.001494420226663351
144.0,-0.0011020255042240024
160.0,9.842758299782872e-05
176.0,-0.0006714061601087451
192.0,-0.0022070833947509527
208.0,-0.0008985898457467556
224.0,-0.0007817319128662348
240.0,-0.0015308489091694355
256.0,-0.0013035619631409645
288.0,-0.0011592752998694777
320.0,-0.0008313076687045395
352.0,-0.0023098085075616837
384.0,-0.0032655277755111456
416.0,-0.002229666104540229
448.0,-0.0009699536603875458
480.0,-0.00017269927775487304
512.0,0.00048329998389817774
576.0,6.720487726852298e-05
640.0,0.0009312934125773609
704.0,-0.0009050978696905077
768.0,0.0003272990579716861
832.0,-5.0674076192080975e-05
896.0,-0.001795671065337956
960.0,-0.0016422475455328822
1024.0,0.00034557722392491996
1152.0,0.0007323767640627921
1280.0,0.000537560204975307
1408.0,0.0005433491314761341
1536.0,0.001220019767060876
1664.0,0.00047311061643995345
1792.0,0.00022310450731310993
1920.0,-0.00031498921453021467
2048.0,-0.0005972483195364475
2304.0,-0.00027324919938109815
2560.0,0.0008689792593941092
2816.0,0.00046938625746406615
3072.0,0.0003415953542571515
3328.0,-0.0012506702914834023
3584.0,0.0006186880054883659
3840.0,-0.0009519705199636519
4096.0,9.796872473089024e-05
4608.0,-0.0009370421175844967
5120.0,-2.9562668714788742e-05
5632.0,0.0002311846474185586
6144.0,-0.0005304104997776449
6656.0,-0.0010307708289474249
7168.0,0.0006614390294998884
7680.0,0.0003183140361215919
8192.0,-0.0016113794408738613
9216.0,8.094897930277511e-05
10240.0,-3.203124651918188e-05
11264.0,0.0005055973306298256
12288.0,-0.0001392047415720299
13312.0,-0.00012181008059997112
14336.0,0.0011912034824490547
end
