version,3.0
numOfCh,1
type,point
parent_name,100-cuts
ch_type,1_1
kcount,1
numberNandB,1
brightnessNandB,1
carpet pos,0
pc,0
Time (ms),CH1 Auto-Correlation
1.0,0.026828331872820854
2.0,0.024594711139798164
3.0,0.022643253207206726
4.0,0.021036297082901
5.0,0.01959385722875595
6.0,0.01834530010819435
7.0,0.01715991273522377
8.0,0.016119755804538727
9.0,0.015174662694334984
10.0,0.014281504787504673
11.0,0.013425891287624836
12.0,0.012650953605771065
13.0,0.011981910094618797
14.0,0.011356106027960777
15.0,0.010759230703115463
16.0,0.010228006169199944
18.0,0.009358708746731281
20.0,0.00858582928776741
22.0,0.007930761203169823
24.0,0.007371016312390566
26.0,0.0067574093118309975
28.0,0.006165623664855957
30.0,0.005634745582938194
32.0,0.005061036441475153
36.0,0.004134669899940491
40.0,0.0033937671687453985
44.0,0.0028288322500884533
48.0,0.002429969608783722
52.0,0.00213820394128561
56.0,0.001944639952853322
60.0,0.0016562523087486625
64.0,0.0012719688238576055
72.0,0.000768664525821805
80.0,0.0008044939604587853
88.0,0.0008978928672149777
96.0,0.0007002189522609115
104.0,0.0003311200416646898
112.0,0.00013547942216973752
120.0,8.886958312359639e-06
128.0,0.00013299990678206086
144.0,-0.0002430415479466319
160.0,-0.00016605366545263678
176.0,0.00027127418434247375
192.0,0.0006064578192308545
208.0,8.143914601532742e-05
224.0,0.0006296540959738195
240.0,0.0010172424372285604
256.0,0.00030874484218657017
288.0,-0.00038139134994708
320.0,-0.00042858306551352143
352.0,-0.00020151017815805972
384.0,0.0006956115830689669
416.0,0.0014822520315647125
448.0,0.0010556724155321717
480.0,0.000728527782484889
512.0,-0.0005125473253428936
576.0,-0.0005924898432567716
640.0,-0.0008282166090793908
704.0,-0.0006511018727906048
768.0,-0.000607391819357872
832.0,-0.00015613227151334286
896.0,0.0009464683244004846
960.0,-0.00028253314667381346
1024.0,-0.0005127789336256683
1152.0,0.0002793867024593055
1280.0,0.0013519013300538063
1408.0,-0.000720321258995682
1536.0,0.0012251249281689525
1664.0,0.0006339309038594365
1792.0,-0.0001143614572356455
1920.0,-0.0011081211268901825
2048.0,-0.0007302641170099378
2304.0,-0.0004884372465312481
2560.0,4.884968075202778e-05
2816.0,0.000650444533675909
3072.0,0.0003008804051205516
3328.0,0.0001771291863406077
3584.0,-0.00012789841275662184
3840.0,-0.0001934149768203497
4096.0,0.00033478435943834484
4608.0,-0.00038289694930426776
5120.0,-0.00045841032988391817
5632.0,-0.00012551039981190115
6144.0,-1.628420068300329e-05
6656.0,-0.0006361328414641321
7168.0,-9.718076762510464e-05
7680.0,1.8957784050144255e-05
8192.0,0.00012198803597129881
9216.0,-9.384517761645839e-05
10240.0,1.8888609929490485e-06
11264.0,-0.00023707958462182432
12288.0,8.704041101736948e-05
13312.0,-0.00018888992781285197
14336.0,-0.00018098719010595232
end
