version,3.0
numOfCh,1
type,point
parent_name,100-cuts
ch_type,1_1
kcount,1
numberNandB,1
brightnessNandB,1
carpet pos,0
pc,0
Time (ms),CH1 Auto-Correlation
1.0,0.027259916067123413
2.0,0.024904081597924232
3.0,0.02291122078895569
4.0,0.02119315043091774
5.0,0.019759364426136017
6.0,0.018407942727208138
7.0,0.01724899187684059
8.0,0.016174279153347015
9.0,0.015183847397565842
10.0,0.014277857728302479
11.0,0.01346516516059637
12.0,0.012736228294670582
13.0,0.012039110995829105
14.0,0.011440347880125046
15.0,0.010919956490397453
16.0,0.01048270519822836
18.0,0.009690145030617714
20.0,0.008954385295510292
22.0,0.008239849470555782
24.0,0.007579719182103872
26.0,0.006939681712538004
28.0,0.006406274624168873
30.0,0.006094843149185181
32.0,0.00586955901235342
36.0,0.005422593560069799
40.0,0.005019745789468288
44.0,0.004571554251015186
48.0,0.004022200591862202
52.0,0.0034595297183841467
56.0,0.0031923679634928703
60.0,0.0029834704473614693
64.0,0.0027577863074839115
72.0,0.002132053952664137
80.0,0.0015077479183673859
88.0,0.0011603066232055426
96.0,0.0009383571450598538
104.0,0.001224822481162846
112.0,0.0012125347275286913
120.0,0.0016809111693874002
128.0,0.0013176416978240013
144.0,0.0010717989644035697
160.0,0.0013781220186501741
176.0,0.001320495386607945
192.0,0.0008104179869405925
208.0,0.0006676394841633737
224.0,0.0008422178798355162
240.0,0.0008488710154779255
256.0,0.0005990688223391771
288.0,-0.0003161239146720618
320.0,0.0013925894163548946
352.0,0.001117431791499257
384.0,0.0010664098663255572
416.0,0.0003073125262744725
448.0,4.5833563490305096e-05
480.0,-7.044377980491845e-06
512.0,-0.0008486416772939265
576.0,-5.137922585163324e-07
640.0,0.000151142492541112
704.0,3.658140849438496e-05
768.0,-0.0003479029983282089
832.0,-0.0003590629203245044
896.0,-0.0004436563467606902
960.0,-0.0006056039710529149
1024.0,-0.0011913839261978865
1152.0,-0.0007640265976078808
1280.0,-0.0012022083392366767
1408.0,-0.0016355774132534862
1536.0,-0.00010198319796472788
1664.0,-0.000175795255927369
1792.0,-0.0002743152726907283
1920.0,-0.0013079880736768246
2048.0,0.00014248579100240022
2304.0,0.0009074441040866077
2560.0,0.0014856631169095635
2816.0,0.00046080368338152766
3072.0,-2.806926568155177e-05
3328.0,0.0007632723427377641
3584.0,-0.0006237583002075553
3840.0,-0.0004589349264279008
4096.0,7.421098416671157e-05
4608.0,-0.0007105501717887819
5120.0,6.847944314358756e-05
5632.0,0.0005030698957853019
6144.0,-6.009645585436374e-05
6656.0,-0.0013274572556838393
7168.0,-0.001140992040745914
7680.0,0.00046199350617825985
8192.0,0.0009277995559386909
9216.0,-0.00019837911531794816
10240.0,0.00022212187468539923
11264.0,0.00024038869014475495
12288.0,-0.00035537430085241795
13312.0,0.0006386129534803331
14336.0,0.0004444151418283582
end
