version,3.0
numOfCh,1
type,point
parent_name,100-cuts
ch_type,1_1
kcount,1
numberNandB,1
brightnessNandB,1
carpet pos,0
pc,0
Time (ms),CH1 Auto-Correlation
1.0,0.09266145527362823
2.0,0.0850152000784874
3.0,0.07843075692653656
4.0,0.07281562685966492
5.0,0.06776061654090881
6.0,0.06334584206342697
7.0,0.0596480555832386
8.0,0.05636795237660408
9.0,0.05327257141470909
10.0,0.05048071965575218
11.0,0.04767760634422302
12.0,0.04524429887533188
13.0,0.04270242899656296
14.0,0.04057234153151512
15.0,0.0389522947371006
16.0,0.03736782446503639
18.0,0.03426755592226982
20.0,0.031679559499025345
22.0,0.02916194312274456
24.0,0.026755014434456825
26.0,0.024531327188014984
28.0,0.02252621203660965
30.0,0.021004626527428627
32.0,0.01981101930141449
36.0,0.017942991107702255
40.0,0.016852645203471184
44.0,0.014551936648786068
48.0,0.01320228073745966
52.0,0.012181537225842476
56.0,0.011592849157750607
60.0,0.011398158967494965
64.0,0.011417592875659466
72.0,0.011702374555170536
80.0,0.011040153913199902
88.0,0.00874963030219078
96.0,0.007415881380438805
104.0,0.005912081804126501
112.0,0.003448833478614688
120.0,0.0019066418753936887
128.0,0.0013256079982966185
144.0,0.0026895280461758375
160.0,0.0008691611001268029
176.0,0.0007265653111971915
192.0,-0.0006012989324517548
208.0,-0.0002110268542310223
224.0,0.0017781099304556847
240.0,0.002206728095188737
256.0,0.003236922202631831
288.0,0.0033691057469695807
320.0,0.003919751383364201
352.0,0.003241147380322218
384.0,-0.0003792243078351021
416.0,-0.0010007957462221384
448.0,0.002168264938518405
480.0,0.004082457162439823
512.0,-0.0018413102952763438
576.0,-3.557895979611203e-05
640.0,-0.0006431433721445501
704.0,-0.0019323487067595124
768.0,0.0003980025358032435
832.0,-0.0011817029444500804
896.0,0.002177004935219884
960.0,-0.0008326632669195533
1024.0,-0.001611874671652913
1152.0,-0.002126516541466117
1280.0,-0.0016369963996112347
1408.0,-0.00219745677895844
1536.0,-0.0018649538978934288
1664.0,-0.0023623229935765266
1792.0,0.0017949860775843263
1920.0,-0.00032430788269266486
2048.0,0.00393692497164011
2304.0,0.002642339328303933
2560.0,0.0017939317040145397
2816.0,0.0020234643016010523
3072.0,-0.001232281094416976
3328.0,-0.0024502298329025507
3584.0,0.002609588671475649
3840.0,0.00037606031401082873
4096.0,-0.0012985584326088428
4608.0,0.0032928811851888895
5120.0,-0.0027234796434640884
5632.0,0.0022143814712762833
6144.0,0.0005239757592789829
6656.0,-0.0002793614403344691
7168.0,-0.0027815562207251787
7680.0,-0.0050560166127979755
8192.0,0.002907355548813939
9216.0,-0.0013236530357971787
10240.0,-0.0012863428564742208
11264.0,0.000500936817843467
12288.0,-0.0019401325844228268
13312.0,-0.0005796664045192301
14336.0,-0.0024258752819150686
end
