version,3.0
numOfCh,1
type,point
parent_name,100-cuts
ch_type,1_1
kcount,1
numberNandB,1
brightnessNandB,1
carpet pos,0
pc,0
Time (ms),CH1 Auto-Correlation
1.0,0.04393488168716431
2.0,0.04047834128141403
3.0,0.0374537818133831
4.0,0.034873876720666885
5.0,0.03264247253537178
6.0,0.030736392363905907
7.0,0.029033910483121872
8.0,0.02753501757979393
9.0,0.026187146082520485
10.0,0.024957291781902313
11.0,0.023730209097266197
12.0,0.022569164633750916
13.0,0.02142285741865635
14.0,0.020382588729262352
15.0,0.01936696097254753
16.0,0.018437443301081657
18.0,0.01698947511613369
20.0,0.01574128307402134
22.0,0.014579921960830688
24.0,0.013696596957743168
26.0,0.012852238491177559
28.0,0.011960475705564022
30.0,0.01130981370806694
32.0,0.010756880044937134
36.0,0.009307349100708961
40.0,0.008233947679400444
44.0,0.00743988947942853
48.0,0.0068672732450068
52.0,0.0061363959684967995
56.0,0.005483657121658325
60.0,0.004845298361033201
64.0,0.004047160502523184
72.0,0.0029482298996299505
80.0,0.002485221717506647
88.0,0.0012008699122816324
96.0,0.00016808287182357162
104.0,-0.0001809437235351652
112.0,-0.0006940974271856248
120.0,-0.00045696081360802054
128.0,-0.0002886663132812828
144.0,-0.0006871439982205629
160.0,-0.0016191760078072548
176.0,-0.0021421245764940977
192.0,-0.0015404298901557922
208.0,-0.0017436454072594643
224.0,-0.0011998680420219898
240.0,-0.0004418738535605371
256.0,0.0001178950842586346
288.0,0.0009449566714465618
320.0,0.00035000749630853534
352.0,-0.0012032042723149061
384.0,-0.0008156758267432451
416.0,-0.0014023330295458436
448.0,-0.00048045642324723303
480.0,-0.0008187104249373078
512.0,-0.0008376424666494131
576.0,-0.0007559314253740013
640.0,0.0019504782976582646
704.0,0.00045049077016301453
768.0,0.00016051423153840005
832.0,-0.00013945977843832225
896.0,-0.001753046060912311
960.0,-0.0022245629224926233
1024.0,-5.647917714668438e-05
1152.0,-2.1101981474203058e-05
1280.0,0.0005943603464402258
1408.0,0.0007405432988889515
1536.0,0.0005919779068790376
1664.0,-0.00024051143554970622
1792.0,0.0007737349369563162
1920.0,-0.0011502349516376853
2048.0,0.0007094669854268432
2304.0,-0.0007637399830855429
2560.0,4.8118461563717574e-05
2816.0,0.00012053439422743395
3072.0,-0.00033942877780646086
3328.0,-0.0012394326040521264
3584.0,-0.0007565199048258364
3840.0,-0.0005097950343042612
4096.0,-8.367164264200255e-05
4608.0,0.0006028861971572042
5120.0,-0.0010547979036346078
5632.0,-0.00031683221459388733
6144.0,0.001270315027795732
6656.0,-0.0012153803836554289
7168.0,-0.0006053835968486965
7680.0,-0.0004592454060912132
8192.0,-0.00033300663926638663
9216.0,-0.0006258232751861215
10240.0,0.0008470256580039859
11264.0,0.0001284471363760531
12288.0,0.00014428183203563094
13312.0,-0.00027077653794549406
14336.0,0.0011022479739040136
end
