version,3.0
numOfCh,1
type,point
parent_name,100-cuts
ch_type,1_1
kcount,1
numberNandB,1
brightnessNandB,1
carpet pos,0
pc,0
Time (ms),CH1 Auto-Correlation
1.0,0.04050181061029434
2.0,0.03701482713222504
3.0,0.034018564969301224
4.0,0.03146616742014885
5.0,0.029196105897426605
6.0,0.02723960392177105
7.0,0.025500403717160225
8.0,0.023971380665898323
9.0,0.022574644535779953
10.0,0.021364910528063774
11.0,0.020140189677476883
12.0,0.01906050369143486
13.0,0.018111232668161392
14.0,0.017276249825954437
15.0,0.016383932903409004
16.0,0.015440681017935276
18.0,0.013915260322391987
20.0,0.012602138333022594
22.0,0.011583532206714153
24.0,0.010580537840723991
26.0,0.00972868874669075
28.0,0.008929645642638206
30.0,0.00825302954763174
32.0,0.007598290219902992
36.0,0.0063041802495718
40.0,0.00553305447101593
44.0,0.005060494877398014
48.0,0.004449184983968735
52.0,0.004001806490123272
56.0,0.0036608742084354162
60.0,0.003182977670803666
64.0,0.002661017468199134
72.0,0.0019733018707484007
80.0,0.0018938289722427726
88.0,0.0020639682188630104
96.0,0.0019720885902643204
104.0,0.0012808365281671286
112.0,0.0005633717519231141
120.0,0.0005881731631234288
128.0,0.00017417703929822892
144.0,-0.0010697287507355213
160.0,-0.0009298351942561567
176.0,-6.05199093115516e-05
192.0,-0.0007912269211374223
208.0,-0.0003424900060053915
224.0,-0.00042466269223950803
240.0,0.00014768050459679216
256.0,0.00017613786621950567
288.0,0.00047629044274799526
320.0,-0.0005025321152061224
352.0,-0.0005579417338594794
384.0,-0.0007888851687312126
416.0,0.0001801567996153608
448.0,-0.0003196076722815633
480.0,0.0009038065909408033
512.0,0.0021522613242268562
576.0,0.0013865490909665823
640.0,0.001519275363534689
704.0,0.0014975249068811536
768.0,0.0004022233188152313
832.0,-0.0011437067296355963
896.0,0.0001683678710833192
960.0,0.0011638219002634287
1024.0,-8.195146074285731e-05
1152.0,-0.0007808321388438344
1280.0,0.0012246206169947982
1408.0,-0.0009308081935159862
1536.0,0.00021349219605326653
1664.0,0.00034206276177428663
1792.0,0.00013615978241432458
1920.0,-0.0006638005143031478
2048.0,0.0006018062704242766
2304.0,-0.0006879364373162389
2560.0,0.0013762274757027626
2816.0,-0.00025804268079809844
3072.0,0.00017141469288617373
3328.0,0.00025560439098626375
3584.0,-0.00033470135531388223
3840.0,-0.00010779346484923735
4096.0,-0.00027250239509157836
4608.0,-0.0002576801343820989
5120.0,-6.755801587132737e-05
5632.0,0.00025540278875268996
6144.0,-0.0006786396843381226
6656.0,-0.00026166182942688465
7168.0,-0.0005191294476389885
7680.0,-0.0009968796512112021
8192.0,-0.00026954535860568285
9216.0,-6.661000952590257e-05
10240.0,-7.615235517732799e-05
11264.0,-0.0009485432528890669
12288.0,-7.136091153370216e-05
13312.0,0.0003967398079112172
14336.0,5.118726039654575e-05
end
