version,3.0
numOfCh,1
type,point
parent_name,100-cuts
ch_type,1_1
kcount,1
numberNandB,1
brightnessNandB,1
carpet pos,0
pc,0
Time (ms),CH1 Auto-Correlation
1.0,0.0935371071100235
2.0,0.08585991710424423
3.0,0.07910767197608948
4.0,0.073164202272892
5.0,0.06780243664979935
6.0,0.06299424171447754
7.0,0.05876817926764488
8.0,0.05508282408118248
9.0,0.05186835303902626
10.0,0.049052972346544266
11.0,0.04661861062049866
12.0,0.04459846019744873
13.0,0.042670708149671555
14.0,0.040908701717853546
15.0,0.03919857367873192
16.0,0.037438396364450455
18.0,0.034808650612831116
20.0,0.032338157296180725
22.0,0.030369408428668976
24.0,0.028737863525748253
26.0,0.027149274945259094
28.0,0.025375131517648697
30.0,0.023411205038428307
32.0,0.021514466032385826
36.0,0.01971883699297905
40.0,0.018138602375984192
44.0,0.016979407519102097
48.0,0.015113253146409988
52.0,0.013664214871823788
56.0,0.012954691424965858
60.0,0.012227123603224754
64.0,0.010946386493742466
72.0,0.008795286528766155
80.0,0.00746007589623332
88.0,0.007027365732938051
96.0,0.007182671222835779
104.0,0.005679905880242586
112.0,0.00437941774725914
120.0,0.00501295318827033
128.0,0.002239357680082321
144.0,0.000982856610789895
160.0,0.0008965952438302338
176.0,0.0009473704849369824
192.0,0.0011541706044226885
208.0,-0.0020497592631727457
224.0,-0.004661299753934145
240.0,-0.005255775526165962
256.0,-0.004708942491561174
288.0,-0.003966732416301966
320.0,-0.0007112755556590855
352.0,0.00016081208013929427
384.0,0.0016133489552885294
416.0,0.000884144683368504
448.0,0.0002636074204929173
480.0,0.0008129383204504848
512.0,0.003452708013355732
576.0,0.004108041059225798
640.0,0.0013432700652629137
704.0,0.002347958507016301
768.0,-0.001392791629768908
832.0,0.0014598005218431354
896.0,-0.0006397643592208624
960.0,0.0017439589137211442
1024.0,-0.0022102699149399996
1152.0,0.0007900244672782719
1280.0,2.0284373022150248e-05
1408.0,-0.0019911974668502808
1536.0,-0.0015223135706037283
1664.0,-0.0055184150114655495
1792.0,-0.0042525469325482845
1920.0,-0.004993905313313007
2048.0,0.0002322941436432302
2304.0,0.001554393908008933
2560.0,-0.005255300085991621
2816.0,-0.0011556436074897647
3072.0,0.00033325693220831454
3328.0,-0.0006221944349817932
3584.0,-0.0018976422725245357
3840.0,0.0009267351124435663
4096.0,-0.0011229366064071655
4608.0,0.002446516416966915
5120.0,0.0026669732760638
5632.0,0.001105970237404108
6144.0,-0.0014877711655572057
6656.0,-0.0010222940472885966
7168.0,-0.0011866610730066895
7680.0,0.0010339961154386401
8192.0,-0.002624706830829382
9216.0,0.001215743483044207
10240.0,0.000969914544839412
11264.0,-0.000564886606298387
12288.0,0.0026244099717587233
13312.0,-0.004682059865444899
14336.0,0.0033635678701102734
end
