version,3.0
numOfCh,1
type,point
parent_name,100-cuts
ch_type,1_1
kcount,1
numberNandB,1
brightnessNandB,1
carpet pos,0
pc,0
Time (ms),CH1 Auto-Correlation
1.0,0.02673049084842205
2.0,0.02442150190472603
3.0,0.02246152050793171
4.0,0.020769482478499413
5.0,0.019337404519319534
6.0,0.018064018338918686
7.0,0.016894493252038956
8.0,0.015828389674425125
9.0,0.01483404915779829
10.0,0.014007119461894035
11.0,0.013321556150913239
12.0,0.012727797031402588
13.0,0.012131888419389725
14.0,0.011603855527937412
15.0,0.01108886394649744
16.0,0.010624116286635399
18.0,0.009881480596959591
20.0,0.009216361679136753
22.0,0.008614716120064259
24.0,0.007973486557602882
26.0,0.007373728323727846
28.0,0.006820943672209978
30.0,0.006432853173464537
32.0,0.006067662965506315
36.0,0.005030775908380747
40.0,0.004351489711552858
44.0,0.00410807691514492
48.0,0.003793001640588045
52.0,0.0033131593372672796
56.0,0.002650492824614048
60.0,0.0024416788946837187
64.0,0.00248020701110363
72.0,0.001925653195939958
80.0,0.0008618755382485688
88.0,0.00023666760534979403
96.0,-3.111437399638817e-05
104.0,-0.00026895993505604565
112.0,-0.00012832888751290739
120.0,0.00013518906780518591
128.0,0.00012411174247972667
144.0,-0.0003689825243782252
160.0,-0.00019750476349145174
176.0,0.0003502220206428319
192.0,0.0007699709385633469
208.0,0.000737592636141926
224.0,0.0005337686161510646
240.0,0.0004175359499640763
256.0,0.0005455946666188538
288.0,1.23276658996474e-05
320.0,0.0004126118146814406
352.0,2.5512663341942243e-05
384.0,0.0006618818151764572
416.0,-0.0001092907041311264
448.0,0.0006301135872490704
480.0,-0.00022984719544183463
512.0,-0.0003967149823438376
576.0,0.0003993853460997343
640.0,-0.0008709222893230617
704.0,-0.00158310669939965
768.0,-0.0003280110249761492
832.0,5.69105104659684e-05
896.0,-0.0005141433794051409
960.0,-0.00044191337656229734
1024.0,0.0005405237898230553
1152.0,0.0002615844423417002
1280.0,-0.0001901451323647052
1408.0,-0.000756652734708041
1536.0,-0.0006710480665788054
1664.0,-0.0002579349675215781
1792.0,0.00013411276449915022
1920.0,0.00014768179971724749
2048.0,0.00036265281960368156
2304.0,0.00020509172463789582
2560.0,-0.0007040251512080431
2816.0,-0.0008689261740073562
3072.0,-0.00013388095248956233
3328.0,-0.000274880527285859
3584.0,-0.00023945285647641867
3840.0,0.0008232899708673358
4096.0,0.0006210008868947625
4608.0,0.0005051948828622699
5120.0,-0.0003803518775384873
5632.0,-0.0002507512108422816
6144.0,-0.00023413677990902215
6656.0,-0.00041443141526542604
7168.0,-0.00011943094432353973
7680.0,-0.00021720316726714373
8192.0,-0.00023994193179532886
9216.0,0.0006520321476273239
10240.0,-0.0007205208530649543
11264.0,0.00021214838488958776
12288.0,-0.0006930369418114424
13312.0,0.0007897423347458243
14336.0,-0.0012923856265842915
end
