version,3.0
numOfCh,1
type,point
parent_name,100-cuts
ch_type,1_1
kcount,1
numberNandB,1
brightnessNandB,1
carpet pos,0
pc,0
Time (ms),CH1 Auto-Correlation
1.0,0.09411761909723282
2.0,0.08671902120113373
3.0,0.08035019785165787
4.0,0.07452865689992905
5.0,0.06927569210529327
6.0,0.06479154527187347
7.0,0.0607624426484108
8.0,0.05714176967740059
9.0,0.05389093607664108
10.0,0.051077548414468765
11.0,0.04844427481293678
12.0,0.04601247236132622
13.0,0.04372286796569824
14.0,0.04166996479034424
15.0,0.0396849662065506
16.0,0.03792327269911766
18.0,0.03409281373023987
20.0,0.030260851606726646
22.0,0.027242619544267654
24.0,0.024679064750671387
26.0,0.0221966914832592
28.0,0.020224085077643394
30.0,0.01822385936975479
32.0,0.017030533403158188
36.0,0.01586531102657318
40.0,0.013848720118403435
44.0,0.01147282961755991
48.0,0.008754006586968899
52.0,0.006527396384626627
56.0,0.0061196377500891685
60.0,0.006655785720795393
64.0,0.006421543192118406
72.0,0.0049064806662499905
80.0,0.0027338978834450245
88.0,0.0013963787350803614
96.0,0.00017753266729414463
104.0,9.700016380520537e-05
112.0,-4.300224816233822e-07
120.0,-0.0006922315224073827
128.0,-0.0018668420379981399
144.0,-0.0018301727250218391
160.0,-0.001741777639836073
176.0,-0.00281943054869771
192.0,-0.00267442362383008
208.0,0.000417418748838827
224.0,-0.00040694515337236226
240.0,-0.002415328286588192
256.0,-0.002822309033945203
288.0,0.003503502579405904
320.0,0.0007362877367995679
352.0,0.00018262014782521874
384.0,-0.0022886954247951508
416.0,-0.006823952775448561
448.0,-0.007880107499659061
480.0,-0.007430774625390768
512.0,-0.0033157540019601583
576.0,0.0027196535374969244
640.0,0.0016506225802004337
704.0,0.0027556708082556725
768.0,0.0028757236432284117
832.0,0.0015968538355082273
896.0,0.0014073069905862212
960.0,-0.0005687328521162271
1024.0,-0.001205361564643681
1152.0,-0.002249503741040826
1280.0,3.8179088733159006e-05
1408.0,0.0021486144978553057
1536.0,-0.002561394590884447
1664.0,0.0013121420051902533
1792.0,0.002793894847854972
1920.0,-2.2531698050443083e-05
2048.0,0.00039454843499697745
2304.0,-0.0016523371450603008
2560.0,-0.0018967962823808193
2816.0,-0.0009289530571550131
3072.0,0.0013950050342828035
3328.0,-0.0007235473021864891
3584.0,0.0007487009279429913
3840.0,-0.0013814638368785381
4096.0,-0.0006183909135870636
4608.0,0.00041216754470951855
5120.0,-0.0015358058735728264
5632.0,0.0007426021620631218
6144.0,0.0006938916048966348
6656.0,0.0009218328050337732
7168.0,0.0006268582656048238
7680.0,0.0006165679660625756
8192.0,-0.0016726800240576267
9216.0,-0.0009838645346462727
10240.0,-0.0011876970529556274
11264.0,-0.00015041182632558048
12288.0,-0.001504286890849471
13312.0,0.0011122109135612845
14336.0,0.0019398195436224341
end
