version,3.0
numOfCh,1
type,point
parent_name,100-cuts
ch_type,1_1
kcount,1
numberNandB,1
brightnessNandB,1
carpet pos,0
pc,0
Time (ms),CH1 Auto-Correlation
1.0,0.04372895881533623
2.0,0.04025346040725708
3.0,0.03725777193903923
4.0,0.03468632698059082
5.0,0.03239566087722778
6.0,0.03034432791173458
7.0,0.028499661013484
8.0,0.02677096426486969
9.0,0.02526918239891529
10.0,0.02387377806007862
11.0,0.022739902138710022
12.0,0.021643919870257378
13.0,0.020573336631059647
14.0,0.019611895084381104
15.0,0.018605563789606094
16.0,0.017646867781877518
18.0,0.01620105840265751
20.0,0.014964073896408081
22.0,0.013746630400419235
24.0,0.012633578851819038
26.0,0.011757109314203262
28.0,0.010979458689689636
30.0,0.010432408191263676
32.0,0.009894915856420994
36.0,0.008975395001471043
40.0,0.008380974642932415
44.0,0.007777027320116758
48.0,0.006889317650347948
52.0,0.006107029039412737
56.0,0.005212963558733463
60.0,0.0042286217212677
64.0,0.0036335065960884094
72.0,0.002679005265235901
80.0,0.002171857748180628
88.0,0.002202155301347375
96.0,0.0017863981192931533
104.0,0.000871452153660357
112.0,4.9136368033941835e-05
120.0,-0.0007664204458706081
128.0,-0.0003407220356166363
144.0,-0.00023513269843533635
160.0,-0.00044573607738129795
176.0,-0.0011284659849479795
192.0,-0.00044992921175435185
208.0,3.089505116804503e-05
224.0,-0.0010788498912006617
240.0,-0.000792484381236136
256.0,-0.0014369114069268107
288.0,-0.0004080163489561528
320.0,0.0005061320844106376
352.0,0.0029433495365083218
384.0,0.002353716641664505
416.0,0.0022398564033210278
448.0,0.00243886886164546
480.0,0.0016514151357114315
512.0,0.002345518209040165
576.0,-0.0001722741435514763
640.0,0.0008545837481506169
704.0,0.0003654247848317027
768.0,0.0005978568224236369
832.0,-0.0005306857055984437
896.0,0.000220661677303724
960.0,-0.0021555547136813402
1024.0,-0.0038295346312224865
1152.0,-0.00033459588303230703
1280.0,-0.0019950326532125473
1408.0,-0.001065014861524105
1536.0,-0.0017805397510528564
1664.0,-0.0011014799820259213
1792.0,0.00030095857800915837
1920.0,-0.0002962585131172091
2048.0,4.823472772841342e-05
2304.0,0.0010886251693591475
2560.0,0.0004537233617156744
2816.0,-0.0005964937154203653
3072.0,-0.0015638705808669329
3328.0,-0.0021734656766057014
3584.0,-0.0017041302053257823
3840.0,-0.00031272287014871836
4096.0,0.0015927213244140148
4608.0,0.0023682783357799053
5120.0,-0.0006120163598097861
5632.0,-0.0020475881174206734
6144.0,-0.0002725008234847337
6656.0,0.0017497047083452344
7168.0,0.0001577218499733135
7680.0,-0.001631503226235509
8192.0,-2.4478769773850217e-05
9216.0,0.0014898176304996014
10240.0,-0.001279305899515748
11264.0,-0.0005876726936548948
12288.0,-0.001171188778243959
13312.0,0.0008285266812890768
14336.0,0.0006643949309363961
end
