version,3.0
numOfCh,1
type,point
parent_name,100-cuts
ch_type,1_1
kcount,1
numberNandB,1
brightnessNandB,1
carpet pos,0
pc,0
Time (ms),CH1 Auto-Correlation
1.0,0.025583451613783836
2.0,0.023369647562503815
3.0,0.021444570273160934
4.0,0.019725946709513664
5.0,0.01814657635986805
6.0,0.016800623387098312
7.0,0.015634087845683098
8.0,0.01463723462074995
9.0,0.013790635392069817
10.0,0.013001210056245327
11.0,0.012243766337633133
12.0,0.011579342186450958
13.0,0.010955321602523327
14.0,0.010300626046955585
15.0,0.00973997637629509
16.0,0.009233423508703709
18.0,0.008252399042248726
20.0,0.007480650674551725
22.0,0.006872061640024185
24.0,0.006315608974546194
26.0,0.005811830051243305
28.0,0.005343535449355841
30.0,0.00491359131410718
32.0,0.004553790204226971
36.0,0.0040200091898441315
40.0,0.0033704584930092096
44.0,0.0028015535790473223
48.0,0.0021407895255833864
52.0,0.0017557612154632807
56.0,0.0013535968028008938
60.0,0.0011182310990989208
64.0,0.0008188285282813013
72.0,-0.00019349392096046358
80.0,-0.0005676937871612608
88.0,-0.0005742410430684686
96.0,-0.0005172074888832867
104.0,-0.00028476587613113225
112.0,-0.0003104890347458422
120.0,-0.0001943185634445399
128.0,0.00026464133406989276
144.0,0.0005762744112871587
160.0,0.00035371832200326025
176.0,-0.00011147378972964361
192.0,-0.0001689375058049336
208.0,-0.00024750479497015476
224.0,0.000317958154482767
240.0,0.0008563338196836412
256.0,0.0010107886046171188
288.0,0.000692152651026845
320.0,0.000427224236773327
352.0,0.0005689198733307421
384.0,0.0008173100068233907
416.0,3.514248237479478e-05
448.0,6.417740223696455e-05
480.0,-7.479584746761248e-05
512.0,0.00030736756161786616
576.0,1.0424716492707375e-05
640.0,-0.0005014539347030222
704.0,0.0007498968043364584
768.0,-0.0005978613626211882
832.0,-5.456532016978599e-05
896.0,-0.0007976291817612946
960.0,-0.0008669402450323105
1024.0,-1.7768581528798677e-05
1152.0,-0.0005421391106210649
1280.0,-0.0006290017045103014
1408.0,-0.0007071426953189075
1536.0,-0.000105216124211438
1664.0,0.00018429501506034285
1792.0,0.00034475422580726445
1920.0,-6.619113264605403e-05
2048.0,0.0005992291262373328
2304.0,0.0005448154988698661
2560.0,-0.0003710870223585516
2816.0,2.3690055968472734e-05
3072.0,6.6398947637935635e-06
3328.0,-0.00023578414402436465
3584.0,-0.000776643690187484
3840.0,-0.0005160203436389565
4096.0,-6.684300751658157e-05
4608.0,0.0007233786163851619
5120.0,0.00015640478522982448
5632.0,-0.0009351334301754832
6144.0,0.00012044872710248455
6656.0,0.0006573303835466504
7168.0,-0.00016585177218075842
7680.0,-0.0006956954021006823
8192.0,-0.0003033229731954634
9216.0,0.0006052777753211558
10240.0,-0.0012087763752788305
11264.0,0.0007771370583213866
12288.0,-0.00038616626989096403
13312.0,0.0007299418793991208
14336.0,-0.00010420167382108048
end
