version,3.0
numOfCh,1
type,point
parent_name,100-cuts
ch_type,1_1
kcount,1
numberNandB,1
brightnessNandB,1
carpet pos,0
pc,0
Time (ms),CH1 Auto-Correlation
1.0,0.041167981922626495
2.0,0.0377674475312233
3.0,0.034869465976953506
4.0,0.03241454437375069
5.0,0.030269356444478035
6.0,0.02830549143254757
7.0,0.026571961119771004
8.0,0.024904320016503334
9.0,0.023342423141002655
10.0,0.021951595321297646
11.0,0.02071678824722767
12.0,0.019651632755994797
13.0,0.01871378906071186
14.0,0.017840741202235222
15.0,0.01707087829709053
16.0,0.016291474923491478
18.0,0.014956178143620491
20.0,0.013555393554270267
22.0,0.012295098975300789
24.0,0.011094065383076668
26.0,0.009827282279729843
28.0,0.008785593323409557
30.0,0.008075710386037827
32.0,0.007533352356404066
36.0,0.006825336255133152
40.0,0.006075921002775431
44.0,0.0052546062506735325
48.0,0.0047843363136053085
52.0,0.00457967771217227
56.0,0.004515640437602997
60.0,0.004306998569518328
64.0,0.003933833912014961
72.0,0.0029685082845389843
80.0,0.0017013836186379194
88.0,0.0005786424153484404
96.0,0.0001903779775602743
104.0,-0.0004935288452543318
112.0,-0.0009954251581802964
120.0,-0.0009602386853657663
128.0,-0.0007797736907377839
144.0,0.0006535566644743085
160.0,0.0011271069524809718
176.0,0.0009906471241265535
192.0,0.00016552887973375618
208.0,-0.0007123708492144942
224.0,-0.000228245829930529
240.0,-0.0010443971259519458
256.0,-0.0008739929762668908
288.0,-0.001011081039905548
320.0,-0.0006748950108885765
352.0,-0.0009339620592072606
384.0,-0.000737106311134994
416.0,-0.00246691913343966
448.0,-0.0004486761463340372
480.0,-0.001372835016809404
512.0,0.0004826655494980514
576.0,0.0013076962204650044
640.0,0.0005959069239906967
704.0,0.0009646649705246091
768.0,0.0010067438706755638
832.0,-0.0003222118830308318
896.0,-0.00025220122188329697
960.0,-0.0015549382660537958
1024.0,-0.0020548042375594378
1152.0,0.0009658699855208397
1280.0,0.0006209665443748236
1408.0,0.001884011784568429
1536.0,-0.00013336274423636496
1664.0,-0.0017188885249197483
1792.0,-0.0014087674207985401
1920.0,0.0003977942396886647
2048.0,0.0007335167028941214
2304.0,0.0004035989404655993
2560.0,0.0003671897866297513
2816.0,7.610519242007285e-05
3072.0,-0.00040251357131637633
3328.0,-0.0005666990182362497
3584.0,0.0010019721230491996
3840.0,-0.0009052164969034493
4096.0,-0.0005190831725485623
4608.0,-6.833311636000872e-05
5120.0,-3.438576095504686e-05
5632.0,-0.00048733953735791147
6144.0,-0.00010383066546637565
6656.0,-0.00019580210209824145
7168.0,-0.00023979243997018784
7680.0,-0.000168603437487036
8192.0,-0.0006283505936153233
9216.0,-0.0007003411301411688
10240.0,-0.0004642825515475124
11264.0,-0.00032791902776807547
12288.0,0.0007329933578148484
13312.0,0.0003029236977454275
14336.0,9.800468251341954e-05
end
