version,3.0
numOfCh,1
type,point
parent_name,100-cuts
ch_type,1_1
kcount,1
numberNandB,1
brightnessNandB,1
carpet pos,0
pc,0
Time (ms),CH1 Auto-Correlation
1.0,0.08278416842222214
2.0,0.07602167874574661
3.0,0.07036246359348297
4.0,0.06564050167798996
5.0,0.06142072752118111
6.0,0.05771278217434883
7.0,0.05435812100768089
8.0,0.051436807960271835
9.0,0.048694659024477005
10.0,0.04644903168082237
11.0,0.044175710529088974
12.0,0.04219870641827583
13.0,0.040375206619501114
14.0,0.038756489753723145
15.0,0.03722596541047096
16.0,0.03568108007311821
18.0,0.032919991761446
20.0,0.030341165140271187
22.0,0.02774166874587536
24.0,0.02539261430501938
26.0,0.023909596726298332
28.0,0.02241874299943447
30.0,0.020946405827999115
32.0,0.01965988799929619
36.0,0.01719815842807293
40.0,0.014141670428216457
44.0,0.011656733229756355
48.0,0.010055222548544407
52.0,0.008056927472352982
56.0,0.006826314143836498
60.0,0.005906674079596996
64.0,0.0052703735418617725
72.0,0.0030077192932367325
80.0,0.0006872226949781179
88.0,-0.001025791629217565
96.0,-0.002604183740913868
104.0,-0.004210347309708595
112.0,-0.004234032239764929
120.0,-0.002486339071765542
128.0,-0.0019493598956614733
144.0,-0.00243864837102592
160.0,-0.001729934592731297
176.0,-0.0015101713361218572
192.0,0.0005349254934117198
208.0,0.0002036194782704115
224.0,0.0004820885951630771
240.0,0.002140697790309787
256.0,0.0037742210552096367
288.0,0.004662960302084684
320.0,0.002408380853012204
352.0,0.0005670061218552291
384.0,0.0015669753775000572
416.0,-0.0015412711072713137
448.0,-0.0017578421393409371
480.0,-0.0008883680566214025
512.0,0.002717615570873022
576.0,-0.0002694415161386132
640.0,-0.0008244384662248194
704.0,-0.0024666793178766966
768.0,-0.0016480323392897844
832.0,-0.002040097489953041
896.0,-0.002564158756285906
960.0,0.0034156024921685457
1024.0,0.001983487978577614
1152.0,0.0010490993736311793
1280.0,0.0021374791394919157
1408.0,0.003773807780817151
1536.0,0.0003611288848333061
1664.0,0.0002841105160769075
1792.0,0.0013144981348887086
1920.0,-0.00014245163765735924
2048.0,0.0008850402664393187
2304.0,0.0013713269727304578
2560.0,0.0025765057653188705
2816.0,-0.0009672207524999976
3072.0,0.0004055278841406107
3328.0,-8.45212780404836e-05
3584.0,1.3734181266045198e-05
3840.0,0.0017221003072336316
4096.0,-0.001876459689810872
4608.0,7.366085628746077e-05
5120.0,0.00011700209142873064
5632.0,-0.0014687833609059453
6144.0,-0.0018010680796578526
6656.0,-0.0008429998415522277
7168.0,-0.0012446289183571935
7680.0,-0.0012558639282360673
8192.0,-0.0017832370940595865
9216.0,-0.0006370210903696716
10240.0,-0.0019018779275938869
11264.0,1.793760748114437e-05
12288.0,-0.0005597823765128851
13312.0,-0.00114525540266186
14336.0,0.0008560807909816504
end
