version,3.0
numOfCh,1
type,point
parent_name,100-cuts
ch_type,1_1
kcount,1
numberNandB,1
brightnessNandB,1
carpet pos,0
pc,0
Time (ms),CH1 Auto-Correlation
1.0,0.04182884842157364
2.0,0.03830879181623459
3.0,0.03521862253546715
4.0,0.03261592611670494
5.0,0.030433354899287224
6.0,0.0284573957324028
7.0,0.026750978082418442
8.0,0.025255896151065826
9.0,0.02399097941815853
10.0,0.022856317460536957
11.0,0.02174794115126133
12.0,0.020649438723921776
13.0,0.019682226702570915
14.0,0.01885535567998886
15.0,0.018045298755168915
16.0,0.01724373921751976
18.0,0.015837537124753
20.0,0.014614717103540897
22.0,0.013586838729679585
24.0,0.012700504623353481
26.0,0.011893540620803833
28.0,0.011048078536987305
30.0,0.010421441867947578
32.0,0.009786294773221016
36.0,0.008065500296652317
40.0,0.006901070009917021
44.0,0.0058884029276669025
48.0,0.004854566417634487
52.0,0.004130967892706394
56.0,0.003415364772081375
60.0,0.0027616058941930532
64.0,0.001974958460777998
72.0,0.0010216949740424752
80.0,0.0009782671695575118
88.0,0.00046545409713871777
96.0,0.0005440122331492603
104.0,0.00039936864050105214
112.0,-7.561488018836826e-05
120.0,-0.00019004818750545382
128.0,-0.0003211424336768687
144.0,0.0006665028631687164
160.0,0.0005413955077528954
176.0,0.0003274404152762145
192.0,-8.93330798135139e-05
208.0,-0.0006622669752687216
224.0,-0.00036972196539863944
240.0,0.0005126384785398841
256.0,0.0007009545806795359
288.0,0.0001584280835231766
320.0,-0.0007704987656325102
352.0,-0.00011644991172943264
384.0,-0.0012727421708405018
416.0,-0.001123709254898131
448.0,-0.0012110118987038732
480.0,-0.00018540419114287943
512.0,-0.000606487737968564
576.0,-2.8851030947407708e-05
640.0,-0.00057217973517254
704.0,-5.091491766506806e-05
768.0,-0.002374625764787197
832.0,7.38955131964758e-05
896.0,-0.0010641588596627116
960.0,-0.0006021500448696315
1024.0,4.777953290613368e-05
1152.0,0.0007970924489200115
1280.0,-0.00022419565357267857
1408.0,-0.00012336747022345662
1536.0,-0.0008618728606961668
1664.0,-7.462627399945632e-05
1792.0,0.0012446192558854818
1920.0,0.00041981125832535326
2048.0,-9.59714234340936e-05
2304.0,0.0014785273233428597
2560.0,-0.0009027901105582714
2816.0,9.721642709337175e-05
3072.0,-0.0003265876439400017
3328.0,0.001005626400001347
3584.0,-0.0011578940320760012
3840.0,6.674093310721219e-05
4096.0,-0.00021605653455480933
4608.0,-0.00014926733274478465
5120.0,-0.0001989902084460482
5632.0,0.00022272203932516277
6144.0,-0.0004505272663664073
6656.0,-0.00028066817321814597
7168.0,0.00019311127834953368
7680.0,-0.00028537720208987594
8192.0,-4.490152605285402e-06
9216.0,-0.0007032083231024444
10240.0,-0.0007397686713375151
11264.0,5.846605563419871e-05
12288.0,-0.0005234936834312975
13312.0,0.0014829441206529737
14336.0,0.0005020908429287374
end
