version,3.0
numOfCh,1
type,point
parent_name,100-cuts
ch_type,1_1
kcount,1
numberNandB,1
brightnessNandB,1
carpet pos,0
pc,0
Time (ms),CH1 Auto-Correlation
1.0,0.027133900672197342
2.0,0.02481859177350998
3.0,0.022784419357776642
4.0,0.020975405350327492
5.0,0.019440604373812675
6.0,0.018110550940036774
7.0,0.016918668523430824
8.0,0.015859220176935196
9.0,0.014927523210644722
10.0,0.014056538231670856
11.0,0.013388529419898987
12.0,0.01277224812656641
13.0,0.01213681697845459
14.0,0.011548717506229877
15.0,0.010981977917253971
16.0,0.010476029478013515
18.0,0.00962649006396532
20.0,0.008819987997412682
22.0,0.008117415010929108
24.0,0.007555925752967596
26.0,0.006955288350582123
28.0,0.0062901051715016365
30.0,0.005853343289345503
32.0,0.005463645793497562
36.0,0.004505577962845564
40.0,0.003929695580154657
44.0,0.0035282939206808805
48.0,0.003303198842331767
52.0,0.002950682071968913
56.0,0.002447165083140135
60.0,0.0019785468466579914
64.0,0.0014944099821150303
72.0,0.0010621201945468783
80.0,0.0006906301132403314
88.0,0.0006385162705555558
96.0,0.0004113444301765412
104.0,0.0002780500508379191
112.0,0.00029583123978227377
120.0,1.674408485996537e-05
128.0,-3.6037898098584265e-05
144.0,0.0004059778293594718
160.0,0.0007260349811986089
176.0,0.00010586909047560766
192.0,-0.000378533877665177
208.0,-0.0012055204715579748
224.0,-0.0009705609991215169
240.0,-0.0001484262611484155
256.0,-4.482410804484971e-05
288.0,-0.00041022460209205747
320.0,-0.0005035083740949631
352.0,-0.00020798413606826216
384.0,0.0010309533681720495
416.0,0.0008405762491747737
448.0,0.0005829763831570745
480.0,0.0010518671479076147
512.0,0.0007003655191510916
576.0,0.0010319175198674202
640.0,0.0003080703900195658
704.0,0.00039128566277213395
768.0,-0.00021980423480272293
832.0,0.0007172665209509432
896.0,0.000225020557991229
960.0,-0.0007154823979362845
1024.0,-0.00015141195035539567
1152.0,-2.7518722163222264e-06
1280.0,0.00037533792783506215
1408.0,0.0005097427056171
1536.0,-0.0004645559238269925
1664.0,8.183411409845576e-05
1792.0,-0.0004645248700398952
1920.0,-0.0006295673083513975
2048.0,-1.1920897122763563e-05
2304.0,-0.0002715025038924068
2560.0,0.00020459129882510751
2816.0,-1.36149637910421e-05
3072.0,-0.0005058487295173109
3328.0,4.715013346867636e-05
3584.0,5.082796633359976e-05
3840.0,-0.00036642933264374733
4096.0,-0.0005695082945749164
4608.0,-0.00012069755757693201
5120.0,0.0005317257018759847
5632.0,9.364697325509042e-05
6144.0,-0.00013026583474129438
6656.0,-0.00016391079407185316
7168.0,-0.000128671366837807
7680.0,-0.00026239253929816186
8192.0,0.00035108334850519896
9216.0,2.2926526526134694e-06
10240.0,0.0010631104232743382
11264.0,-0.0009212634759023786
12288.0,-0.001705968170426786
13312.0,-0.0003870840009767562
14336.0,-0.0003502027830109
end
