version,3.0
numOfCh,1
type,point
parent_name,100-cuts
ch_type,1_1
kcount,1
numberNandB,1
brightnessNandB,1
carpet pos,0
pc,0
Time (ms),CH1 Auto-Correlation
1.0,0.04003692418336868
2.0,0.0367901585996151
3.0,0.03411409631371498
4.0,0.031853653490543365
5.0,0.029959313571453094
6.0,0.028252149000763893
7.0,0.026700623333454132
8.0,0.025211695581674576
9.0,0.023894164711236954
10.0,0.02265615575015545
11.0,0.021501390263438225
12.0,0.020516233518719673
13.0,0.019655423238873482
14.0,0.01882786676287651
15.0,0.018031993880867958
16.0,0.01727921888232231
18.0,0.016060039401054382
20.0,0.015094184316694736
22.0,0.01421634666621685
24.0,0.013457531109452248
26.0,0.012568742968142033
28.0,0.011621068231761456
30.0,0.010651561431586742
32.0,0.009895997121930122
36.0,0.008681150153279305
40.0,0.007652561645954847
44.0,0.006841645110398531
48.0,0.006043646950274706
52.0,0.005188931245356798
56.0,0.004555980209261179
60.0,0.004074320197105408
64.0,0.0038510048761963844
72.0,0.003649304388090968
80.0,0.003891012631356716
88.0,0.0036005699075758457
96.0,0.0028875935822725296
104.0,0.002625376218929887
112.0,0.0020560722332447767
120.0,0.0011979553382843733
128.0,0.000887192552909255
144.0,0.0003221009101253003
160.0,-0.00014605191245209426
176.0,-0.00025676231598481536
192.0,4.784688644576818e-05
208.0,0.000153517525177449
224.0,6.563437636941671e-06
240.0,0.00016751632210798562
256.0,-0.0009929367806762457
288.0,-0.0008035923237912357
320.0,-0.0005373383755795658
352.0,0.0001092026723199524
384.0,-0.0006797543610446155
416.0,-9.04899752640631e-06
448.0,-0.0007559244986623526
480.0,2.302986649738159e-05
512.0,0.0011198318097740412
576.0,-0.0019356135744601488
640.0,-0.0011606861371546984
704.0,-0.0009471983066760004
768.0,-0.0002977413823828101
832.0,-0.0012131507974117994
896.0,-0.0019408112857490778
960.0,-0.0016272093635052443
1024.0,-0.0024951028171926737
1152.0,-0.0013497002655640244
1280.0,0.0004195850051473826
1408.0,0.0007803091430105269
1536.0,-0.0007269816705957055
1664.0,0.0017972446512430906
1792.0,0.000929207366425544
1920.0,0.0005715566221624613
2048.0,0.0005942403222434223
2304.0,5.62457280466333e-05
2560.0,-0.0022064410150051117
2816.0,-0.0004491858999244869
3072.0,0.0005903565906919539
3328.0,0.00044635357335209846
3584.0,0.0007723989547230303
3840.0,0.0011279400205239654
4096.0,6.261842645471916e-05
4608.0,-0.00046944859786890447
5120.0,-0.00010287686745868996
5632.0,4.461839853320271e-05
6144.0,-0.0009288301807828248
6656.0,-5.2142058848403394e-05
7168.0,0.0006561109912581742
7680.0,0.00045525276800617576
8192.0,-0.0019698825199157
9216.0,-2.3560023691970855e-05
10240.0,-0.00018645958334673196
11264.0,0.00022030739637557417
12288.0,0.00024087485508061945
13312.0,0.00022554484894499183
14336.0,-0.0008136275573633611
end
