version,3.0
numOfCh,1
type,point
parent_name,100-cuts
ch_type,1_1
kcount,1
numberNandB,1
brightnessNandB,1
carpet pos,0
pc,0
Time (ms),CH1 Auto-Correlation
1.0,0.03152036294341087
2.0,0.029113030061125755
3.0,0.02700037509202957
4.0,0.025077462196350098
5.0,0.02344389632344246
6.0,0.022025566548109055
7.0,0.020778000354766846
8.0,0.01964475028216839
9.0,0.01859254390001297
10.0,0.017615115270018578
11.0,0.016685660928487778
12.0,0.015833888202905655
13.0,0.015046650543808937
14.0,0.014421367086470127
15.0,0.013812926597893238
16.0,0.013257941231131554
18.0,0.012236043810844421
20.0,0.011296871118247509
22.0,0.010528665035963058
24.0,0.009794454090297222
26.0,0.00910349190235138
28.0,0.008451486006379128
30.0,0.008017214015126228
32.0,0.00769171305000782
36.0,0.007063780911266804
40.0,0.006350317969918251
44.0,0.00566553371027112
48.0,0.005103660747408867
52.0,0.004464896861463785
56.0,0.0039182305335998535
60.0,0.0032304164487868547
64.0,0.0024948613718152046
72.0,0.0016825658967718482
80.0,0.0014161739964038134
88.0,0.0010675262892618775
96.0,0.0003720181994140148
104.0,3.3899294066941366e-05
112.0,-0.00024317718634847552
120.0,-0.00013228078023530543
128.0,0.0004770203377120197
144.0,0.0005045660655014217
160.0,0.0010201060213148594
176.0,0.0011328021064400673
192.0,0.0009306574938818812
208.0,0.0007697189575992525
224.0,-0.00014799463679082692
240.0,-0.00038905240944586694
256.0,-0.0009259474463760853
288.0,-0.0007500016363337636
320.0,-0.0005938452086411417
352.0,-0.0004379996098577976
384.0,-0.0005643669283017516
416.0,-0.0006472094100899994
448.0,0.0003207312838640064
480.0,0.00014449383888859302
512.0,-0.0003886129125021398
576.0,-0.0012494302354753017
640.0,-0.0015835657250136137
704.0,-0.0014373656595125794
768.0,-4.933725904265884e-06
832.0,0.0005989538040012121
896.0,0.00022011250257492065
960.0,0.0010981474770233035
1024.0,-0.0011106297606602311
1152.0,-0.0003978730528615415
1280.0,0.000802141148597002
1408.0,0.0012781721306964755
1536.0,0.00011008293949998915
1664.0,0.0013128250138834119
1792.0,0.00016519550990778953
1920.0,-0.0005899123498238623
2048.0,4.861156776314601e-05
2304.0,0.0005370856961235404
2560.0,0.0007393532432615757
2816.0,1.6234276699833572e-05
3072.0,-0.00140389462467283
3328.0,-0.0005105048767291009
3584.0,0.0010807145154103637
3840.0,-0.00025809576618485153
4096.0,0.0002683079510461539
4608.0,0.0008800658979453146
5120.0,-8.419689402217045e-05
5632.0,-0.00091220298781991
6144.0,0.0008137775002978742
6656.0,-0.0014644316397607327
7168.0,0.0005757292965427041
7680.0,-0.0006684161489829421
8192.0,-0.000686752435285598
9216.0,5.522510036826134e-05
10240.0,-0.000265225040493533
11264.0,0.0002620025188662112
12288.0,0.00021797801309730858
13312.0,-0.00013616125215776265
14336.0,0.00012236967450007796
end
