version,3.0
numOfCh,1
type,point
parent_name,100-cuts
ch_type,1_1
kcount,1
numberNandB,1
brightnessNandB,1
carpet pos,0
pc,0
Time (ms),CH1 Auto-Correlation
1.0,0.040206797420978546
2.0,0.03661787509918213
3.0,0.033490199595689774
4.0,0.030801480636000633
5.0,0.028492256999015808
6.0,0.026365656405687332
7.0,0.024480002000927925
8.0,0.022750454023480415
9.0,0.021164512261748314
10.0,0.019757036119699478
11.0,0.0185258612036705
12.0,0.01743394508957863
13.0,0.01639576256275177
14.0,0.015469170175492764
15.0,0.0146830715239048
16.0,0.013886111788451672
18.0,0.01242761965841055
20.0,0.011240070685744286
22.0,0.01020156592130661
24.0,0.009431187063455582
26.0,0.008947712369263172
28.0,0.008442620746791363
30.0,0.008027973584830761
32.0,0.007413947023451328
36.0,0.006300725974142551
40.0,0.004775471519678831
44.0,0.0035640692804008722
48.0,0.003487384645268321
52.0,0.00412015663459897
56.0,0.00461571803316474
60.0,0.004464695695787668
64.0,0.004174338188022375
72.0,0.0037098187021911144
80.0,0.003668803023174405
88.0,0.003723461413756013
96.0,0.003510555485263467
104.0,0.0031230293679982424
112.0,0.002369763795286417
120.0,0.0020403817761689425
128.0,0.0015438045375049114
144.0,0.0009019168210215867
160.0,-0.0011213421821594238
176.0,-0.0013329031644389033
192.0,-0.00022391948732547462
208.0,0.0011446471326053143
224.0,0.0010492700384929776
240.0,5.6112417951226234e-05
256.0,-0.00042793582542799413
288.0,0.0007038581534288824
320.0,0.0011846460402011871
352.0,0.0020295712165534496
384.0,0.0013290676288306713
416.0,0.0014005356933921576
448.0,0.002070141024887562
480.0,0.0019078617915511131
512.0,-0.0003200327046215534
576.0,0.0002048155729426071
640.0,0.0003095075080636889
704.0,-0.0004655742668546736
768.0,-0.0019195061177015305
832.0,-0.0010192203335464
896.0,-0.00025105278473347425
960.0,0.00020579452393576503
1024.0,-0.0001916936889756471
1152.0,0.0001909206621348858
1280.0,0.00018102690228261054
1408.0,-0.00018680536595638841
1536.0,0.0014054699568077922
1664.0,0.00045977282570675015
1792.0,0.00010603749251458794
1920.0,-0.0015059025026857853
2048.0,-0.0001499766658525914
2304.0,-0.00014805696264375
2560.0,-0.0009701978997327387
2816.0,0.0015523459296673536
3072.0,8.528790931450203e-05
3328.0,-0.0006896132254041731
3584.0,-0.0004333582182880491
3840.0,-0.0016711673233658075
4096.0,-0.001249982276931405
4608.0,-0.0013214899227023125
5120.0,-0.0013011574046686292
5632.0,0.0006628041155636311
6144.0,0.00018085946794599295
6656.0,-0.0004137385985814035
7168.0,0.0007013882277533412
7680.0,-3.451528391451575e-05
8192.0,-0.00020712378318421543
9216.0,0.001166507718153298
10240.0,0.00011731662380043417
11264.0,-0.0007374532870016992
12288.0,-0.0007685051532462239
13312.0,-0.002072743372991681
14336.0,0.0007603197009302676
end
