version,3.0
numOfCh,1
type,point
parent_name,100-cuts
ch_type,1_1
kcount,1
numberNandB,1
brightnessNandB,1
carpet pos,0
pc,0
Time (ms),CH1 Auto-Correlation
1.0,0.026860332116484642
2.0,0.024668052792549133
3.0,0.02278246358036995
4.0,0.02117660827934742
5.0,0.019771374762058258
6.0,0.01852787844836712
7.0,0.017454056069254875
8.0,0.016503671184182167
9.0,0.015698488801717758
10.0,0.01490026619285345
11.0,0.014141415245831013
12.0,0.013449333608150482
13.0,0.012820853851735592
14.0,0.012228425592184067
15.0,0.01165744848549366
16.0,0.01114432979375124
18.0,0.010229788720607758
20.0,0.009395178407430649
22.0,0.008667650632560253
24.0,0.00803381111472845
26.0,0.0074137006886303425
28.0,0.006832030601799488
30.0,0.006315262988209724
32.0,0.005845371168106794
36.0,0.005004058126360178
40.0,0.004400092177093029
44.0,0.003965884447097778
48.0,0.00351947289891541
52.0,0.003098859451711178
56.0,0.002717869356274605
60.0,0.002674518385902047
64.0,0.0025423879269510508
72.0,0.0022642912808805704
80.0,0.0021397920791059732
88.0,0.0021760358940809965
96.0,0.0023646787740290165
104.0,0.0018916608532890677
112.0,0.001205933396704495
120.0,0.0006181254284456372
128.0,0.0007671997882425785
144.0,0.0003217311459593475
160.0,1.8957034626509994e-05
176.0,-0.0007903418154455721
192.0,-0.00153553974814713
208.0,-0.0016478142933920026
224.0,-0.0008742111385799944
240.0,-0.0006042810273356736
256.0,-0.00045466411393135786
288.0,-0.0008192547829821706
320.0,-0.0011644542682915926
352.0,-0.0007937144837342203
384.0,-0.0003737654478754848
416.0,-0.0011119147529825568
448.0,-0.0002308792172698304
480.0,0.0008249475504271686
512.0,0.0008512930944561958
576.0,-0.00019559345673769712
640.0,-0.0002331292344024405
704.0,0.0001663037110120058
768.0,0.0003463823813945055
832.0,-0.0002624558110255748
896.0,-0.0004251171776559204
960.0,-0.001765711698681116
1024.0,-0.0008784101228229702
1152.0,0.0008010548772290349
1280.0,0.0006398903205990791
1408.0,-0.001935560256242752
1536.0,-0.00020684089395217597
1664.0,0.0010455969022586942
1792.0,0.0006280396482907236
1920.0,-0.001155749661847949
2048.0,-0.0008536326349712908
2304.0,-0.00032738561276346445
2560.0,-0.0004911271971650422
2816.0,-0.00017691781977191567
3072.0,-0.00017699319869279861
3328.0,0.00011667655780911446
3584.0,-2.4960378141258843e-05
3840.0,9.536074503557757e-05
4096.0,0.0006695356569252908
4608.0,0.00011802842345787212
5120.0,-4.445627564564347e-05
5632.0,-0.00012527279614005238
6144.0,-0.00010445991210872307
6656.0,-0.00016929625417105854
7168.0,0.00012540844909381121
7680.0,0.000169704420841299
8192.0,0.00018075481057167053
9216.0,-0.00026657170383259654
10240.0,-0.000499799323733896
11264.0,-6.084267806727439e-05
12288.0,0.0010403008200228214
13312.0,-4.3665691919159144e-05
14336.0,-0.0003817425458692014
end
