version,3.0
numOfCh,1
type,point
parent_name,100-cuts
ch_type,1_1
kcount,1
numberNandB,1
brightnessNandB,1
carpet pos,0
pc,0
Time (ms),CH1 Auto-Correlation
1.0,0.08738517016172409
2.0,0.07995833456516266
3.0,0.07378677278757095
4.0,0.0684683620929718
5.0,0.06382085382938385
6.0,0.0598345585167408
7.0,0.056277401745319366
8.0,0.05309922248125076
9.0,0.05013195425271988
10.0,0.04742728918790817
11.0,0.04499484598636627
12.0,0.042619992047548294
13.0,0.04023338854312897
14.0,0.03824164345860481
15.0,0.03652080520987511
16.0,0.0347033329308033
18.0,0.03173166513442993
20.0,0.029074808582663536
22.0,0.027063295245170593
24.0,0.02559306100010872
26.0,0.023985709995031357
28.0,0.022167794406414032
30.0,0.020379288122057915
32.0,0.019327104091644287
36.0,0.017735660076141357
40.0,0.016377873718738556
44.0,0.01475828979164362
48.0,0.013049768283963203
52.0,0.012005863711237907
56.0,0.011280483566224575
60.0,0.010383312590420246
64.0,0.009210178628563881
72.0,0.008841359056532383
80.0,0.007947314530611038
88.0,0.007908438332378864
96.0,0.00636166101321578
104.0,0.004650841932743788
112.0,0.00274964259006083
120.0,0.00285546132363379
128.0,0.0040069338865578175
144.0,0.0027101330924779177
160.0,0.0023717868607491255
176.0,-0.0036800119560211897
192.0,-0.005420594476163387
208.0,-0.006503364071249962
224.0,-0.005350800696760416
240.0,-0.005480716470628977
256.0,-0.0037357101682573557
288.0,-0.005401172209531069
320.0,-0.002973108319565654
352.0,-0.002934090094640851
384.0,-0.0017797125037759542
416.0,-0.0017611188814043999
448.0,-0.001036127912811935
480.0,0.00010471096175024286
512.0,-0.0009050827356986701
576.0,-0.001641551498323679
640.0,-0.00019994577451143414
704.0,-0.0005347745609469712
768.0,-0.0041781202889978886
832.0,-0.003715422935783863
896.0,-0.0010474900482222438
960.0,-0.0040436084382236
1024.0,-0.0030645013321191072
1152.0,6.239008507691324e-05
1280.0,-0.00113598071038723
1408.0,0.0012649493291974068
1536.0,0.0033433190546929836
1664.0,0.0002322742366231978
1792.0,-0.002096822950989008
1920.0,0.0005112572107464075
2048.0,0.0008634246769361198
2304.0,0.0014871140010654926
2560.0,-0.0010472550056874752
2816.0,0.002774670021608472
3072.0,-0.0035884843673557043
3328.0,-0.0009415640961378813
3584.0,0.003329178784042597
3840.0,-0.0028350737411528826
4096.0,-0.0019409293308854103
4608.0,0.0013559884391725063
5120.0,0.00019370797963347286
5632.0,-0.0014916113577783108
6144.0,4.898213956039399e-05
6656.0,0.0009632764267735183
7168.0,0.00038259633583948016
7680.0,-2.9021992304478772e-05
8192.0,0.00048161938320845366
9216.0,-0.000525698356796056
10240.0,-0.0006814292864874005
11264.0,0.0004498105263337493
12288.0,-0.0020389347337186337
13312.0,9.24090199987404e-05
14336.0,0.0028785401955246925
end
