version,3.0
numOfCh,1
type,point
parent_name,100-cuts
ch_type,1_1
kcount,1
numberNandB,1
brightnessNandB,1
carpet pos,0
pc,0
Time (ms),CH1 Auto-Correlation
1.0,0.02907581999897957
2.0,0.02674577757716179
3.0,0.024784253910183907
4.0,0.02307087928056717
5.0,0.021507376804947853
6.0,0.020140958949923515
7.0,0.019013281911611557
8.0,0.018067089840769768
9.0,0.017205700278282166
10.0,0.016435811296105385
11.0,0.015808861702680588
12.0,0.015244830399751663
13.0,0.014724869281053543
14.0,0.014227490872144699
15.0,0.013720417395234108
16.0,0.013219401240348816
18.0,0.012242734432220459
20.0,0.011228466406464577
22.0,0.010254956781864166
24.0,0.009421784430742264
26.0,0.008787799626588821
28.0,0.008235865272581577
30.0,0.007746435236185789
32.0,0.007265234366059303
36.0,0.00672599021345377
40.0,0.006318873260170221
44.0,0.005718256812542677
48.0,0.005255769472569227
52.0,0.0048615289852023125
56.0,0.004205305594950914
60.0,0.0037540097255259752
64.0,0.0033510869834572077
72.0,0.0025459276512265205
80.0,0.001853860798291862
88.0,0.0015727169811725616
96.0,0.0016367877833545208
104.0,0.0014638619031757116
112.0,0.0014600497670471668
120.0,0.0008127564215101302
128.0,6.126904918346554e-05
144.0,1.1472210644569714e-05
160.0,0.00015227196854539216
176.0,0.000741919968277216
192.0,0.0010413994314149022
208.0,0.0011110991472378373
224.0,0.0015989423263818026
240.0,0.0014122994616627693
256.0,0.0014282339252531528
288.0,0.0007386240758933127
320.0,-0.0005428665317595005
352.0,6.885643233545125e-05
384.0,0.0012781934347003698
416.0,0.0022462422493845224
448.0,0.0018741803942248225
480.0,0.00047130457824096084
512.0,0.0006179559277370572
576.0,-0.00035568609018810093
640.0,-0.0005318947369232774
704.0,-0.0009122563060373068
768.0,-0.00022205094865057617
832.0,-0.0008620117441751063
896.0,-0.0013696436071768403
960.0,-0.0006661105435341597
1024.0,-0.0009167084353975952
1152.0,0.00011587355402298272
1280.0,-0.0001070247744792141
1408.0,0.00016293153748847544
1536.0,-0.00010397097503300756
1664.0,0.0005114100058563054
1792.0,-0.0003163008368574083
1920.0,-0.0010849816026166081
2048.0,-0.0008715623989701271
2304.0,-0.001345223980024457
2560.0,-0.0005182064487598836
2816.0,-0.0002624691987875849
3072.0,-0.0014541454147547483
3328.0,-8.442859689239413e-05
3584.0,-0.00048749372945167124
3840.0,0.0001920262584462762
4096.0,-0.0004739068972412497
4608.0,0.0007085674442350864
5120.0,0.000900584738701582
5632.0,0.00017165657482109964
6144.0,-5.875780971109634e-06
6656.0,-0.0007711024954915047
7168.0,-0.0008670582319609821
7680.0,-0.0006109166424721479
8192.0,0.0003626266843639314
9216.0,0.0005040584946982563
10240.0,-8.869494922691956e-05
11264.0,-0.0007821177132427692
12288.0,-0.0009475343977101147
13312.0,0.0007587299915030599
14336.0,0.0008239091257564723
end
