version,3.0
numOfCh,1
type,point
parent_name,100-cuts
ch_type,1_1
kcount,1
numberNandB,1
brightnessNandB,1
carpet pos,0
pc,0
Time (ms),CH1 Auto-Correlation
1.0,0.029577046632766724
2.0,0.027399901300668716
3.0,0.025536412373185158
4.0,0.023899976164102554
5.0,0.022467976436018944
6.0,0.021130334585905075
7.0,0.02000270038843155
8.0,0.019064538180828094
9.0,0.018142206594347954
10.0,0.0172977764159441
11.0,0.016582870855927467
12.0,0.015907486900687218
13.0,0.015361645258963108
14.0,0.01482378039509058
15.0,0.014326023869216442
16.0,0.013811590149998665
18.0,0.01279328390955925
20.0,0.011856681667268276
22.0,0.011032212525606155
24.0,0.010150238871574402
26.0,0.009426685981452465
28.0,0.00873850379139185
30.0,0.008069952018558979
32.0,0.00744829373434186
36.0,0.006529505364596844
40.0,0.00573638966307044
44.0,0.004965782165527344
48.0,0.004429936874657869
52.0,0.0040020812302827835
56.0,0.0037444806657731533
60.0,0.0036066656466573477
64.0,0.003372910199686885
72.0,0.002693773712962866
80.0,0.002191568026319146
88.0,0.001783472951501608
96.0,0.0016247753519564867
104.0,0.0015945410123094916
112.0,0.0018526826752349734
120.0,0.0015403068391606212
128.0,0.0011485646246001124
144.0,0.0003645067336037755
160.0,-0.00044623774010688066
176.0,-0.0005479027749970555
192.0,-0.0006307116127572954
208.0,-0.0003673188330139965
224.0,-0.0007489302661269903
240.0,-0.0013952627778053284
256.0,-0.0019014754798263311
288.0,-0.001561925164423883
320.0,-0.0017404953250661492
352.0,-0.0009806588059291244
384.0,-0.0007027180981822312
416.0,-0.0007847996894270182
448.0,-0.0008670971728861332
480.0,-0.0003440894652158022
512.0,-0.00046733891940675676
576.0,-0.0007667057798244059
640.0,-0.0020196340046823025
704.0,-0.001610957900993526
768.0,-0.0011143189622089267
832.0,7.32103626432945e-06
896.0,0.00032031131559051573
960.0,-4.720523793366738e-05
1024.0,-0.00025475677102804184
1152.0,-0.0004307457711547613
1280.0,0.0007508325506933033
1408.0,0.0008185326005332172
1536.0,0.00033399154199287295
1664.0,0.0007252676878124475
1792.0,0.000629593210760504
1920.0,-0.000669364701025188
2048.0,-0.0020379582419991493
2304.0,-0.00011777101462939754
2560.0,-8.02635113359429e-05
2816.0,0.0006651421426795423
3072.0,0.0002880097890738398
3328.0,-0.0010193177731707692
3584.0,0.0002635908604133874
3840.0,-0.0004283718590158969
4096.0,0.00019138198695145547
4608.0,0.001076952088624239
5120.0,-0.0010129351867362857
5632.0,0.0003816133248619735
6144.0,-0.0004700306453742087
6656.0,-0.00011144983000122011
7168.0,0.0007056052563712001
7680.0,-0.0016045948723331094
8192.0,0.0017258533043786883
9216.0,-0.00022612012980971485
10240.0,-0.0003315226349513978
11264.0,0.0007690449128858745
12288.0,-9.470466466154903e-05
13312.0,-0.0010669436305761337
14336.0,0.0008871887112036347
end
