version,3.0
numOfCh,1
type,point
parent_name,100-cuts
ch_type,1_1
kcount,1
numberNandB,1
brightnessNandB,1
carpet pos,0
pc,0
Time (ms),CH1 Auto-Correlation
1.0,0.026416974142193794
2.0,0.0241972878575325
3.0,0.022281672805547714
4.0,0.020576978102326393
5.0,0.01908896490931511
6.0,0.017783205956220627
7.0,0.016606463119387627
8.0,0.015525641851127148
9.0,0.014552044682204723
10.0,0.013706717640161514
11.0,0.01301442552357912
12.0,0.012402866035699844
13.0,0.01182759739458561
14.0,0.011330311186611652
15.0,0.010868140496313572
16.0,0.010445845313370228
18.0,0.009572889655828476
20.0,0.008773216977715492
22.0,0.008111441507935524
24.0,0.007530977949500084
26.0,0.006937979254871607
28.0,0.006409311201423407
30.0,0.00575678376480937
32.0,0.005242000333964825
36.0,0.004376107361167669
40.0,0.0037833251990377903
44.0,0.0033747211564332247
48.0,0.0033597368746995926
52.0,0.0031531034037470818
56.0,0.002698663156479597
60.0,0.002183506265282631
64.0,0.0018569068051874638
72.0,0.0017109072068706155
80.0,0.0014141809660941362
88.0,0.001235053176060319
96.0,0.0011173241073265672
104.0,0.0009603477665223181
112.0,0.001053671701811254
120.0,0.0009895656257867813
128.0,0.0010222282726317644
144.0,0.0003793119394686073
160.0,0.0002860701933968812
176.0,-0.00018090200319420546
192.0,5.081167728349101e-06
208.0,0.0006338751409202814
224.0,0.0005578587879426777
240.0,-9.188041440211236e-05
256.0,-6.992824637563899e-06
288.0,-0.00011438779620220885
320.0,0.0003995485894847661
352.0,0.001055140164680779
384.0,-0.00011058155359933153
416.0,9.924192272592336e-05
448.0,4.697018084698357e-06
480.0,-0.0007212315686047077
512.0,-0.0011880206875503063
576.0,-0.0012824765872210264
640.0,0.0005103825824335217
704.0,-0.0004041081992909312
768.0,-0.0007255841628648341
832.0,-0.0008463252452202141
896.0,-0.0008155924151651561
960.0,0.0002893299388233572
1024.0,-0.0008367164991796017
1152.0,-0.00036703847581520677
1280.0,-0.0008811319130472839
1408.0,-0.0005662924377247691
1536.0,-0.0008173877140507102
1664.0,-2.7985275664832443e-05
1792.0,0.002006162190809846
1920.0,0.0013118128990754485
2048.0,-4.319790969020687e-05
2304.0,-0.001408553565852344
2560.0,-0.0004954314790666103
2816.0,0.00032743517658673227
3072.0,-9.484869951847941e-05
3328.0,-0.000376350712031126
3584.0,0.0017177349654957652
3840.0,0.0009201759239658713
4096.0,-0.0009768781019374728
4608.0,-0.0007359308074228466
5120.0,0.0003773260104935616
5632.0,0.0002620394225232303
6144.0,-0.0007339617004618049
6656.0,0.000320932362228632
7168.0,0.0002848692238330841
7680.0,-0.0005061283009126782
8192.0,0.0003451686934567988
9216.0,6.453086825786158e-05
10240.0,-5.868608786840923e-05
11264.0,-0.00011324802471790463
12288.0,0.00011597684351727366
13312.0,-8.731652633287013e-05
14336.0,4.8812384193297476e-05
end
