version,3.0
numOfCh,1
type,point
parent_name,100-cuts
ch_type,1_1
kcount,1
numberNandB,1
brightnessNandB,1
carpet pos,0
pc,0
Time (ms),CH1 Auto-Correlation
1.0,0.041839197278022766
2.0,0.0385129377245903
3.0,0.0355900339782238
4.0,0.03305421397089958
5.0,0.03087308071553707
6.0,0.028868714347481728
7.0,0.027074221521615982
8.0,0.02547808550298214
9.0,0.02402205765247345
10.0,0.02279352955520153
11.0,0.021693656221032143
12.0,0.020701011642813683
13.0,0.019710084423422813
14.0,0.01874125935137272
15.0,0.017797397449612617
16.0,0.01690005324780941
18.0,0.015359470620751381
20.0,0.013842117972671986
22.0,0.012421206571161747
24.0,0.011195996776223183
26.0,0.010100447572767735
28.0,0.009382887743413448
30.0,0.008838114328682423
32.0,0.008350228890776634
36.0,0.007748998235911131
40.0,0.006982175167649984
44.0,0.006518382113426924
48.0,0.0061582401394844055
52.0,0.00568727869540453
56.0,0.005348468665033579
60.0,0.00494670495390892
64.0,0.004724742379039526
72.0,0.004911265801638365
80.0,0.0043610637076199055
88.0,0.00426666671410203
96.0,0.004281863570213318
104.0,0.004312465898692608
112.0,0.0043471744284033775
120.0,0.003503494430333376
128.0,0.0030101577285677195
144.0,0.0019937704782932997
160.0,0.0025714871007949114
176.0,0.0024372334592044353
192.0,0.001829866785556078
208.0,0.0019850917160511017
224.0,0.0011533008655533195
240.0,0.0007227489259094
256.0,-1.863459328887984e-05
288.0,-0.0008898886735551059
320.0,-0.0010926281102001667
352.0,-0.0004360170860309154
384.0,0.0016142218373715878
416.0,0.0014042980037629604
448.0,0.001627401914447546
480.0,0.0006751206237822771
512.0,0.00014891018508933485
576.0,-0.0003602397337090224
640.0,-0.0009372514323331416
704.0,-0.0010118121281266212
768.0,0.00021298728825058788
832.0,-0.0010545642580837011
896.0,-0.0014113185461610556
960.0,-0.0007845866493880749
1024.0,-0.001404070877470076
1152.0,-0.0013026180677115917
1280.0,-0.0002924210566561669
1408.0,0.0009482392342761159
1536.0,0.001697406405583024
1664.0,0.001498062745667994
1792.0,0.001701247412711382
1920.0,0.001065409742295742
2048.0,-0.0005985175957903266
2304.0,-0.001385814044624567
2560.0,-0.0010396596044301987
2816.0,-0.000727296166587621
3072.0,-0.0006002195295877755
3328.0,0.00031828132341615856
3584.0,0.0004565275739878416
3840.0,-0.0012792119523510337
4096.0,-0.001443100511096418
4608.0,0.0005192973767407238
5120.0,0.00031244635465554893
5632.0,-0.0003243988030590117
6144.0,0.0005037476075813174
6656.0,-0.0004609973693732172
7168.0,0.0005184202454984188
7680.0,0.000840808148495853
8192.0,0.00010714746895246208
9216.0,-0.000859434308949858
10240.0,-0.0020939449314028025
11264.0,-0.0008248722879216075
12288.0,7.752841338515282e-05
13312.0,0.002104621846228838
14336.0,0.0011007789289578795
end
