version,3.0
numOfCh,1
type,point
parent_name,100-cuts
ch_type,1_1
kcount,1
numberNandB,1
brightnessNandB,1
carpet pos,0
pc,0
Time (ms),CH1 Auto-Correlation
1.0,0.08790449053049088
2.0,0.08064378798007965
3.0,0.07422284781932831
4.0,0.0686260387301445
5.0,0.06348694860935211
6.0,0.0588872954249382
7.0,0.05492734909057617
8.0,0.05142773315310478
9.0,0.04835238307714462
10.0,0.045551102608442307
11.0,0.042948149144649506
12.0,0.04050475358963013
13.0,0.038316838443279266
14.0,0.036367934197187424
15.0,0.034664347767829895
16.0,0.03306519240140915
18.0,0.029675524681806564
20.0,0.026877183467149734
22.0,0.024729613214731216
24.0,0.022755807265639305
26.0,0.021159661933779716
28.0,0.01970035769045353
30.0,0.01834658347070217
32.0,0.01708899438381195
36.0,0.015205487608909607
40.0,0.01350798923522234
44.0,0.011663590557873249
48.0,0.010012607090175152
52.0,0.009665429592132568
56.0,0.010263189673423767
60.0,0.010512775741517544
64.0,0.009493577294051647
72.0,0.006625622510910034
80.0,0.005502303130924702
88.0,0.004772860091179609
96.0,0.0022541331127285957
104.0,-0.00017435206973459572
112.0,-0.0004998726071789861
120.0,-0.0007736307452432811
128.0,-0.0021664034575223923
144.0,-0.002946428721770644
160.0,-0.0013146557612344623
176.0,-0.0003515354765113443
192.0,0.000517693639267236
208.0,-0.0009531452669762075
224.0,0.0011444146512076259
240.0,0.0022351285442709923
256.0,-0.00034045439679175615
288.0,-0.001334816450253129
320.0,-0.00044202280696481466
352.0,-0.002123940968886018
384.0,0.0010722277220338583
416.0,-0.00012741584214381874
448.0,0.0024355801288038492
480.0,0.001949186553247273
512.0,-0.0004918695776723325
576.0,0.0006615774473175406
640.0,-0.0012353111524134874
704.0,-0.001237349584698677
768.0,-0.0010997882345691323
832.0,-0.0005000863457098603
896.0,0.0016150284791365266
960.0,0.00529182655736804
1024.0,0.005079924128949642
1152.0,0.0017051297472789884
1280.0,-0.00011288710084045306
1408.0,-0.00044066025293432176
1536.0,-0.0008703461498953402
1664.0,0.0025978796184062958
1792.0,0.0006613383302465081
1920.0,0.0005566684412769973
2048.0,-0.0007815884309820831
2304.0,-0.0009462024318054318
2560.0,-0.001299249823205173
2816.0,0.0002624517655931413
3072.0,-0.0003463182656560093
3328.0,-6.822437717346475e-05
3584.0,-0.00034005907946266234
3840.0,0.0010668355971574783
4096.0,-0.004069076385349035
4608.0,0.0009799384279176593
5120.0,0.00015415053348988295
5632.0,-0.0007899851771071553
6144.0,0.0006018834537826478
6656.0,-0.0012173346476629376
7168.0,-0.002464147750288248
7680.0,-0.0011151358485221863
8192.0,-0.0021136829163879156
9216.0,-0.0011203947942703962
10240.0,0.00031275907531380653
11264.0,0.0003444776521064341
12288.0,0.0012302867835387588
13312.0,-0.000775474589318037
14336.0,0.00016237366071436554
end
