version,3.0
numOfCh,1
type,point
parent_name,100-cuts
ch_type,1_1
kcount,1
numberNandB,1
brightnessNandB,1
carpet pos,0
pc,0
Time (ms),CH1 Auto-Correlation
1.0,0.0379643552005291
2.0,0.03461035341024399
3.0,0.03173162788152695
4.0,0.029314853250980377
5.0,0.027163254097104073
6.0,0.025236288085579872
7.0,0.02345491573214531
8.0,0.02188507467508316
9.0,0.02047048509120941
10.0,0.019177932292222977
11.0,0.018002904951572418
12.0,0.01701107993721962
13.0,0.01619299128651619
14.0,0.015334301628172398
15.0,0.014467025175690651
16.0,0.013716823421418667
18.0,0.012503578327596188
20.0,0.011516760103404522
22.0,0.010643205605447292
24.0,0.009814571589231491
26.0,0.009042900986969471
28.0,0.008197679184377193
30.0,0.0077062249183654785
32.0,0.007408208679407835
36.0,0.006449103821069002
40.0,0.005490097217261791
44.0,0.005118373315781355
48.0,0.004613379016518593
52.0,0.0038799287285655737
56.0,0.003321511670947075
60.0,0.002799918642267585
64.0,0.0023292445112019777
72.0,0.0020784102380275726
80.0,0.0021594662684947252
88.0,0.002183140954002738
96.0,0.0019346008775755763
104.0,0.0023800937924534082
112.0,0.0023019355721771717
120.0,0.0018194118747487664
128.0,0.0008657998405396938
144.0,8.559305570088327e-05
160.0,0.00014065195864532143
176.0,0.0005647412617690861
192.0,-0.0005958004621788859
208.0,-0.0004880627093371004
224.0,0.0004045049718115479
240.0,-0.001450666575692594
256.0,-0.002220494206994772
288.0,-0.0025236601941287518
320.0,-0.0024363379925489426
352.0,-0.0025886772200465202
384.0,-0.00028251882758922875
416.0,-0.0005492125055752695
448.0,0.0002494911022949964
480.0,0.00026630715001374483
512.0,0.00041089393198490143
576.0,-0.00013037568714935333
640.0,-0.0003755469515454024
704.0,7.76425440562889e-05
768.0,0.00011333108705002815
832.0,-0.0009026076877489686
896.0,-0.0002158826100639999
960.0,0.0007574979681521654
1024.0,-0.0009644306846894324
1152.0,-0.0005916513619013131
1280.0,6.131294503575191e-05
1408.0,0.0014574421802535653
1536.0,7.248614565469325e-05
1664.0,4.2505929741309956e-05
1792.0,0.0009584344225004315
1920.0,0.0009479267755523324
2048.0,-0.0009236877085641026
2304.0,0.0008060309919528663
2560.0,-0.001482123276218772
2816.0,-0.00036789325531572104
3072.0,-0.0005196964484639466
3328.0,0.001607525278814137
3584.0,8.981731662061065e-05
3840.0,0.00015996825823094696
4096.0,-0.0004769340739585459
4608.0,-0.0004868338874075562
5120.0,6.908245268277824e-05
5632.0,-0.00019962301303166896
6144.0,-0.0006612234283238649
6656.0,-0.00031353344093076885
7168.0,0.0003943978517781943
7680.0,-0.0006518355221487582
8192.0,-0.0009895353578031063
9216.0,-0.00032783328788354993
10240.0,0.0005122910952195525
11264.0,-0.00012385738955345005
12288.0,0.0003244922263547778
13312.0,-0.0008070453186519444
14336.0,-7.897204341134056e-06
end
