version,3.0
numOfCh,1
type,point
parent_name,100-cuts
ch_type,1_1
kcount,1
numberNandB,1
brightnessNandB,1
carpet pos,0
pc,0
Time (ms),CH1 Auto-Correlation
1.0,0.03820262849330902
2.0,0.03479921445250511
3.0,0.031921256333589554
4.0,0.029385829344391823
5.0,0.027094973251223564
6.0,0.025071974843740463
7.0,0.02327573485672474
8.0,0.02163960225880146
9.0,0.02014198526740074
10.0,0.018823225051164627
11.0,0.01768684759736061
12.0,0.016714133322238922
13.0,0.015712391585111618
14.0,0.014955396763980389
15.0,0.014200652949512005
16.0,0.013626083731651306
18.0,0.012575910426676273
20.0,0.011438628658652306
22.0,0.01051796693354845
24.0,0.009851664304733276
26.0,0.009225166402757168
28.0,0.008714999072253704
30.0,0.008197784423828125
32.0,0.007720600347965956
36.0,0.006920372601598501
40.0,0.005686839111149311
44.0,0.004512586630880833
48.0,0.0038413952570408583
52.0,0.0033348323777318
56.0,0.0029204380698502064
60.0,0.0030198318418115377
64.0,0.002963527338579297
72.0,0.0034235655330121517
80.0,0.003392020706087351
88.0,0.002911775605753064
96.0,0.002881710883229971
104.0,0.0025464342907071114
112.0,0.002044925931841135
120.0,0.0016595445340499282
128.0,0.00173189805354923
144.0,0.001701762666925788
160.0,0.0010623717680573463
176.0,0.00035129045136272907
192.0,-0.0015892224619165063
208.0,-0.002705253893509507
224.0,-0.00296485866419971
240.0,-0.0018958610016852617
256.0,-0.00139897339977324
288.0,-0.0009649684652686119
320.0,-0.0011148012708872557
352.0,0.00030093660461716354
384.0,0.0016484921798110008
416.0,0.0020585586316883564
448.0,0.0026250272057950497
480.0,0.0022531638387590647
512.0,0.0011699782917276025
576.0,0.001241588848643005
640.0,0.0014430704759433866
704.0,0.0009403015719726682
768.0,0.0009667068370617926
832.0,0.0013495363527908921
896.0,0.0003209788992535323
960.0,0.0008191783563233912
1024.0,-0.0005549299530684948
1152.0,0.0015403932193294168
1280.0,-9.606633830117062e-05
1408.0,-0.0005667089717462659
1536.0,0.0003777162346523255
1664.0,0.00047744918265379965
1792.0,0.000263360416283831
1920.0,-3.5854340239893645e-05
2048.0,0.0005781244253739715
2304.0,-0.00015555993013549596
2560.0,0.0001077334163710475
2816.0,-1.712390803731978e-05
3072.0,-0.0006268713623285294
3328.0,-0.001232794369570911
3584.0,-0.0008187704370357096
3840.0,-0.0012952374527230859
4096.0,-0.0014605022734031081
4608.0,-0.00023062103718984872
5120.0,-0.0007995407213456929
5632.0,-0.0008196791168302298
6144.0,-1.7713491615722887e-05
6656.0,0.0002122366859111935
7168.0,8.212562534026802e-05
7680.0,-0.0004089701978955418
8192.0,-0.0008159874123521149
9216.0,0.0002682710182853043
10240.0,0.0005148618947714567
11264.0,0.0006939528975635767
12288.0,-2.9204808015492745e-05
13312.0,-8.062195411184803e-05
14336.0,-0.001483422121964395
end
