version,3.0
numOfCh,1
type,point
parent_name,100-cuts
ch_type,1_1
kcount,1
numberNandB,1
brightnessNandB,1
carpet pos,0
pc,0
Time (ms),CH1 Auto-Correlation
1.0,0.08434993028640747
2.0,0.07739651948213577
3.0,0.07143092155456543
4.0,0.06639137864112854
5.0,0.062049057334661484
6.0,0.05820612981915474
7.0,0.0548393614590168
8.0,0.051638390868902206
9.0,0.04895857349038124
10.0,0.04653886705636978
11.0,0.044393692165613174
12.0,0.04248920828104019
13.0,0.0405886173248291
14.0,0.03886265680193901
15.0,0.03714124485850334
16.0,0.03571780398488045
18.0,0.03291109949350357
20.0,0.030489150434732437
22.0,0.028539203107357025
24.0,0.026982836425304413
26.0,0.025327855721116066
28.0,0.02338181436061859
30.0,0.022046545520424843
32.0,0.021285612136125565
36.0,0.02036798559129238
40.0,0.018976278603076935
44.0,0.017095351591706276
48.0,0.015492991544306278
52.0,0.013942749239504337
56.0,0.012167895212769508
60.0,0.010564763098955154
64.0,0.009337767958641052
72.0,0.006308819632977247
80.0,0.00407782569527626
88.0,0.0020920659881085157
96.0,-0.0008208943763747811
104.0,-0.0018431725911796093
112.0,-0.0022913559805601835
120.0,-0.0037559776101261377
128.0,-0.0042309146374464035
144.0,-0.006414503790438175
160.0,-0.0071926177479326725
176.0,-0.007499487604945898
192.0,-0.007258838973939419
208.0,-0.007024823687970638
224.0,-0.007446208503097296
240.0,-0.0077033559791743755
256.0,-0.006379394792020321
288.0,-0.004594673868268728
320.0,0.0003574684087652713
352.0,0.002128163818269968
384.0,0.00229733157902956
416.0,0.0020502200350165367
448.0,0.0025787244085222483
480.0,0.0030624032951891422
512.0,0.000619406346231699
576.0,0.002112428657710552
640.0,-0.001706225797533989
704.0,-0.0017473063198849559
768.0,-4.7684334276709706e-05
832.0,-0.0009255047189071774
896.0,0.0016395446145907044
960.0,0.003666299395263195
1024.0,0.004126453306525946
1152.0,-0.00028939073672518134
1280.0,0.00038033141754567623
1408.0,8.283524948637933e-05
1536.0,-0.0007407096563838422
1664.0,0.0003229154972359538
1792.0,-0.00043934621498920023
1920.0,-0.0010419267928227782
2048.0,1.5427483958774246e-05
2304.0,0.0010587157448753715
2560.0,0.0016773800598457456
2816.0,0.0026790776755660772
3072.0,-8.882791735231876e-05
3328.0,-0.0007029038388282061
3584.0,0.0013017879100516438
3840.0,0.0011040223762392998
4096.0,-0.002513426123186946
4608.0,-0.0002514799125492573
5120.0,-0.0001779551967047155
5632.0,-0.0001974932965822518
6144.0,0.0017723386408761144
6656.0,-0.0023482334800064564
7168.0,-0.0008667516522109509
7680.0,-0.002991347573697567
8192.0,-0.00015258925850503147
9216.0,7.759387517580763e-05
10240.0,-0.002063093241304159
11264.0,0.0012362508568912745
12288.0,0.0004489063285291195
13312.0,-0.002885622438043356
14336.0,0.0012177505996078253
end
