version,3.0
numOfCh,1
type,point
parent_name,100-cuts
ch_type,1_1
kcount,1
numberNandB,1
brightnessNandB,1
carpet pos,0
pc,0
Time (ms),CH1 Auto-Correlation
1.0,0.08725911378860474
2.0,0.07986214011907578
3.0,0.0734659805893898
4.0,0.06787915527820587
5.0,0.06314226984977722
6.0,0.0589611642062664
7.0,0.05538148805499077
8.0,0.05217420309782028
9.0,0.049275994300842285
10.0,0.04653289541602135
11.0,0.04402803257107735
12.0,0.04159930348396301
13.0,0.03933015093207359
14.0,0.03718571737408638
15.0,0.0353301540017128
16.0,0.033473268151283264
18.0,0.02987012080848217
20.0,0.02700604684650898
22.0,0.02476627007126808
24.0,0.022809486836194992
26.0,0.021349187940359116
28.0,0.020195266231894493
30.0,0.019270675256848335
32.0,0.018452823162078857
36.0,0.016146643087267876
40.0,0.014173880219459534
44.0,0.012966622598469257
48.0,0.012807410210371017
52.0,0.01289894338697195
56.0,0.013234098441898823
60.0,0.012768718414008617
64.0,0.011833255179226398
72.0,0.009544349275529385
80.0,0.007220964878797531
88.0,0.0058431969955563545
96.0,0.005530076567083597
104.0,0.003683671588078141
112.0,0.002439729170873761
120.0,0.003021356649696827
128.0,0.00217626360245049
144.0,0.0023296710569411516
160.0,0.0036278984043747187
176.0,0.005110469646751881
192.0,0.004769156686961651
208.0,0.003679129062220454
224.0,0.004051021300256252
240.0,0.003458853578194976
256.0,0.0011634049005806446
288.0,0.00032183367875404656
320.0,-0.0016428842209279537
352.0,-0.0022397188004106283
384.0,-0.00021347893925849348
416.0,-0.00011859238293254748
448.0,0.0027781440876424313
480.0,0.002806195756420493
512.0,0.0010430162074044347
576.0,0.0004333519609645009
640.0,0.0011787699768319726
704.0,-0.0002400936937192455
768.0,0.001335211331024766
832.0,-3.551722693373449e-05
896.0,-0.0033503333106637
960.0,-0.0017995855305343866
1024.0,0.001787807559594512
1152.0,0.001145538641139865
1280.0,-0.0028035591822117567
1408.0,0.0016002168413251638
1536.0,0.004754275549203157
1664.0,0.0010726677719503641
1792.0,0.002760876901447773
1920.0,-0.004812469240278006
2048.0,0.00040110090048983693
2304.0,0.0012904842151328921
2560.0,0.0021694479510188103
2816.0,-0.0015778830274939537
3072.0,0.0011721341870725155
3328.0,-0.0010427546221762896
3584.0,-0.004186088219285011
3840.0,0.0012317175278440118
4096.0,0.0018381894333288074
4608.0,0.00222674454562366
5120.0,-0.0034203126560896635
5632.0,0.00036592569085769355
6144.0,-0.0013129832223057747
6656.0,-0.00017754935834091157
7168.0,-0.0007492505828849971
7680.0,-0.001730001182295382
8192.0,-0.0014124836307018995
9216.0,-0.001549383858218789
10240.0,-0.0030065374448895454
11264.0,-0.002315388759598136
12288.0,-0.0007237435202114284
13312.0,0.0020202952437102795
14336.0,0.0027335218619555235
end
