version,3.0
numOfCh,1
type,point
parent_name,100-cuts
ch_type,1_1
kcount,1
numberNandB,1
brightnessNandB,1
carpet pos,0
pc,0
Time (ms),CH1 Auto-Correlation
1.0,0.02724345400929451
2.0,0.024837998673319817
3.0,0.02282048761844635
4.0,0.021043047308921814
5.0,0.019445793703198433
6.0,0.018019845709204674
7.0,0.0167677141726017
8.0,0.015616962686181068
9.0,0.014609095640480518
10.0,0.013699207454919815
11.0,0.012840348295867443
12.0,0.0120144784450531
13.0,0.011233177967369556
14.0,0.010528522543609142
15.0,0.009921073913574219
16.0,0.00940227136015892
18.0,0.008478041738271713
20.0,0.00769179780036211
22.0,0.007016757503151894
24.0,0.006459995172917843
26.0,0.005943496245890856
28.0,0.005517459474503994
30.0,0.005250167101621628
32.0,0.0050066448748111725
36.0,0.004418307449668646
40.0,0.003764634020626545
44.0,0.0033220285549759865
48.0,0.0028899910394102335
52.0,0.0026134876534342766
56.0,0.0021217784378677607
60.0,0.0016103819943964481
64.0,0.001315438887104392
72.0,0.0010445569641888142
80.0,0.0012223474914208055
88.0,0.001082611153833568
96.0,0.001021611038595438
104.0,0.0008485792204737663
112.0,0.00023941684048622847
120.0,-0.0003068969235755503
128.0,3.6565354093909264e-05
144.0,-6.78487413097173e-05
160.0,0.000407385581638664
176.0,0.0007223029970191419
192.0,4.4039348722435534e-05
208.0,-0.0007153550977818668
224.0,-0.00046024282346479595
240.0,-0.00029788509709760547
256.0,-0.000404459162382409
288.0,-0.0012954757548868656
320.0,-0.0004099976795259863
352.0,2.268718890263699e-05
384.0,-0.00028815996483899653
416.0,0.0013085621176287532
448.0,0.0015778533415868878
480.0,-7.344967889366671e-05
512.0,0.00045569660142064095
576.0,0.0005649490631185472
640.0,0.000624845561105758
704.0,-0.0007037308532744646
768.0,0.0005179459694772959
832.0,-0.0007020346238277853
896.0,-0.0009144598734565079
960.0,-0.00012522177712526172
1024.0,7.01059470884502e-05
1152.0,2.268748175993096e-05
1280.0,-0.0013547774869948626
1408.0,-0.0013615977950394154
1536.0,-0.00030792615143582225
1664.0,-0.0004897654289379716
1792.0,-0.00010767995991045609
1920.0,0.0011729899561032653
2048.0,-0.0006697573699057102
2304.0,-0.0005401794333010912
2560.0,0.0008457108633592725
2816.0,-0.0011607313062995672
3072.0,0.0001876602036645636
3328.0,-6.010371180309448e-06
3584.0,0.00040554729639552534
3840.0,-0.00010502889927010983
4096.0,0.0012317993678152561
4608.0,0.00024451559875160456
5120.0,-5.5797729146433994e-05
5632.0,-0.0005325169768184423
6144.0,-0.00085443165153265
6656.0,0.00013263251457829028
7168.0,-0.0004770816885866225
7680.0,0.0008406307315453887
8192.0,0.00037415738916024566
9216.0,-8.478116797050461e-05
10240.0,-0.0005576125695370138
11264.0,0.00023066559515427798
12288.0,0.0007280572899617255
13312.0,-0.0011184245813637972
14336.0,0.00038939862861298025
end
