version,3.0
numOfCh,1
type,point
parent_name,100-cuts
ch_type,1_1
kcount,1
numberNandB,1
brightnessNandB,1
carpet pos,0
pc,0
Time (ms),CH1 Auto-Correlation
1.0,0.037626802921295166
2.0,0.03423716500401497
3.0,0.031286899000406265
4.0,0.028755933046340942
5.0,0.026573916897177696
6.0,0.024725956842303276
7.0,0.023049162700772285
8.0,0.021550370380282402
9.0,0.020107625052332878
10.0,0.01879367232322693
11.0,0.01758650876581669
12.0,0.016526905819773674
13.0,0.015615565702319145
14.0,0.014849810861051083
15.0,0.014089643023908138
16.0,0.013425112701952457
18.0,0.012046539224684238
20.0,0.011054127477109432
22.0,0.010357685387134552
24.0,0.009758506901562214
26.0,0.009168662130832672
28.0,0.008578387089073658
30.0,0.007923190481960773
32.0,0.007221024017781019
36.0,0.00629773736000061
40.0,0.005753647536039352
44.0,0.005575117655098438
48.0,0.005268097389489412
52.0,0.004821142181754112
56.0,0.004137327894568443
60.0,0.0032631345093250275
64.0,0.002540734363719821
72.0,0.0017217042623087764
80.0,0.001136039150878787
88.0,0.0007720221765339375
96.0,0.0010411707917228341
104.0,0.0011140143033117056
112.0,0.0014489296590909362
120.0,0.001283109886571765
128.0,0.0011011466849595308
144.0,8.979217091109604e-05
160.0,-0.0010285397293046117
176.0,-0.0002885462890844792
192.0,5.459792009787634e-05
208.0,0.0008505235891789198
224.0,0.0011358493939042091
240.0,0.000388714368455112
256.0,-0.0007639717077836394
288.0,-0.0020867062266916037
320.0,-0.000519026885740459
352.0,0.0009331768960691988
384.0,0.0015807726886123419
416.0,0.00026941552641801536
448.0,0.0011665700003504753
480.0,-0.0006641317158937454
512.0,-0.0005464749410748482
576.0,-0.0009962263284251094
640.0,-0.003300985088571906
704.0,-0.0024086209014058113
768.0,-0.001355313346721232
832.0,-0.0012919390574097633
896.0,-0.0006607365212403238
960.0,0.00014017915236763656
1024.0,0.001036054571159184
1152.0,-0.00015673847519792616
1280.0,-0.0009395419619977474
1408.0,0.0002782932133413851
1536.0,0.00032049245783127844
1664.0,0.00023496108769904822
1792.0,-7.984680451045278e-06
1920.0,0.0010197896044701338
2048.0,0.0009845162276178598
2304.0,0.0001699550630291924
2560.0,-0.0016865860670804977
2816.0,2.0026294805575162e-05
3072.0,-0.0002595499681774527
3328.0,0.0007755046244710684
3584.0,1.9575110854930244e-05
3840.0,0.000162765514687635
4096.0,0.00010621890396578237
4608.0,-0.0008597598061896861
5120.0,0.0005487637245096266
5632.0,-0.00016831634275149554
6144.0,-0.00026579637778922915
6656.0,6.889522046549246e-05
7168.0,0.0005518108955584466
7680.0,0.00014076923253014684
8192.0,-0.0007233112119138241
9216.0,-4.391413676785305e-05
10240.0,8.03847869974561e-05
11264.0,8.341272769030184e-05
12288.0,-0.000376008014427498
13312.0,0.00030838450766168535
14336.0,0.00018184431246481836
end
