version,3.0
numOfCh,1
type,point
parent_name,100-cuts
ch_type,1_1
kcount,1
numberNandB,1
brightnessNandB,1
carpet pos,0
pc,0
Time (ms),CH1 Auto-Correlation
1.0,0.02812746725976467
2.0,0.02589062973856926
3.0,0.02396048605442047
4.0,0.0223349928855896
5.0,0.020943382754921913
6.0,0.01974302902817726
7.0,0.018664129078388214
8.0,0.017689518630504608
9.0,0.01686076447367668
10.0,0.016132792457938194
11.0,0.01547839306294918
12.0,0.014851468615233898
13.0,0.014297847636044025
14.0,0.013696059584617615
15.0,0.013150240294635296
16.0,0.012674431316554546
18.0,0.01183254737406969
20.0,0.010961211286485195
22.0,0.010192916728556156
24.0,0.009521042928099632
26.0,0.009008640423417091
28.0,0.00853319838643074
30.0,0.008148984983563423
32.0,0.007645329926162958
36.0,0.006723852828145027
40.0,0.005882742814719677
44.0,0.005240278784185648
48.0,0.0047274259850382805
52.0,0.004087806213647127
56.0,0.0032760207541286945
60.0,0.0026511820033192635
64.0,0.0019793142564594746
72.0,0.0006539763999171555
80.0,7.586984429508448e-05
88.0,-0.00027318624779582024
96.0,-0.00025272497441619635
104.0,-0.00040364492451772094
112.0,-0.00021551312238443643
120.0,-9.665817924542353e-05
128.0,3.993905920651741e-05
144.0,0.00043035027920268476
160.0,0.0007549297297373414
176.0,0.0016330305952578783
192.0,0.0012292603496462107
208.0,0.0004233251966070384
224.0,0.0006558671011589468
240.0,0.0003193167212884873
256.0,-0.000611750059761107
288.0,-0.00036940386053174734
320.0,0.0003163821529597044
352.0,0.0004328899085521698
384.0,0.0004025180242024362
416.0,0.0006088466034270823
448.0,0.001112288678996265
480.0,0.0006937707657925785
512.0,-0.0007820476312190294
576.0,-0.001277793082408607
640.0,-0.001340686110779643
704.0,-0.0006984636420384049
768.0,0.0008082176209427416
832.0,-0.0003935981076210737
896.0,-0.0006237323395907879
960.0,0.0005595128750428557
1024.0,0.0008075514924712479
1152.0,-0.0004439160111360252
1280.0,-0.000900363374967128
1408.0,-0.000798936584033072
1536.0,-0.0014910307945683599
1664.0,-0.001307545113377273
1792.0,-0.0005261976621113718
1920.0,0.0006231258739717305
2048.0,-0.0008069382165558636
2304.0,-0.0002619899751152843
2560.0,-0.0012564091011881828
2816.0,-0.00021192112762946635
3072.0,0.0011286449152976274
3328.0,0.0005897488445043564
3584.0,0.0004206786979921162
3840.0,0.0001243897422682494
4096.0,0.001020581228658557
4608.0,-0.0003593911824282259
5120.0,-0.0005691387341357768
5632.0,-0.00037755092489533126
6144.0,-0.000352580682374537
6656.0,0.0006089789094403386
7168.0,0.00025490138796158135
7680.0,0.001205461099743843
8192.0,-0.00018517469288781285
9216.0,-0.0010487301042303443
10240.0,0.0005817913915961981
11264.0,0.0009233906748704612
12288.0,-0.0015201850328594446
13312.0,0.00012706838606391102
14336.0,0.0016799597069621086
end
