version,3.0
numOfCh,1
type,point
parent_name,100-cuts
ch_type,1_1
kcount,1
numberNandB,1
brightnessNandB,1
carpet pos,0
pc,0
Time (ms),CH1 Auto-Correlation
1.0,0.02843441255390644
2.0,0.026163766160607338
3.0,0.024196313694119453
4.0,0.022459188476204872
5.0,0.020876256749033928
6.0,0.01952069066464901
7.0,0.01831272430717945
8.0,0.017213808372616768
9.0,0.01620829477906227
10.0,0.015285645611584187
11.0,0.014469858258962631
12.0,0.013697551563382149
13.0,0.012980321422219276
14.0,0.012335558421909809
15.0,0.011740007437765598
16.0,0.011187364347279072
18.0,0.010168712586164474
20.0,0.009230650030076504
22.0,0.008453123271465302
24.0,0.00771759869530797
26.0,0.007006889674812555
28.0,0.006498523056507111
30.0,0.00614079087972641
32.0,0.005936360917985439
36.0,0.005489376839250326
40.0,0.00494215777143836
44.0,0.004336657002568245
48.0,0.004033444449305534
52.0,0.0036520222201943398
56.0,0.0031624885741621256
60.0,0.0025970768183469772
64.0,0.0023083665873855352
72.0,0.0020084709394723177
80.0,0.0019897310994565487
88.0,0.0021660879720002413
96.0,0.001892777974717319
104.0,0.001530944835394621
112.0,0.0012365053407847881
120.0,0.001315511530265212
128.0,0.0016169383889064193
144.0,0.001787184039130807
160.0,0.0024142093025147915
176.0,0.0026829829439520836
192.0,0.0022043499629944563
208.0,0.001384081318974495
224.0,0.0006279748631641269
240.0,0.000544793379958719
256.0,0.0008088537724688649
288.0,0.000160177267389372
320.0,0.0016319106798619032
352.0,0.0011638550786301494
384.0,0.0008878570515662432
416.0,0.0010373760014772415
448.0,0.00016134569887071848
480.0,0.0005133181693963706
512.0,0.00010457295138621703
576.0,-0.0010443992214277387
640.0,-0.0007722589652985334
704.0,-0.0011795610189437866
768.0,-0.0013239982072263956
832.0,-0.0006479985895566642
896.0,-0.0012684945249930024
960.0,-0.0011636969866231084
1024.0,-7.434471626766026e-05
1152.0,-7.72206622059457e-05
1280.0,0.001205620588734746
1408.0,0.00139545404817909
1536.0,0.0012529093073680997
1664.0,0.0010796559508889914
1792.0,0.00045640207827091217
1920.0,0.00044462463119998574
2048.0,5.1707545935641974e-05
2304.0,-0.0011540463892742991
2560.0,-0.0007685603923164308
2816.0,0.00011959273251704872
3072.0,0.000881709682289511
3328.0,0.0013114040484651923
3584.0,-0.00013011370901949704
3840.0,-0.0005029515596106648
4096.0,0.00011315281153656542
4608.0,0.0004918746999464929
5120.0,-0.0005393496830947697
5632.0,-0.0010280332062393427
6144.0,-0.00042948496411554515
6656.0,-0.0002248015662189573
7168.0,-0.0008564675226807594
7680.0,4.0699393139220774e-05
8192.0,2.8377862690831535e-05
9216.0,-0.0005991421057842672
10240.0,-0.00038286714698188007
11264.0,-0.00018816158990375698
12288.0,0.001011696527712047
13312.0,-0.00013093669258523732
14336.0,-0.0003743292763829231
end
