version,3.0
numOfCh,1
type,point
parent_name,100-cuts
ch_type,1_1
kcount,1
numberNandB,1
brightnessNandB,1
carpet pos,0
pc,0
Time (ms),CH1 Auto-Correlation
1.0,0.028843935579061508
2.0,0.02661842666566372
3.0,0.024664252996444702
4.0,0.02297181263566017
5.0,0.021487407386302948
6.0,0.020123662427067757
7.0,0.018903404474258423
8.0,0.017826538532972336
9.0,0.016829391941428185
10.0,0.015871157869696617
11.0,0.015024229884147644
12.0,0.014301864430308342
13.0,0.013583492487668991
14.0,0.012915919534862041
15.0,0.012253623455762863
16.0,0.011658388189971447
18.0,0.010729515925049782
20.0,0.009861605241894722
22.0,0.009020010009407997
24.0,0.00833981391042471
26.0,0.007714405190199614
28.0,0.007156464271247387
30.0,0.00662240432575345
32.0,0.006179094780236483
36.0,0.005395787302404642
40.0,0.004708639811724424
44.0,0.004255365580320358
48.0,0.0039868601597845554
52.0,0.003666686825454235
56.0,0.0031606247648596764
60.0,0.002553454600274563
64.0,0.001901490380987525
72.0,0.0008830599253997207
80.0,0.0005858967779204249
88.0,0.0010641481494531035
96.0,0.0018884140299633145
104.0,0.0021680735517293215
112.0,0.002194613218307495
120.0,0.00199323077686131
128.0,0.0011540541891008615
144.0,0.0006740082753822207
160.0,0.0006395046366378665
176.0,-0.0004142934922128916
192.0,-4.091395021532662e-05
208.0,0.0005897338269278407
224.0,0.0004092694434802979
240.0,-0.0007166718132793903
256.0,-0.000739067152608186
288.0,-0.001386623247526586
320.0,-0.0009749168530106544
352.0,-0.0003336318186484277
384.0,2.6900657758233137e-05
416.0,0.00019175982743036002
448.0,0.0007428465760312974
480.0,0.0007890951819717884
512.0,0.001431817188858986
576.0,0.0013573897304013371
640.0,0.0009635825408622622
704.0,7.325359911192209e-05
768.0,-0.00011738658213289455
832.0,-0.0011552008800208569
896.0,-0.0010379203595221043
960.0,-0.0004712269001174718
1024.0,-0.0010577464709058404
1152.0,-0.00031063699861988425
1280.0,0.00023854926985222846
1408.0,-0.0007670301711186767
1536.0,-0.0020576752722263336
1664.0,-0.00038686799234710634
1792.0,0.000751045998185873
1920.0,-0.00017838279018178582
2048.0,-0.0007006952073425055
2304.0,-0.00027739431243389845
2560.0,9.59531098487787e-05
2816.0,-0.0003764241992030293
3072.0,0.0009019557037390769
3328.0,-0.0008775836904533207
3584.0,0.00029985798755660653
3840.0,-0.00038767221849411726
4096.0,-0.00020194079843349755
4608.0,0.0005954995867796242
5120.0,0.00025940246996469796
5632.0,-0.0001561106473673135
6144.0,-0.0001796787400962785
6656.0,-0.0006536061991937459
7168.0,-0.0006508200895041227
7680.0,-0.00046958494931459427
8192.0,-0.0006535023567266762
9216.0,0.0007909315754659474
10240.0,-0.00038061680970713496
11264.0,0.0003187833062838763
12288.0,-0.00028429177473299205
13312.0,-0.000445461249910295
14336.0,0.00095290009630844
end
