version,3.0
numOfCh,1
type,point
parent_name,100-cuts
ch_type,1_1
kcount,1
numberNandB,1
brightnessNandB,1
carpet pos,0
pc,0
Time (ms),CH1 Auto-Correlation
1.0,0.040995318442583084
2.0,0.03755743056535721
3.0,0.03456687554717064
4.0,0.032038554549217224
5.0,0.02969970926642418
6.0,0.02755768597126007
7.0,0.025844082236289978
8.0,0.024283992126584053
9.0,0.0229127649217844
10.0,0.02160685509443283
11.0,0.020360112190246582
12.0,0.01920238696038723
13.0,0.018073447048664093
14.0,0.01712099276483059
15.0,0.01627209410071373
16.0,0.015447290614247322
18.0,0.014118374325335026
20.0,0.013064701110124588
22.0,0.011995358392596245
24.0,0.01093696802854538
26.0,0.010110748931765556
28.0,0.009381311014294624
30.0,0.008601379580795765
32.0,0.00782120879739523
36.0,0.006740101147443056
40.0,0.00587966525927186
44.0,0.005357691086828709
48.0,0.004692149814218283
52.0,0.004193262197077274
56.0,0.0037625182885676622
60.0,0.0031319132540374994
64.0,0.0027754798065871
72.0,0.0029235060792416334
80.0,0.0027241946663707495
88.0,0.0030797403305768967
96.0,0.0023548004683107138
104.0,0.00111863249912858
112.0,0.00031717438832856715
120.0,-0.00037172643351368606
128.0,-0.0010887295939028263
144.0,-0.0012712416937574744
160.0,-0.0017790811834856868
176.0,-0.0019512190483510494
192.0,-0.0018543145852163434
208.0,-0.0023012759629637003
224.0,-0.002837018808349967
240.0,-0.003353759180754423
256.0,-0.0032509949523955584
288.0,-0.00213944585993886
320.0,-0.000572571181692183
352.0,4.2432828195160255e-05
384.0,-6.097899313317612e-05
416.0,0.0006724474369548261
448.0,0.0013752311933785677
480.0,-2.0763700376846828e-05
512.0,-0.0012856327230110765
576.0,-0.001153341494500637
640.0,-0.00104776571970433
704.0,-0.0009801413398236036
768.0,-0.0006560626206919551
832.0,0.00031785538885742426
896.0,0.0003431036602705717
960.0,-0.00039462922723032534
1024.0,-0.0003605322272051126
1152.0,-2.9663456189155113e-06
1280.0,0.001125449314713478
1408.0,-0.00010000026668421924
1536.0,-0.0016942457295954227
1664.0,0.001394238555803895
1792.0,-0.00040015834383666515
1920.0,-0.00089378742268309
2048.0,0.0010154329938814044
2304.0,-0.001143110217526555
2560.0,0.0002605566696729511
2816.0,0.0004706143809016794
3072.0,0.00022345856996253133
3328.0,0.0005736181046813726
3584.0,0.0002683607453946024
3840.0,-0.000545781513210386
4096.0,-0.0004778812872245908
4608.0,0.0001531618181616068
5120.0,-0.00014831717999186367
5632.0,-0.00015096452261786908
6144.0,0.00011414640175644308
6656.0,-0.00034637723001651466
7168.0,0.00019287373288534582
7680.0,0.0002927588648162782
8192.0,-0.00011711327533703297
9216.0,-3.892832319252193e-05
10240.0,-0.0004395082942210138
11264.0,0.00012356971274130046
12288.0,-0.00021571350225713104
13312.0,-0.0003349481266923249
14336.0,0.000294213998131454
end
