version,3.0
numOfCh,1
type,point
parent_name,100-cuts
ch_type,1_1
kcount,1
numberNandB,1
brightnessNandB,1
carpet pos,0
pc,0
Time (ms),CH1 Auto-Correlation
1.0,0.0900939330458641
2.0,0.08308830857276917
3.0,0.07709761708974838
4.0,0.07170535624027252
5.0,0.06710115820169449
6.0,0.06321518123149872
7.0,0.059736043214797974
8.0,0.056518588215112686
9.0,0.0535537488758564
10.0,0.050789736211299896
11.0,0.04818326607346535
12.0,0.04585476964712143
13.0,0.043802596628665924
14.0,0.04183242470026016
15.0,0.03996822237968445
16.0,0.03827235475182533
18.0,0.034946464002132416
20.0,0.03184062987565994
22.0,0.029120715335011482
24.0,0.026872629299759865
26.0,0.02477237954735756
28.0,0.023098047822713852
30.0,0.02179384045302868
32.0,0.020587215200066566
36.0,0.01879613660275936
40.0,0.016855841502547264
44.0,0.015194013714790344
48.0,0.013017049059271812
52.0,0.011060630902647972
56.0,0.009207066148519516
60.0,0.007689900696277618
64.0,0.006723981816321611
72.0,0.005978614557534456
80.0,0.004874922800809145
88.0,0.0030584472697228193
96.0,0.0008068690658546984
104.0,0.0003711152821779251
112.0,0.0008802090887911618
120.0,0.0011271852999925613
128.0,0.0011277550365775824
144.0,0.0008733321446925402
160.0,0.0007691375212743878
176.0,-0.0005775991594418883
192.0,-0.0037031040992587805
208.0,-0.005364938173443079
224.0,-0.006058313883841038
240.0,-0.00435926578938961
256.0,-0.004025261849164963
288.0,-0.0024616785813122988
320.0,0.0017911475151777267
352.0,0.002037608763203025
384.0,0.0016126463888213038
416.0,0.0031815646216273308
448.0,0.0018789505120366812
480.0,0.0026822455693036318
512.0,0.0015098899602890015
576.0,4.841959162149578e-05
640.0,-0.002023015869781375
704.0,-0.004107049200683832
768.0,-0.0021069450303912163
832.0,0.0017718116287142038
896.0,0.002538123866543174
960.0,-0.0007395833381451666
1024.0,-0.00014712293341290206
1152.0,0.002201300347223878
1280.0,3.204242966603488e-05
1408.0,-0.0007426420925185084
1536.0,0.005594696383923292
1664.0,-0.0012955892598256469
1792.0,0.00033963535679504275
1920.0,0.0015496717533096671
2048.0,-0.0009021387668326497
2304.0,-0.0030642373021692038
2560.0,-0.0010539079084992409
2816.0,-0.000741375784855336
3072.0,0.0004548814322333783
3328.0,0.0010988758876919746
3584.0,-0.0037392056547105312
3840.0,-0.0031316454987972975
4096.0,-0.0010345657356083393
4608.0,-0.0019657216034829617
5120.0,-0.00017886931891553104
5632.0,4.661289040086558e-06
6144.0,0.0001509254943812266
6656.0,0.00015663854719605297
7168.0,0.0017362299840897322
7680.0,0.0015809087781235576
8192.0,-0.0002667376829776913
9216.0,1.393398179061478e-05
10240.0,-0.0006747341249138117
11264.0,-0.00030741418595425785
12288.0,0.00027965905610471964
13312.0,0.00025920994812622666
14336.0,-0.0005005948478356004
end
