version,3.0
numOfCh,1
type,point
parent_name,100-cuts
ch_type,1_1
kcount,1
numberNandB,1
brightnessNandB,1
carpet pos,0
pc,0
Time (ms),CH1 Auto-Correlation
1.0,0.043007660657167435
2.0,0.03977681323885918
3.0,0.03705122694373131
4.0,0.034647099673748016
5.0,0.03249472379684448
6.0,0.030627790838479996
7.0,0.029041269794106483
8.0,0.027680208906531334
9.0,0.02638561837375164
10.0,0.025217605754733086
11.0,0.024086307734251022
12.0,0.02297600731253624
13.0,0.022043760865926743
14.0,0.02116507850587368
15.0,0.020394643768668175
16.0,0.019588440656661987
18.0,0.018160080537199974
20.0,0.01685577817261219
22.0,0.01557066384702921
24.0,0.014536196365952492
26.0,0.013812778517603874
28.0,0.013075945898890495
30.0,0.012417246587574482
32.0,0.011825268156826496
36.0,0.010953908786177635
40.0,0.009930955246090889
44.0,0.008961157873272896
48.0,0.008096153847873211
52.0,0.007292222231626511
56.0,0.006333015393465757
60.0,0.005549662746489048
64.0,0.004970664158463478
72.0,0.003957537934184074
80.0,0.0033525468315929174
88.0,0.0035943740513175726
96.0,0.0031819071155041456
104.0,0.0021622588392347097
112.0,0.0017963843420147896
120.0,0.0015391085762530565
128.0,0.001327948528341949
144.0,0.0015645637176930904
160.0,0.0020945058204233646
176.0,0.0015743456315249205
192.0,0.0013095992617309093
208.0,0.0012570640537887812
224.0,0.001025678589940071
240.0,0.0011503973510116339
256.0,0.0022638309746980667
288.0,0.0017127045430243015
320.0,-0.00013212750491220504
352.0,-0.0026688026264309883
384.0,-0.00122876709792763
416.0,0.0005147306364960968
448.0,0.0016741846920922399
480.0,0.001538586220704019
512.0,-0.0004265881434548646
576.0,0.0004026686947327107
640.0,-0.0008474857895635068
704.0,0.00015164274373091757
768.0,-0.0015256357146427035
832.0,-0.0015300327213481069
896.0,-0.0005003440310247242
960.0,0.0006481147138401866
1024.0,0.001859213225543499
1152.0,0.0019859145395457745
1280.0,-6.840500282123685e-05
1408.0,-0.0002451193577144295
1536.0,0.00023006748233456165
1664.0,5.92666219745297e-05
1792.0,-0.0012542437762022018
1920.0,-0.0013760473811998963
2048.0,0.0012331552570685744
2304.0,0.0016774274408817291
2560.0,-0.00076064228778705
2816.0,-0.0014578497502952814
3072.0,-0.0013700560666620731
3328.0,0.0018043285235762596
3584.0,0.0010692642536014318
3840.0,-0.0018850951455533504
4096.0,-0.0026230441872030497
4608.0,-0.0014069376047700644
5120.0,0.00010041758650913835
5632.0,0.00013086380204185843
6144.0,-0.0016587028512731194
6656.0,0.00107471807859838
7168.0,-6.637858314206824e-05
7680.0,0.00046691051102243364
8192.0,-0.0006177959148772061
9216.0,0.00046688635484315455
10240.0,-0.0008489934843964875
11264.0,-0.00027775007765740156
12288.0,-0.0018219727789983153
13312.0,-0.003945855423808098
14336.0,0.0037558479234576225
end
