version,3.0
numOfCh,1
type,point
parent_name,100-cuts
ch_type,1_1
kcount,1
numberNandB,1
brightnessNandB,1
carpet pos,0
pc,0
Time (ms),CH1 Auto-Correlation
1.0,0.03819049522280693
2.0,0.03490281477570534
3.0,0.03210613876581192
4.0,0.029719166457653046
5.0,0.027458982542157173
6.0,0.025394339114427567
7.0,0.023592419922351837
8.0,0.022015759721398354
9.0,0.020516419783234596
10.0,0.019229071214795113
11.0,0.018031390383839607
12.0,0.016939302906394005
13.0,0.015899963676929474
14.0,0.014884760603308678
15.0,0.014073500409722328
16.0,0.01328363548964262
18.0,0.011862693354487419
20.0,0.010656964033842087
22.0,0.0095483073964715
24.0,0.008481740951538086
26.0,0.007721283007413149
28.0,0.007039959542453289
30.0,0.006568156182765961
32.0,0.006039576604962349
36.0,0.005061115138232708
40.0,0.004433056339621544
44.0,0.0038189608603715897
48.0,0.0031514018774032593
52.0,0.0024743815883994102
56.0,0.0021430470515042543
60.0,0.0021109976805746555
64.0,0.0020823650993406773
72.0,0.0014971462078392506
80.0,0.0011420903028920293
88.0,0.000535275146830827
96.0,0.0004679023695643991
104.0,0.0006176184979267418
112.0,0.0006987753440625966
120.0,0.0015016021206974983
128.0,0.0017867411952465773
144.0,0.000791049562394619
160.0,8.848527068039402e-05
176.0,-0.0012553954729810357
192.0,-0.0011879713274538517
208.0,-0.001103498158045113
224.0,-0.0023012261372059584
240.0,-0.0016133313765749335
256.0,-0.0018193735741078854
288.0,-0.0019229116151109338
320.0,-0.002758490853011608
352.0,-0.0010687026660889387
384.0,-0.0019924528896808624
416.0,-0.00012312018952798098
448.0,0.0009480522712692618
480.0,0.0012767489533871412
512.0,0.0009000817663036287
576.0,0.0007189107127487659
640.0,0.0015880283899605274
704.0,0.0008748407708480954
768.0,0.0001715391845209524
832.0,0.0005419216467998922
896.0,-0.0008376502664759755
960.0,-0.0009278893121518195
1024.0,-0.0008578806300647557
1152.0,-0.000504786497913301
1280.0,0.0013696702662855387
1408.0,0.00025000658934004605
1536.0,0.0009724092087708414
1664.0,0.0004965150728821754
1792.0,0.0006999060278758407
1920.0,-0.00017754647706169635
2048.0,-0.0008972727810032666
2304.0,0.00035226313048042357
2560.0,0.0009999657049775124
2816.0,-0.0005018700030632317
3072.0,0.00027400109684094787
3328.0,0.0010798780713230371
3584.0,-0.001107006217353046
3840.0,0.0010495418682694435
4096.0,0.0014383017551153898
4608.0,4.4464002712629735e-05
5120.0,-2.566836519690696e-05
5632.0,9.974053682526574e-05
6144.0,-7.006210216786712e-05
6656.0,-0.0004714658425655216
7168.0,0.00014681702305097133
7680.0,3.292497422080487e-05
8192.0,-0.0007520799990743399
9216.0,-0.0009249157155863941
10240.0,-0.00026488263392820954
11264.0,-0.00034302202402614057
12288.0,-0.0008352164295502007
13312.0,-0.0003374164807610214
14336.0,-0.0001380362518830225
end
