version,3.0
numOfCh,1
type,point
parent_name,100-cuts
ch_type,1_1
kcount,1
numberNandB,1
brightnessNandB,1
carpet pos,0
pc,0
Time (ms),CH1 Auto-Correlation
1.0,0.040433768182992935
2.0,0.03701217472553253
3.0,0.03405332565307617
4.0,0.031486786901950836
5.0,0.02926306053996086
6.0,0.027249546721577644
7.0,0.025523409247398376
8.0,0.023944463580846786
9.0,0.02252792753279209
10.0,0.021162232384085655
11.0,0.019990572705864906
12.0,0.01888502947986126
13.0,0.017909236252307892
14.0,0.017103349789977074
15.0,0.016377076506614685
16.0,0.015647582709789276
18.0,0.01427028700709343
20.0,0.013150985352694988
22.0,0.012261168099939823
24.0,0.011501950211822987
26.0,0.010615612380206585
28.0,0.009818016551434994
30.0,0.008901192806661129
32.0,0.008043761365115643
36.0,0.007135516032576561
40.0,0.006302334368228912
44.0,0.0059798480942845345
48.0,0.0057706572115421295
52.0,0.005273484159260988
56.0,0.004706229083240032
60.0,0.003671166719868779
64.0,0.002713159890845418
72.0,0.0017794306622818112
80.0,0.0014390344731509686
88.0,0.0012968444498255849
96.0,0.0014081442495808005
104.0,0.00179102027323097
112.0,0.0020935439970344305
120.0,0.0017480554524809122
128.0,0.0020738125313073397
144.0,0.0031955367885529995
160.0,0.003844803897663951
176.0,0.0034913034178316593
192.0,0.002904318505898118
208.0,0.002978279022499919
224.0,0.0024351063184440136
240.0,0.0015330236637964845
256.0,-0.0002042963751591742
288.0,0.0006629746640101075
320.0,0.0005100622656755149
352.0,0.00012650128337554634
384.0,0.0003507167275529355
416.0,-0.001231130212545395
448.0,-0.0010480746859684587
480.0,-0.0004944477113895118
512.0,-0.00018432422075420618
576.0,0.00021265979739837348
640.0,6.895479600643739e-05
704.0,0.002750991377979517
768.0,0.0013330992078408599
832.0,0.0008137387339957058
896.0,0.001707357121631503
960.0,0.001437250874005258
1024.0,-0.0002721026830840856
1152.0,-0.0015214384766295552
1280.0,0.0014133568620309234
1408.0,0.0013948767445981503
1536.0,0.0021549887023866177
1664.0,0.0003533518756739795
1792.0,-0.0014063045382499695
1920.0,-0.0007920851930975914
2048.0,-0.0004144147096667439
2304.0,0.000707713421434164
2560.0,0.0005873635527677834
2816.0,0.0006099760066717863
3072.0,-0.0005550180794671178
3328.0,-0.0011495345970615745
3584.0,-3.825762905762531e-05
3840.0,-0.0009366354206576943
4096.0,-0.00035518224467523396
4608.0,-0.00037024912307970226
5120.0,8.474955848214449e-07
5632.0,-0.0008012004545889795
6144.0,0.00025656254729256034
6656.0,-0.0006691928138025105
7168.0,8.48915078677237e-05
7680.0,-0.00014483206905424595
8192.0,-0.000931069313082844
9216.0,0.0008423668914474547
10240.0,0.00019673250790219754
11264.0,-0.0007247148314490914
12288.0,0.0011704562930390239
13312.0,-0.0029561889823526144
14336.0,-0.005725087597966194
end
