version,3.0
numOfCh,1
type,point
parent_name,100-cuts
ch_type,1_1
kcount,1
numberNandB,1
brightnessNandB,1
carpet pos,0
pc,0
Time (ms),CH1 Auto-Correlation
1.0,0.027853948995471
2.0,0.025469178333878517
3.0,0.023435167968273163
4.0,0.021629421040415764
5.0,0.020068464800715446
6.0,0.01866336725652218
7.0,0.017509473487734795
8.0,0.01644318737089634
9.0,0.015385537408292294
10.0,0.014392993412911892
11.0,0.013508281670510769
12.0,0.01272948645055294
13.0,0.012074445374310017
14.0,0.011460110545158386
15.0,0.010910751298069954
16.0,0.010389504954218864
18.0,0.00971200130879879
20.0,0.00902961753308773
22.0,0.008455224335193634
24.0,0.007759708445519209
26.0,0.007113853003829718
28.0,0.0064880503341555595
30.0,0.005865474697202444
32.0,0.005201647523790598
36.0,0.003909825347363949
40.0,0.0029588197357952595
44.0,0.0022435798309743404
48.0,0.0016019290778785944
52.0,0.0012067783391103148
56.0,0.0009581444319337606
60.0,0.000716651848051697
64.0,0.0006101933540776372
72.0,0.000656762917060405
80.0,0.0008738728938624263
88.0,0.0014539058320224285
96.0,0.001984700793400407
104.0,0.0020879493094980717
112.0,0.0015472836093977094
120.0,0.0010432816343382
128.0,0.0010402391199022532
144.0,0.0007489192648790777
160.0,0.00038979153032414615
176.0,-0.00041814096039161086
192.0,-0.0007843651692382991
208.0,-0.0010438015451654792
224.0,-0.0005968990735709667
240.0,-0.0008431785390712321
256.0,0.0002657826407812536
288.0,0.0002331109717488289
320.0,-0.000569554977118969
352.0,-0.0006115756114013493
384.0,-4.263682785676792e-05
416.0,-0.0016795221017673612
448.0,-0.0009683348471298814
480.0,0.00021647897665388882
512.0,0.0008277956512756646
576.0,0.0011670684907585382
640.0,7.828917296137661e-05
704.0,-0.000626679859124124
768.0,-0.0009194037993438542
832.0,-0.000255017337622121
896.0,-0.0008606725023128092
960.0,-0.000916416640393436
1024.0,-0.0002826254640240222
1152.0,7.596989598823711e-05
1280.0,-0.0003943904011975974
1408.0,0.0009322628611698747
1536.0,5.679225432686508e-05
1664.0,0.0004150221648160368
1792.0,9.353469795314595e-05
1920.0,0.00038894216413609684
2048.0,0.0006918095168657601
2304.0,-0.00016810478700790554
2560.0,-0.0001859530748333782
2816.0,0.00026146037271246314
3072.0,-0.0003286824794486165
3328.0,-0.00035251316148787737
3584.0,-4.9860351282404736e-05
3840.0,-0.000589997973293066
4096.0,0.00031896281871013343
4608.0,0.0002863779373001307
5120.0,-0.00024113843392115086
5632.0,-0.0008700642501935363
6144.0,8.964606422523502e-06
6656.0,0.000845639850012958
7168.0,-0.00027731709997169673
7680.0,-0.00019025859364774078
8192.0,3.640535942395218e-05
9216.0,0.00012686901027336717
10240.0,-0.0006945489440113306
11264.0,0.00028746374300681055
12288.0,0.00030899574630893767
13312.0,0.0004242301220074296
14336.0,0.00032887791167013347
end
