version,3.0
numOfCh,1
type,point
parent_name,100-cuts
ch_type,1_1
kcount,1
numberNandB,1
brightnessNandB,1
carpet pos,0
pc,0
Time (ms),CH1 Auto-Correlation
1.0,0.025239787995815277
2.0,0.023045597597956657
3.0,0.021137120202183723
4.0,0.019424907863140106
5.0,0.017960140481591225
6.0,0.016715943813323975
7.0,0.01561310887336731
8.0,0.014674574136734009
9.0,0.013796167448163033
10.0,0.01299221906810999
11.0,0.012346483767032623
12.0,0.011717495508491993
13.0,0.011207086965441704
14.0,0.010654830373823643
15.0,0.010090958327054977
16.0,0.009615330956876278
18.0,0.008739025332033634
20.0,0.008010768331587315
22.0,0.007359537295997143
24.0,0.006792103871703148
26.0,0.006293166894465685
28.0,0.0058248029090464115
30.0,0.005443662405014038
32.0,0.0049545797519385815
36.0,0.004006627015769482
40.0,0.0033249324187636375
44.0,0.0028725406154990196
48.0,0.002645632717758417
52.0,0.0024448863696306944
56.0,0.002288337331265211
60.0,0.0020260608289390802
64.0,0.0016850011888891459
72.0,0.0013012939598411322
80.0,0.0013884829822927713
88.0,0.0013363852631300688
96.0,0.0012728639412671328
104.0,0.001181226340122521
112.0,0.0012303194962441921
120.0,0.0010708741610869765
128.0,0.000928303343243897
144.0,0.0003329210449010134
160.0,-3.858167110593058e-05
176.0,-0.0009077460272237659
192.0,-0.0008333853911608458
208.0,-0.000505905831232667
224.0,-0.0005327767576090991
240.0,-0.0004514991887845099
256.0,-0.00016786465130280703
288.0,0.0004630268085747957
320.0,0.0014275393914431334
352.0,0.00037352152867242694
384.0,0.0006667452398687601
416.0,0.0009466189076192677
448.0,0.0005243115592747927
480.0,-0.0005854145274497569
512.0,-0.0012769236927852035
576.0,-0.0008802837692201138
640.0,-0.00030029434128664434
704.0,-0.00040414524846710265
768.0,0.00016231476911343634
832.0,9.497325663687661e-05
896.0,-0.00037458777660503983
960.0,-5.174515081307618e-06
1024.0,0.0005902583943679929
1152.0,0.0021106416825205088
1280.0,0.000553593912627548
1408.0,-8.040790999075398e-05
1536.0,-0.0001145045825978741
1664.0,-6.582298374269158e-05
1792.0,-0.0006544767529703677
1920.0,-0.0004880988271906972
2048.0,-0.0005541092832572758
2304.0,0.00024456053506582975
2560.0,-0.00023811051505617797
2816.0,-0.0005358681082725525
3072.0,-0.0005818016361445189
3328.0,2.4959286747616716e-05
3584.0,0.00017200248839799315
3840.0,-0.0008389551076106727
4096.0,-0.0003517651930451393
4608.0,6.978437340876553e-06
5120.0,4.458525836525951e-06
5632.0,-0.0005422804388217628
6144.0,0.0008472346817143261
6656.0,-0.0006767341983504593
7168.0,-0.00012451992370188236
7680.0,-0.0005098560359328985
8192.0,-0.0004420779587235302
9216.0,-6.898774881847203e-05
10240.0,0.0002946608583442867
11264.0,0.0005689917015843093
12288.0,0.0006595584563910961
13312.0,-0.00021334215125534683
14336.0,-0.0005935470690019429
end
