version,3.0
numOfCh,1
type,point
parent_name,100-cuts
ch_type,1_1
kcount,1
numberNandB,1
brightnessNandB,1
carpet pos,0
pc,0
Time (ms),CH1 Auto-Correlation
1.0,0.09270282089710236
2.0,0.08511683344841003
3.0,0.07875613868236542
4.0,0.07312970608472824
5.0,0.06820250302553177
6.0,0.063998281955719
7.0,0.06020737066864967
8.0,0.05673019215464592
9.0,0.05345537140965462
10.0,0.05067198723554611
11.0,0.04820576310157776
12.0,0.04593246057629585
13.0,0.04403078556060791
14.0,0.04232800751924515
15.0,0.040664494037628174
16.0,0.03907782584428787
18.0,0.03624548390507698
20.0,0.033878859132528305
22.0,0.031579986214637756
24.0,0.029086913913488388
26.0,0.026945684105157852
28.0,0.02466585859656334
30.0,0.022227296605706215
32.0,0.020519593730568886
36.0,0.017974168062210083
40.0,0.015817316249012947
44.0,0.014344756491482258
48.0,0.012429987080395222
52.0,0.01044912077486515
56.0,0.008959946222603321
60.0,0.008849904872477055
64.0,0.009314178489148617
72.0,0.007026147563010454
80.0,0.006642268039286137
88.0,0.00550587335601449
96.0,0.0054372502490878105
104.0,0.005739130545407534
112.0,0.004462045151740313
120.0,0.0034518034663051367
128.0,0.0030859187245368958
144.0,0.002598588587716222
160.0,0.0007560707745142281
176.0,5.432256875792518e-05
192.0,0.000726940343156457
208.0,9.474834951106459e-05
224.0,-0.002552369609475136
240.0,-0.005560710560530424
256.0,-0.0053490023128688335
288.0,-0.001812449307180941
320.0,-0.0012393974466249347
352.0,-0.0006927797221578658
384.0,1.1820255849670502e-06
416.0,-0.000652743736281991
448.0,-0.0017517164815217257
480.0,-0.001273719477467239
512.0,-0.00022634021297562867
576.0,4.5337343181017786e-05
640.0,0.002066065324470401
704.0,0.0014134234515950084
768.0,0.0021675145253539085
832.0,0.0020663493778556585
896.0,0.000264940841589123
960.0,-0.004342702683061361
1024.0,0.0003960458270739764
1152.0,0.0029734913259744644
1280.0,-0.0018576274160295725
1408.0,-0.0033797379583120346
1536.0,0.003400530433282256
1664.0,-0.0009495187550783157
1792.0,-0.004316110163927078
1920.0,-0.0031141871586441994
2048.0,-0.001993366051465273
2304.0,0.0018102636095136404
2560.0,0.0006400287966243923
2816.0,-0.00027556109125725925
3072.0,-0.002966826781630516
3328.0,-0.00015615709708072245
3584.0,-0.001707201125100255
3840.0,0.0020263767801225185
4096.0,-0.0010227656457573175
4608.0,-0.00033661184716038406
5120.0,0.001855518319644034
5632.0,0.00028875278076156974
6144.0,-0.003254156792536378
6656.0,-0.0025110114365816116
7168.0,-0.0029484769329428673
7680.0,0.001753928605467081
8192.0,-0.00029603458824567497
9216.0,0.0002256070583825931
10240.0,0.0014013773761689663
11264.0,-0.0024630604311823845
12288.0,0.0015598541358485818
13312.0,-0.0005379246431402862
14336.0,0.0006708470755256712
end
