version,3.0
numOfCh,1
type,point
parent_name,100-cuts
ch_type,1_1
kcount,1
numberNandB,1
brightnessNandB,1
carpet pos,0
pc,0
Time (ms),CH1 Auto-Correlation
1.0,0.023969540372490883
2.0,0.021807536482810974
3.0,0.019946228712797165
4.0,0.01833816058933735
5.0,0.016922378912568092
6.0,0.015661975368857384
7.0,0.01454902719706297
8.0,0.01360689289867878
9.0,0.012827195227146149
10.0,0.012148663401603699
11.0,0.0116207180544734
12.0,0.011122510768473148
13.0,0.010607575997710228
14.0,0.010106947273015976
15.0,0.009711863473057747
16.0,0.009366119280457497
18.0,0.008758839219808578
20.0,0.00811122078448534
22.0,0.0076215690933167934
24.0,0.0072797671891748905
26.0,0.007024840451776981
28.0,0.006816784385591745
30.0,0.006599148735404015
32.0,0.006324439775198698
36.0,0.005801851395517588
40.0,0.0053710369393229485
44.0,0.004885041154921055
48.0,0.004316468257457018
52.0,0.0037272246554493904
56.0,0.003325299359858036
60.0,0.0031283090356737375
64.0,0.002925790613517165
72.0,0.0024648543912917376
80.0,0.0020410562865436077
88.0,0.0020004529505968094
96.0,0.001625921344384551
104.0,0.0010818922892212868
112.0,0.0011917370138689876
120.0,0.0014812634326517582
128.0,0.0013029961846768856
144.0,0.0004821847251150757
160.0,0.0008855295600369573
176.0,0.00044013725710101426
192.0,0.0005678452434949577
208.0,0.00024178226885851473
224.0,-0.00010191024193773046
240.0,-0.00023632128431927413
256.0,-0.0009186819661408663
288.0,-0.0008854293846525252
320.0,-0.001314744004048407
352.0,-0.0010121006052941084
384.0,-0.000272018660325557
416.0,0.00038785141077823937
448.0,-0.0001519759389339015
480.0,-0.0005098062101751566
512.0,6.724408740410581e-05
576.0,0.0002691003610379994
640.0,0.00047290336806327105
704.0,0.0001285081816604361
768.0,-0.0004045630048494786
832.0,0.00030422030249610543
896.0,-0.0003997824096586555
960.0,-0.0011456968495622277
1024.0,-0.0009778902167454362
1152.0,-0.001889281440526247
1280.0,-0.00020474907069001347
1408.0,0.0009315222851000726
1536.0,0.0018899609567597508
1664.0,-8.8965825852938e-05
1792.0,-0.000263890135101974
1920.0,3.9143120375229046e-05
2048.0,3.07050759147387e-05
2304.0,-9.481359302299097e-05
2560.0,0.00012552821135614067
2816.0,0.00012127526861149818
3072.0,-0.0007316767005249858
3328.0,-0.0009208166738972068
3584.0,-0.0009527374058961868
3840.0,6.956363358767703e-05
4096.0,0.00022824971529189497
4608.0,0.00014524688594974577
5120.0,-0.0006627248367294669
5632.0,0.0006258655339479446
6144.0,0.0004604436398949474
6656.0,-0.00021635180746670812
7168.0,0.0006225625984370708
7680.0,-0.0004095004696864635
8192.0,-0.0005000235396437347
9216.0,-6.827923061791807e-05
10240.0,3.2596206438029185e-05
11264.0,0.0006275030900724232
12288.0,-8.51271252031438e-05
13312.0,-0.0006588776013813913
14336.0,-0.001136660110205412
end
