version,3.0
numOfCh,1
type,point
parent_name,100-cuts
ch_type,1_1
kcount,1
numberNandB,1
brightnessNandB,1
carpet pos,0
pc,0
Time (ms),CH1 Auto-Correlation
1.0,0.027334004640579224
2.0,0.02504982240498066
3.0,0.023080090060830116
4.0,0.021401746198534966
5.0,0.019889507442712784
6.0,0.01851825788617134
7.0,0.01734292134642601
8.0,0.016329361125826836
9.0,0.015401779673993587
10.0,0.014653959311544895
11.0,0.013947954401373863
12.0,0.01324805710464716
13.0,0.012653429992496967
14.0,0.012009207159280777
15.0,0.01145278662443161
16.0,0.010854817926883698
18.0,0.009753931313753128
20.0,0.008896920830011368
22.0,0.008182252757251263
24.0,0.007533995434641838
26.0,0.006987929344177246
28.0,0.0065717799589037895
30.0,0.006181664764881134
32.0,0.00586882047355175
36.0,0.005184019450098276
40.0,0.004417391028255224
44.0,0.0037248884327709675
48.0,0.0030246798414736986
52.0,0.002656671917065978
56.0,0.0023393130395561457
60.0,0.002024939749389887
64.0,0.0016396137652918696
72.0,0.0011764161754399538
80.0,0.0010657969396561384
88.0,0.0008618879364803433
96.0,0.00048079827683977783
104.0,0.0005832597380504012
112.0,0.000659913057461381
120.0,0.0006268445285968482
128.0,0.0005095689557492733
144.0,-4.682075814343989e-05
160.0,-0.0006480448646470904
176.0,-0.0002670355315785855
192.0,9.628010593587533e-05
208.0,-0.0001869380648713559
224.0,0.00047958947834558785
240.0,0.0009163448703475296
256.0,0.00028462300542742014
288.0,0.0014456063508987427
320.0,0.0011990740895271301
352.0,6.499857408925891e-05
384.0,-3.0021745260455646e-05
416.0,0.0009224830428138375
448.0,-0.0008080760599114001
480.0,-0.0014352741418406367
512.0,-0.0020088960882276297
576.0,-0.00045368808787316084
640.0,0.000516908650752157
704.0,-0.0006432133377529681
768.0,-0.001520476769655943
832.0,-0.0005708541721105576
896.0,0.0003312971966806799
960.0,0.0007374995038844645
1024.0,0.0014025830896571279
1152.0,0.0010326243937015533
1280.0,0.0004728727217298001
1408.0,-0.0006232929299585521
1536.0,-0.0007461386267095804
1664.0,-0.00027038599364459515
1792.0,-0.00028298358665779233
1920.0,-5.495623918250203e-05
2048.0,0.00020768091781064868
2304.0,-0.00021515379194170237
2560.0,-0.0006246506236493587
2816.0,0.00043415240361355245
3072.0,0.000861107895616442
3328.0,0.00034205339034087956
3584.0,-0.0005386957200244069
3840.0,-0.0005486881127581
4096.0,0.0007585140410810709
4608.0,-0.0013114693574607372
5120.0,0.0008263631607405841
5632.0,-0.0006729104206897318
6144.0,8.986146713141352e-05
6656.0,-0.0002610262017697096
7168.0,-0.0002906454901676625
7680.0,-0.0007670017657801509
8192.0,0.0006889428477734327
9216.0,7.439140608767048e-05
10240.0,-0.0001228868932230398
11264.0,-0.00027558585861697793
12288.0,6.511157698696479e-05
13312.0,0.0004516155458986759
14336.0,0.0006082876352593303
end
