version,3.0
numOfCh,1
type,point
parent_name,100-cuts
ch_type,1_1
kcount,1
numberNandB,1
brightnessNandB,1
carpet pos,0
pc,0
Time (ms),CH1 Auto-Correlation
1.0,0.09558417648077011
2.0,0.0881233960390091
3.0,0.08157531172037125
4.0,0.07587701082229614
5.0,0.07098383456468582
6.0,0.0664883702993393
7.0,0.062397077679634094
8.0,0.05888807401061058
9.0,0.05579765513539314
10.0,0.05302675440907478
11.0,0.05052422732114792
12.0,0.04819532856345177
13.0,0.04592110961675644
14.0,0.04395455867052078
15.0,0.041986849159002304
16.0,0.0401858389377594
18.0,0.03706260770559311
20.0,0.03408578410744667
22.0,0.031500283628702164
24.0,0.029674256220459938
26.0,0.028005162253975868
28.0,0.026333242654800415
30.0,0.02485177293419838
32.0,0.023445704951882362
36.0,0.020455490797758102
40.0,0.018335839733481407
44.0,0.016763823106884956
48.0,0.015779299661517143
52.0,0.01356127206236124
56.0,0.01179739274084568
60.0,0.01076568104326725
64.0,0.009378134272992611
72.0,0.007145458832383156
80.0,0.00450233556330204
88.0,0.0019199595553800464
96.0,7.560031372122467e-05
104.0,-0.001608103746548295
112.0,-0.002987433923408389
120.0,-0.0027491755317896605
128.0,-0.004411937668919563
144.0,-0.004709428641945124
160.0,-0.003784507978707552
176.0,-0.0016950098797678947
192.0,-0.00038896300247870386
208.0,-0.0014129845658317208
224.0,-0.0020169822964817286
240.0,-0.0019196710782125592
256.0,-0.0005705548101104796
288.0,-0.003510103328153491
320.0,-0.004724054131656885
352.0,-0.006026670802384615
384.0,-0.006314030848443508
416.0,-0.0012539030285552144
448.0,0.004124944563955069
480.0,-0.001969170058146119
512.0,-0.001948569086380303
576.0,-0.0031015737913548946
640.0,0.0007342055905610323
704.0,-0.0028794987592846155
768.0,-0.003287414787337184
832.0,-0.0013949163258075714
896.0,0.0041441842913627625
960.0,0.0006999374600127339
1024.0,-0.0015958483563736081
1152.0,-0.00034641913953237236
1280.0,-0.0003708497970364988
1408.0,0.0031831366941332817
1536.0,-0.001958389999344945
1664.0,-0.002680907491594553
1792.0,-0.00220834300853312
1920.0,0.00033407576847821474
2048.0,0.0010829402599483728
2304.0,0.0004743826575577259
2560.0,-0.0009007227490656078
2816.0,1.851070555858314e-05
3072.0,0.0009349032188765705
3328.0,0.0003028074570465833
3584.0,0.00482729310169816
3840.0,-0.002185857854783535
4096.0,-0.0004366021021269262
4608.0,-0.00135672593023628
5120.0,-4.339079532655887e-05
5632.0,-0.0011880809906870127
6144.0,-0.0011301458580419421
6656.0,0.0006941940519027412
7168.0,0.0020988332107663155
7680.0,-0.0014187649358063936
8192.0,-9.484379006607924e-06
9216.0,-0.0015286225825548172
10240.0,0.0031393510289490223
11264.0,-0.0008518178947269917
12288.0,-0.0010101429652422667
13312.0,0.002441252814605832
14336.0,-0.002111063338816166
end
