version,3.0
numOfCh,1
type,point
parent_name,100-cuts
ch_type,1_1
kcount,1
numberNandB,1
brightnessNandB,1
carpet pos,0
pc,0
Time (ms),CH1 Auto-Correlation
1.0,0.04258866608142853
2.0,0.03930602967739105
3.0,0.03645637631416321
4.0,0.03399387001991272
5.0,0.031879737973213196
6.0,0.03000030107796192
7.0,0.02837849222123623
8.0,0.026819059625267982
9.0,0.0252162404358387
10.0,0.023851994425058365
11.0,0.022626029327511787
12.0,0.021520717069506645
13.0,0.020580990239977837
14.0,0.019770918413996696
15.0,0.019002582877874374
16.0,0.01815691962838173
18.0,0.01661309041082859
20.0,0.015184542164206505
22.0,0.013841111212968826
24.0,0.012613153085112572
26.0,0.011475185863673687
28.0,0.010617600753903389
30.0,0.009916024282574654
32.0,0.0093099819496274
36.0,0.008040974847972393
40.0,0.007091160397976637
44.0,0.006368541158735752
48.0,0.005567390471696854
52.0,0.004874286241829395
56.0,0.004243285860866308
60.0,0.0032374579459428787
64.0,0.0023265474010258913
72.0,0.0011437578359618783
80.0,0.0005154150421731174
88.0,0.0002606383932288736
96.0,0.00023246453201863915
104.0,9.551874973112717e-05
112.0,2.2011705368640833e-05
120.0,-0.0004940534709021449
128.0,-0.0006945905042812228
144.0,-0.0014595093671232462
160.0,-0.0012330212630331516
176.0,0.0011971252970397472
192.0,0.0009043517056852579
208.0,0.0011425913544371724
224.0,0.0014580402057617903
240.0,0.001819939585402608
256.0,0.0031771932262927294
288.0,0.0015026807086542249
320.0,-0.002180815441533923
352.0,-0.0035407564137130976
384.0,-0.002655474469065666
416.0,-0.0006929837400093675
448.0,0.0025885668583214283
480.0,0.0019066131208091974
512.0,0.0009920280426740646
576.0,-0.001471498515456915
640.0,0.00010380383901065215
704.0,3.387777542229742e-05
768.0,-0.0012204117374494672
832.0,-0.0038523597177118063
896.0,-0.0021736656781286
960.0,-4.393004928715527e-05
1024.0,-0.00021796343207824975
1152.0,-0.0006760632968507707
1280.0,0.0003192559815943241
1408.0,-3.8785012293374166e-05
1536.0,-8.642097236588597e-05
1664.0,0.0009955134009942412
1792.0,7.486772665288299e-05
1920.0,-0.0004988841828890145
2048.0,0.00021064230531919748
2304.0,0.0013063078513368964
2560.0,-6.603486781386891e-06
2816.0,-0.0007091658189892769
3072.0,-0.0021325235720723867
3328.0,-0.0022756080143153667
3584.0,0.00048151478404179215
3840.0,0.0014680419117212296
4096.0,0.002088353270664811
4608.0,-0.0008496778318658471
5120.0,-0.0010940937791019678
5632.0,0.0001663591683609411
6144.0,0.0009925387566909194
6656.0,-0.00038135601789690554
7168.0,-0.00209658476524055
7680.0,0.0011134935775771737
8192.0,0.001956327585503459
9216.0,-0.00013132816820871085
10240.0,0.0006605059606954455
11264.0,-0.000873760087415576
12288.0,0.0004895430756732821
13312.0,-0.0004258252156432718
14336.0,-0.0010708982590585947
end
