version,3.0
numOfCh,1
type,point
parent_name,100-cuts
ch_type,1_1
kcount,1
numberNandB,1
brightnessNandB,1
carpet pos,0
pc,0
Time (ms),CH1 Auto-Correlation
1.0,0.07979924231767654
2.0,0.07229790836572647
3.0,0.06593673676252365
4.0,0.06034474819898605
5.0,0.05555727332830429
6.0,0.05145663395524025
7.0,0.04773149639368057
8.0,0.04448944330215454
9.0,0.04147437959909439
10.0,0.039004478603601456
11.0,0.03659189119935036
12.0,0.03427574783563614
13.0,0.032391149550676346
14.0,0.03057129681110382
15.0,0.029087331146001816
16.0,0.02767033874988556
18.0,0.02504623681306839
20.0,0.023241717368364334
22.0,0.02162611298263073
24.0,0.020396633073687553
26.0,0.01933826319873333
28.0,0.01806432195007801
30.0,0.016358856111764908
32.0,0.014679063111543655
36.0,0.012949248775839806
40.0,0.01223326101899147
44.0,0.011399099603295326
48.0,0.01063617691397667
52.0,0.010127308778464794
56.0,0.009860430844128132
60.0,0.010299594141542912
64.0,0.0097368024289608
72.0,0.008550615981221199
80.0,0.007010607980191708
88.0,0.005492846947163343
96.0,0.004911600612103939
104.0,0.0035642243456095457
112.0,0.0023813184816390276
120.0,0.0014281426556408405
128.0,0.0001670796045800671
144.0,-0.00010174694762099534
160.0,0.0007692235521972179
176.0,0.0008438980439677835
192.0,0.0008573300438001752
208.0,-0.0005731968558393419
224.0,-0.0013654578942805529
240.0,-0.0007040935452096164
256.0,0.0004778100992552936
288.0,0.0008053833735175431
320.0,0.001019680523313582
352.0,0.00032820008345879614
384.0,0.0030077223200351
416.0,0.0005267838714644313
448.0,-5.712478014174849e-05
480.0,-0.0026368519756942987
512.0,-0.0002638447331264615
576.0,0.0006264823023229837
640.0,-0.0012630980927497149
704.0,-0.003938271664083004
768.0,-0.0035845348611474037
832.0,-0.0020670031663030386
896.0,0.0014210923109203577
960.0,-0.0007470243144780397
1024.0,-0.0009708181023597717
1152.0,-0.0018836893141269684
1280.0,-0.0017827239353209734
1408.0,0.0019045424414798617
1536.0,-0.0009233367745764554
1664.0,0.0006635949830524623
1792.0,0.0031634524930268526
1920.0,-0.0003217912744730711
2048.0,0.0008946707239374518
2304.0,-0.00011257782171014696
2560.0,0.0008617021376267076
2816.0,-0.003753187134861946
3072.0,-0.001712963217869401
3328.0,-0.0017160385614261031
3584.0,0.0006152327405288815
3840.0,-1.9411138055147603e-05
4096.0,0.0024047596380114555
4608.0,3.7244855775497854e-05
5120.0,-0.0003834495146293193
5632.0,0.0028516664169728756
6144.0,-0.00029569031903520226
6656.0,-0.0006120147882029414
7168.0,3.752704287762754e-05
7680.0,-0.0010320305591449142
8192.0,0.0005672581028193235
9216.0,0.0001994441554415971
10240.0,-0.0023609751369804144
11264.0,0.0014633493265137076
12288.0,-0.0025699338875710964
13312.0,0.002572797005996108
14336.0,-0.0011559720151126385
end
