version,3.0
numOfCh,1
type,point
parent_name,100-cuts
ch_type,1_1
kcount,1
numberNandB,1
brightnessNandB,1
carpet pos,0
pc,0
Time (ms),CH1 Auto-Correlation
1.0,0.04406343400478363
2.0,0.04045858606696129
3.0,0.03722946345806122
4.0,0.0345134362578392
5.0,0.032143671065568924
6.0,0.029965918511152267
7.0,0.0280760508030653
8.0,0.02641136571764946
9.0,0.024926230311393738
10.0,0.02348477765917778
11.0,0.022286120802164078
12.0,0.0211778711527586
13.0,0.020131878554821014
14.0,0.01921018213033676
15.0,0.01843377947807312
16.0,0.017692293971776962
18.0,0.016277167946100235
20.0,0.014918044209480286
22.0,0.013617089949548244
24.0,0.012249130755662918
26.0,0.010815870948135853
28.0,0.009737606160342693
30.0,0.009023487567901611
32.0,0.008337978273630142
36.0,0.0071257129311561584
40.0,0.0062408666126430035
44.0,0.005551495123654604
48.0,0.004997627343982458
52.0,0.004815221298485994
56.0,0.004685025662183762
60.0,0.004051862750202417
64.0,0.003493581200018525
72.0,0.0028773616068065166
80.0,0.002316997153684497
88.0,0.0011889326851814985
96.0,0.0007956942426972091
104.0,0.001520128338597715
112.0,0.001356223365291953
120.0,0.0008704070351086557
128.0,0.0005217905272729695
144.0,-0.0007793551194481552
160.0,-5.935540684731677e-05
176.0,9.717194188851863e-05
192.0,3.816167372860946e-05
208.0,-0.0010660092812031507
224.0,-0.002000139094889164
240.0,-0.0015602023340761662
256.0,-0.002668088534846902
288.0,-0.0013537064660340548
320.0,-0.0026851182337850332
352.0,-0.0015429022023454309
384.0,-0.0019351589726284146
416.0,-0.003791155992075801
448.0,-0.002452512038871646
480.0,-0.0014817598275840282
512.0,0.0001485138782300055
576.0,8.237576548708603e-05
640.0,-0.00033884146250784397
704.0,0.0007794441771693528
768.0,-0.0002555757819209248
832.0,-0.001016157679259777
896.0,0.0014161444269120693
960.0,0.0014469206798821688
1024.0,-0.0005316510796546936
1152.0,-0.0018372460035607219
1280.0,-0.0011352418223395944
1408.0,-0.000828330812510103
1536.0,0.0017847111448645592
1664.0,0.0014588629128411412
1792.0,0.0012422087602317333
1920.0,-0.0015328278532251716
2048.0,-0.0008522052085027099
2304.0,1.510590300313197e-05
2560.0,3.2695941627025604e-05
2816.0,4.5348602725425735e-05
3072.0,-0.0007858021417632699
3328.0,0.0001223947328981012
3584.0,0.0008875245694071054
3840.0,-0.00037387257907539606
4096.0,0.0014860060764476657
4608.0,-0.00025141032529063523
5120.0,-0.00018975908460561186
5632.0,0.0009504143963567913
6144.0,-0.00038412405410781503
6656.0,-0.0013497162144631147
7168.0,-6.757154187653214e-05
7680.0,0.0004106288542971015
8192.0,0.00017710551037453115
9216.0,8.256820001406595e-05
10240.0,-0.0006217824411578476
11264.0,0.0003166594251524657
12288.0,-0.0005377291818149388
13312.0,0.00024478277191519737
14336.0,-9.52838672674261e-05
end
