version,3.0
numOfCh,1
type,point
parent_name,c1204_1dot0-1dot0
ch_type,1_1
kcount,1
numberNandB,1
brightnessNandB,1
carpet pos,0
pc,0
Time (ms),CH1 Auto-Correlation
1.0,0.02594405971467495
2.0,0.02373703382909298
3.0,0.021884683519601822
4.0,0.020283658057451248
5.0,0.01885613240301609
6.0,0.017623281106352806
7.0,0.016504483297467232
8.0,0.015481711365282536
9.0,0.014609668403863907
10.0,0.013793552294373512
11.0,0.013070393353700638
12.0,0.012330406345427036
13.0,0.011595816351473331
14.0,0.010938219726085663
15.0,0.010360907763242722
16.0,0.009864073246717453
18.0,0.009018126875162125
20.0,0.008248100988566875
22.0,0.007572720758616924
24.0,0.0069153751246631145
26.0,0.006335526239126921
28.0,0.005784458015114069
30.0,0.005420080851763487
32.0,0.0050948611460626125
36.0,0.004499282222241163
40.0,0.0038178558461368084
44.0,0.0033825302962213755
48.0,0.0030555473640561104
52.0,0.0029990817420184612
56.0,0.0030655215959995985
60.0,0.0030816784128546715
64.0,0.0030055951792746782
72.0,0.002912535797804594
80.0,0.0020542729180306196
88.0,0.00142782146576792
96.0,0.0011207879288122058
104.0,0.0008293959544971585
112.0,0.0006429527420550585
120.0,0.0009094846318475902
128.0,0.00122510502114892
144.0,0.001509006367996335
160.0,0.0011732770362868905
176.0,0.0009628621046431363
192.0,0.0008870460442267358
208.0,0.0006401730352081358
224.0,-0.00016689475160092115
240.0,-0.00023724310449324548
256.0,-0.0003531538532115519
288.0,-0.0007569316076114774
320.0,-0.0005064138094894588
352.0,0.00020329350081738085
384.0,7.383994670817629e-05
416.0,-0.00029780284967273474
448.0,-0.000835493381600827
480.0,-0.0004972800961695611
512.0,-0.0002823533723130822
576.0,-0.0006333099445328116
640.0,-0.00027727990527637303
704.0,-0.0006515799323096871
768.0,0.0001747659407556057
832.0,0.0002407976280665025
896.0,0.0011843390529975295
960.0,-0.0004924277309328318
1024.0,-0.0003527579247020185
1152.0,-0.000688256521243602
1280.0,-0.0006718951626680791
1408.0,-0.00034677382791414857
1536.0,0.0010631707264110446
1664.0,0.0004947429988533258
1792.0,-0.0006243957905098796
1920.0,-0.00021751804160885513
2048.0,0.00018954669940285385
2304.0,0.0006032825913280249
2560.0,0.000307970360154286
2816.0,-0.0007761614979244769
3072.0,-0.0005763830849900842
3328.0,-0.0003346121811773628
3584.0,-1.318838621955365e-05
3840.0,0.0007196410442702472
4096.0,-0.0011591884540393949
4608.0,-0.0005258609890006483
5120.0,-9.147706441581249e-05
5632.0,-0.0004286542534828186
6144.0,-0.00018667386029846966
6656.0,-0.0006044888286851346
7168.0,-1.967207936104387e-05
7680.0,0.0006737835356034338
8192.0,-0.00014316152373794466
end
