version,3.0
numOfCh,1
type,point
parent_name,c1204_1dot0-1dot0
ch_type,1_1
kcount,1
numberNandB,1
brightnessNandB,1
carpet pos,0
pc,0
Time (ms),CH1 Auto-Correlation
1.0,0.02739105001091957
2.0,0.025176089257001877
3.0,0.023306334391236305
4.0,0.021646223962306976
5.0,0.02022867649793625
6.0,0.018998490646481514
7.0,0.017943527549505234
8.0,0.0169602669775486
9.0,0.016051005572080612
10.0,0.015166979283094406
11.0,0.014330612495541573
12.0,0.013527247123420238
13.0,0.012823562137782574
14.0,0.012214282527565956
15.0,0.011612324975430965
16.0,0.011041004210710526
18.0,0.010027753189206123
20.0,0.009169479832053185
22.0,0.008592699654400349
24.0,0.007984043098986149
26.0,0.007496686186641455
28.0,0.007169089745730162
30.0,0.006808117032051086
32.0,0.006535775493830442
36.0,0.005997547414153814
40.0,0.005529590882360935
44.0,0.005091188009828329
48.0,0.004817678593099117
52.0,0.004587078932672739
56.0,0.0041826688684523106
60.0,0.0036781318485736847
64.0,0.003419610671699047
72.0,0.0033172413241118193
80.0,0.0031194475013762712
88.0,0.0023460027296096087
96.0,0.001709477393887937
104.0,0.0013893754221498966
112.0,0.0010674186050891876
120.0,0.001152638578787446
128.0,0.001046326127834618
144.0,0.0002969684428535402
160.0,5.026248618378304e-05
176.0,-0.00026687889476306736
192.0,-0.00020525870786514133
208.0,-0.00036836121580563486
224.0,-0.0010954694589599967
240.0,-0.0001559619850013405
256.0,0.0002287468232680112
288.0,-0.0008723592618480325
320.0,-0.0006996375741437078
352.0,0.00026124584837816656
384.0,0.00021040163119323552
416.0,0.0009569211979396641
448.0,0.0004185955913271755
480.0,-0.00042461056727916
512.0,0.0007237644749693573
576.0,0.00042393754119984806
640.0,-0.0006796543602831662
704.0,-9.332137415185571e-05
768.0,0.0010628069285303354
832.0,0.0003415873507037759
896.0,-0.00024239470076281577
960.0,0.000682472309563309
1024.0,0.0007692123181186616
1152.0,0.0007431019912473857
1280.0,0.0002457745431456715
1408.0,-0.0007742543239146471
1536.0,-0.0010631666518747807
1664.0,0.0004668098408728838
1792.0,0.0001905235112644732
1920.0,-0.0010177942458540201
2048.0,-0.0011987206526100636
2304.0,-0.0006785542936995625
2560.0,-0.0008332122233696282
2816.0,0.00013271672651171684
3072.0,-7.10234817233868e-05
3328.0,0.0001519897923571989
3584.0,-0.00030793933547101915
3840.0,0.0003079221642110497
4096.0,0.0005013396148569882
4608.0,-0.0005465183639898896
5120.0,0.00014235565322451293
5632.0,-0.0004284207825548947
6144.0,0.0002294755686307326
6656.0,0.00038210474303923547
7168.0,0.00027814757777377963
7680.0,-0.0004192204214632511
8192.0,-0.0001882651704363525
end
