version,3.0
numOfCh,1
type,point
parent_name,c1204_1dot0-1dot0
ch_type,1_1
kcount,1
numberNandB,1
brightnessNandB,1
carpet pos,0
pc,0
Time (ms),CH1 Auto-Correlation
1.0,0.02748623676598072
2.0,0.02530246414244175
3.0,0.02337021380662918
4.0,0.021719735115766525
5.0,0.020287802442908287
6.0,0.019052475690841675
7.0,0.017896370962262154
8.0,0.016840137541294098
9.0,0.01594576984643936
10.0,0.0151073532178998
11.0,0.014455211348831654
12.0,0.013864124193787575
13.0,0.01325234491378069
14.0,0.01270262897014618
15.0,0.012129638344049454
16.0,0.011618390679359436
18.0,0.010806274600327015
20.0,0.010081173852086067
22.0,0.009549956768751144
24.0,0.00910639762878418
26.0,0.008637679740786552
28.0,0.008080648258328438
30.0,0.007663515396416187
32.0,0.007316112983971834
36.0,0.006565930787473917
40.0,0.005917372182011604
44.0,0.005314212292432785
48.0,0.004762299824506044
52.0,0.004411333706229925
56.0,0.0041539487428963184
60.0,0.003913728520274162
64.0,0.0035731722600758076
72.0,0.002798232017084956
80.0,0.0020793131552636623
88.0,0.0015619932673871517
96.0,0.0016293121734634042
104.0,0.0017051678150892258
112.0,0.001646850141696632
120.0,0.0015389717882499099
128.0,0.0014987899921834469
144.0,0.001910190680064261
160.0,0.0012835611123591661
176.0,0.000253954844083637
192.0,0.00035598105750977993
208.0,0.0002044496504822746
224.0,0.00042896257946267724
240.0,0.0012149695539847016
256.0,0.0009997638408094645
288.0,0.0005012947367504239
320.0,0.0004071505682077259
352.0,0.0022019674070179462
384.0,0.0028987990226596594
416.0,0.0017981906421482563
448.0,0.0018358747474849224
480.0,0.0017704506171867251
512.0,0.0013616569340229034
576.0,-7.970365550136194e-05
640.0,0.0009186272509396076
704.0,0.0011114452499896288
768.0,0.0004914607852697372
832.0,0.0018023408483713865
896.0,0.0013144426047801971
960.0,0.0020319526083767414
1024.0,0.0013670828193426132
1152.0,0.00020664544717874378
1280.0,0.00022870584507472813
1408.0,-7.210449984995648e-05
1536.0,0.0005778195918537676
1664.0,-0.000992120592854917
1792.0,-0.0005739083862863481
1920.0,-6.125562504166737e-05
2048.0,-0.0017434984911233187
2304.0,-0.0006773416534997523
2560.0,-0.00017687823856249452
2816.0,-0.0004699680721387267
3072.0,-0.0009852306684479117
3328.0,-0.00027213001158088446
3584.0,0.00021676345204468817
3840.0,0.0008306344388984144
4096.0,0.00024791041505523026
4608.0,0.0009686213452368975
5120.0,0.0003202036605216563
5632.0,4.5582335587823763e-05
6144.0,-0.000891686649993062
6656.0,-0.001705562463030219
7168.0,-0.0015953087713569403
7680.0,-0.001987926196306944
8192.0,-0.0011764246737584472
end
