version,3.0
numOfCh,1
type,point
parent_name,c1204_1dot0-1dot0
ch_type,1_1
kcount,1
numberNandB,1
brightnessNandB,1
carpet pos,0
pc,0
Time (ms),CH1 Auto-Correlation
1.0,0.026425955817103386
2.0,0.0243082195520401
3.0,0.022476717829704285
4.0,0.020940521731972694
5.0,0.01962091028690338
6.0,0.018427403643727303
7.0,0.0173663143068552
8.0,0.016453295946121216
9.0,0.01562664285302162
10.0,0.01485934853553772
11.0,0.014140698127448559
12.0,0.013490171171724796
13.0,0.012930506840348244
14.0,0.012401865795254707
15.0,0.011881318874657154
16.0,0.011422556824982166
18.0,0.010605336166918278
20.0,0.009852202609181404
22.0,0.009088386781513691
24.0,0.008367861621081829
26.0,0.007683625910431147
28.0,0.007130926474928856
30.0,0.0066373031586408615
32.0,0.006268043536692858
36.0,0.005717242136597633
40.0,0.005227989982813597
44.0,0.005001105833798647
48.0,0.004749795887619257
52.0,0.004324763547629118
56.0,0.0038932785391807556
60.0,0.0036420971155166626
64.0,0.0036059452686458826
72.0,0.0036801458336412907
80.0,0.003573294263333082
88.0,0.003369556972756982
96.0,0.003133427584543824
104.0,0.0027387631125748158
112.0,0.0024701752699911594
120.0,0.0020827853586524725
128.0,0.001700451597571373
144.0,0.001108691212721169
160.0,0.001131492550484836
176.0,0.0012264162069186568
192.0,0.0016147480346262455
208.0,0.00037531444104388356
224.0,-0.0003707228461280465
240.0,-0.0009255571640096605
256.0,-0.0012580443872138858
288.0,-0.0009902362944558263
320.0,-0.0004698756674770266
352.0,-0.000757330737542361
384.0,-0.0007255523814819753
416.0,-0.0005799873033538461
448.0,-0.0001458611513953656
480.0,0.00031004007905721664
512.0,-0.00043183236266486347
576.0,0.000861499400343746
640.0,0.0011828304268419743
704.0,0.00047685427125543356
768.0,0.00022767213522456586
832.0,-0.0008151255315169692
896.0,-0.0013352785026654601
960.0,-0.0017593237571418285
1024.0,-0.0013675487134605646
1152.0,0.0006968770176172256
1280.0,-0.0003411444486118853
1408.0,-0.00038925124681554735
1536.0,-0.00025963172083720565
1664.0,-0.0005192426033318043
1792.0,-0.0006804766599088907
1920.0,-0.002175081754103303
2048.0,-0.0018935598200187087
2304.0,0.0005012541660107672
2560.0,-0.0002554182428866625
2816.0,-0.00021406581799965352
3072.0,6.938742444617674e-05
3328.0,0.0011464010458439589
3584.0,0.0002943801518995315
3840.0,0.00023933593183755875
4096.0,0.0005687522352673113
4608.0,-0.0005864506238140166
5120.0,-0.0007729735225439072
5632.0,0.00047630281187593937
6144.0,-0.00026290793903172016
6656.0,0.0006131955306045711
7168.0,0.0009707805002108216
7680.0,-0.000901378458365798
8192.0,0.00016701844288036227
end
