version,3.0
numOfCh,1
type,point
parent_name,c1204_1dot0-1dot0
ch_type,1_1
kcount,1
numberNandB,1
brightnessNandB,1
carpet pos,0
pc,0
Time (ms),CH1 Auto-Correlation
1.0,0.026108894497156143
2.0,0.023824699223041534
3.0,0.021969720721244812
4.0,0.02038661763072014
5.0,0.01899559609591961
6.0,0.01773981563746929
7.0,0.016691969707608223
8.0,0.015728751197457314
9.0,0.014827962964773178
10.0,0.014050505124032497
11.0,0.01331477053463459
12.0,0.01263162400573492
13.0,0.01200039405375719
14.0,0.011459322646260262
15.0,0.011067676357924938
16.0,0.01068726647645235
18.0,0.009980437345802784
20.0,0.009230634197592735
22.0,0.008655868470668793
24.0,0.00810291338711977
26.0,0.007517337799072266
28.0,0.0069878860376775265
30.0,0.0064745740965008736
32.0,0.005984327290207148
36.0,0.005261638667434454
40.0,0.004253676626831293
44.0,0.00327825965359807
48.0,0.0024350478779524565
52.0,0.0018596440786495805
56.0,0.001342281000688672
60.0,0.0009295250056311488
64.0,0.00037171351141296327
72.0,-0.00026132838684134185
80.0,-0.0007789591909386218
88.0,-0.0008603723254054785
96.0,-0.0008402113453485072
104.0,-0.0004708927299361676
112.0,0.00010549505532253534
120.0,0.0005661127506755292
128.0,0.0006020363653078675
144.0,0.00046621073852293193
160.0,0.0005050990148447454
176.0,0.0009380480041727424
192.0,0.001306670717895031
208.0,0.000966852530837059
224.0,0.001022628741338849
240.0,0.0014481793623417616
256.0,0.0015661052893847227
288.0,0.0007403885829262435
320.0,0.0005030975444242358
352.0,3.466650014161132e-05
384.0,0.00039277435280382633
416.0,-0.000342434155754745
448.0,0.0005581743316724896
480.0,0.0017901153769344091
512.0,0.0012824961449950933
576.0,0.00021517269487958401
640.0,0.0004406285297591239
704.0,4.2039882828248665e-05
768.0,0.001091724494472146
832.0,0.0005715684383176267
896.0,-0.0007267859182320535
960.0,3.5565219150157645e-05
1024.0,-0.0004023305664304644
1152.0,-0.0006270790472626686
1280.0,0.0004581131797749549
1408.0,-0.00023752318520564586
1536.0,0.00038181975833140314
1664.0,-0.0007459712214767933
1792.0,-0.0003254870534874499
1920.0,0.00020535485236905515
2048.0,0.0005026211147196591
2304.0,-0.0006280246889218688
2560.0,-0.0009585065417923033
2816.0,-0.0008493471541441977
3072.0,-0.0007974472246132791
3328.0,0.00010022173955803737
3584.0,0.00021270549041219056
3840.0,-0.00026701128808781505
4096.0,-4.03961785195861e-05
4608.0,-0.0004902345244772732
5120.0,0.00021883957379031926
5632.0,0.00017555992235429585
6144.0,-0.00010173332702834159
6656.0,-0.0001531903399154544
7168.0,0.0005105314194224775
7680.0,0.0004226693999953568
8192.0,0.000353094597812742
end
