version,3.0
numOfCh,1
type,point
parent_name,c1204_1dot0-1dot0
ch_type,1_1
kcount,1
numberNandB,1
brightnessNandB,1
carpet pos,0
pc,0
Time (ms),CH1 Auto-Correlation
1.0,0.027506068348884583
2.0,0.02525731548666954
3.0,0.02332141064107418
4.0,0.021629301831126213
5.0,0.02026917040348053
6.0,0.01911192014813423
7.0,0.018071481958031654
8.0,0.01713430881500244
9.0,0.016340237110853195
10.0,0.015606044791638851
11.0,0.014914212748408318
12.0,0.014258147217333317
13.0,0.013745379634201527
14.0,0.01321563869714737
15.0,0.012700064107775688
16.0,0.012193380855023861
18.0,0.011337273754179478
20.0,0.010439896956086159
22.0,0.009673301130533218
24.0,0.00900280475616455
26.0,0.00845432747155428
28.0,0.007886194624006748
30.0,0.007305931765586138
32.0,0.006795264780521393
36.0,0.005948059260845184
40.0,0.005477351136505604
44.0,0.004794799257069826
48.0,0.00440941983833909
52.0,0.004032700788229704
56.0,0.003627672092989087
60.0,0.003620652249082923
64.0,0.003402519738301635
72.0,0.002831621328368783
80.0,0.0027755028568208218
88.0,0.0026957690715789795
96.0,0.0030550400260835886
104.0,0.0031323586590588093
112.0,0.003016405738890171
120.0,0.002451849402859807
128.0,0.001868662191554904
144.0,0.0011825707042589784
160.0,0.0019027723465114832
176.0,0.0026229708455502987
192.0,0.002621700055897236
208.0,0.0019196415087208152
224.0,0.0015267690178006887
240.0,0.0006239454378373921
256.0,0.0005233928095549345
288.0,0.00017957290401682258
320.0,-0.0009651800501160324
352.0,-0.0019088725093752146
384.0,-0.0006099844467826188
416.0,-0.0011818232014775276
448.0,-0.0010107262060046196
480.0,-0.0004438752948772162
512.0,0.0002752265427261591
576.0,-0.0007843548082746565
640.0,-4.830094013641428e-08
704.0,-0.00025527170510031283
768.0,-0.00025076139718294144
832.0,-0.00020560635311994702
896.0,-8.200109004974365e-05
960.0,0.00046143896179273725
1024.0,0.0005391890881583095
1152.0,-0.00013647665036842227
1280.0,-0.0002478058449923992
1408.0,-0.0007071646396070719
1536.0,-0.0008526253513991833
1664.0,0.00037909962702542543
1792.0,0.0009760429966263473
1920.0,7.947997801238671e-05
2048.0,-0.0017014851327985525
2304.0,-0.0009776955703273416
2560.0,-0.0005241399630904198
2816.0,0.0008901026449166238
3072.0,-2.9209534204710508e-06
3328.0,-0.00013891457638237625
3584.0,0.0003052592510357499
3840.0,0.0002863518020603806
4096.0,-0.0005154892569407821
4608.0,-0.0004951916635036469
5120.0,0.0009624694939702749
5632.0,-0.0012446488253772259
6144.0,0.0009519315208308399
6656.0,-0.00010612235928419977
7168.0,-0.0015144230565056205
7680.0,0.000780267349909991
8192.0,-0.0005082360585220158
end
