version,3.0
numOfCh,1
type,point
parent_name,c1204_1dot0-1dot0
ch_type,1_1
kcount,1
numberNandB,1
brightnessNandB,1
carpet pos,0
pc,0
Time (ms),CH1 Auto-Correlation
1.0,0.02740895189344883
2.0,0.025269832462072372
3.0,0.023470528423786163
4.0,0.02192028984427452
5.0,0.020586416125297546
6.0,0.01942804455757141
7.0,0.0183738823980093
8.0,0.01747673936188221
9.0,0.01667848974466324
10.0,0.015854498371481895
11.0,0.01507980190217495
12.0,0.014372946694493294
13.0,0.013675035908818245
14.0,0.013106354512274265
15.0,0.012588437646627426
16.0,0.012117624282836914
18.0,0.011068878695368767
20.0,0.01013291534036398
22.0,0.009438636712729931
24.0,0.008931497111916542
26.0,0.008580678142607212
28.0,0.008072607219219208
30.0,0.007586312480270863
32.0,0.0071157426573336124
36.0,0.0064033158123493195
40.0,0.005824513733386993
44.0,0.00529418233782053
48.0,0.004751080181449652
52.0,0.004266839008778334
56.0,0.00392811419442296
60.0,0.003552802372723818
64.0,0.003197010140866041
72.0,0.0027827932499349117
80.0,0.002383397426456213
88.0,0.002040884457528591
96.0,0.0021485702600330114
104.0,0.002066969871520996
112.0,0.0022830909583717585
120.0,0.0023942645639181137
128.0,0.001988503849133849
144.0,0.0015414333902299404
160.0,0.0011980076087638736
176.0,0.001058611087501049
192.0,0.00035467572160996497
208.0,0.0005928387981839478
224.0,0.0001935563632287085
240.0,0.0003623571537900716
256.0,0.0007340740412473679
288.0,0.00025590535369701684
320.0,0.0007894102018326521
352.0,0.0001820747129386291
384.0,-0.0012938797008246183
416.0,-0.0016569129657000303
448.0,-0.0006047470378689468
480.0,3.081351678702049e-05
512.0,-0.0009039374417625368
576.0,-0.0011814318131655455
640.0,-0.0018714612815529108
704.0,0.00037530914414674044
768.0,0.0002856776991393417
832.0,0.0005490201874636114
896.0,0.001478360267356038
960.0,0.0011957504320889711
1024.0,0.00014692367403768003
1152.0,0.00020746946393046528
1280.0,4.4376964069670066e-05
1408.0,-0.00015544326743111014
1536.0,-0.00010649467003531754
1664.0,-0.0013158359797671437
1792.0,0.0003683874965645373
1920.0,0.0006523640477098525
2048.0,0.00045487721217796206
2304.0,0.0005196768906898797
2560.0,-0.0011643387842923403
2816.0,-0.0013534743338823318
3072.0,0.0005561572033911943
3328.0,0.0009979944443330169
3584.0,-0.0003669378056656569
3840.0,-0.0003384078445378691
4096.0,0.00026600342243909836
4608.0,-8.261168841272593e-05
5120.0,-0.0016118718776851892
5632.0,-0.00100477016530931
6144.0,0.00013537374616134912
6656.0,0.00028946856036782265
7168.0,0.0005791194271296263
7680.0,0.0005305341328494251
8192.0,0.0013119506184011698
end
