version,3.0
numOfCh,1
type,point
parent_name,c1204_1dot0-1dot0
ch_type,1_1
kcount,1
numberNandB,1
brightnessNandB,1
carpet pos,0
pc,0
Time (ms),CH1 Auto-Correlation
1.0,0.028484854847192764
2.0,0.02629050612449646
3.0,0.024446578696370125
4.0,0.022773124277591705
5.0,0.021329525858163834
6.0,0.02009560912847519
7.0,0.01893504709005356
8.0,0.017945216968655586
9.0,0.017007673159241676
10.0,0.01616373099386692
11.0,0.015404043719172478
12.0,0.014720650389790535
13.0,0.014042343012988567
14.0,0.013463749550282955
15.0,0.012909245677292347
16.0,0.012482083402574062
18.0,0.011720010079443455
20.0,0.01091795600950718
22.0,0.0100735854357481
24.0,0.009354246780276299
26.0,0.008846858516335487
28.0,0.008408676832914352
30.0,0.008035664446651936
32.0,0.0075760469771921635
36.0,0.006630329415202141
40.0,0.005678065586835146
44.0,0.004850035533308983
48.0,0.004162306897342205
52.0,0.003349501406773925
56.0,0.0026372401043772697
60.0,0.0021278730127960443
64.0,0.0018748077563941479
72.0,0.0014079459942877293
80.0,0.0013078930787742138
88.0,0.0008676111465319991
96.0,-0.00026311399415135384
104.0,-0.001244714600034058
112.0,-0.0009889532811939716
120.0,-0.0005834419862367213
128.0,-0.000376387732103467
144.0,-0.0002249368408229202
160.0,0.00027155590942129493
176.0,-0.00010283741721650586
192.0,0.0002530133642721921
208.0,0.0005208814982324839
224.0,0.0009415032691322267
240.0,0.001065755495801568
256.0,0.0007196392398327589
288.0,9.302239050157368e-05
320.0,-0.00033467283356003463
352.0,7.914522575447336e-05
384.0,0.0014521409757435322
416.0,0.0010910066775977612
448.0,-0.0003140668850392103
480.0,-0.001676240237429738
512.0,-0.0015041407896205783
576.0,0.0004691076755989343
640.0,0.00021612925047520548
704.0,-0.0003527892113197595
768.0,-0.0015061774756759405
832.0,-0.0005189072107896209
896.0,-0.0022440894972532988
960.0,-0.001219525933265686
1024.0,-0.0016218858072534204
1152.0,-0.0002995409013237804
1280.0,-0.0014852385502308607
1408.0,0.0002688361273612827
1536.0,0.0013127202400937676
1664.0,2.7395830329624005e-05
1792.0,-0.0003805446031037718
1920.0,-1.565656748425681e-05
2048.0,0.00045405564014799893
2304.0,-0.00030369925661943853
2560.0,0.0006593219004571438
2816.0,-0.0006753492052666843
3072.0,-7.371840911218897e-05
3328.0,-0.0004986186977475882
3584.0,-0.00011380197247490287
3840.0,0.0006676182965748012
4096.0,0.001425468479283154
4608.0,-0.0002790434518828988
5120.0,-0.0003156788006890565
5632.0,-0.00025490994448773563
6144.0,-0.0007420064648613334
6656.0,0.0008350173011422157
7168.0,0.0010258309775963426
7680.0,-7.250980706885457e-05
8192.0,-0.0008894928032532334
end
