version,3.0
numOfCh,1
type,point
parent_name,c1204_1dot0-1dot0
ch_type,1_1
kcount,1
numberNandB,1
brightnessNandB,1
carpet pos,0
pc,0
Time (ms),CH1 Auto-Correlation
1.0,0.028416959568858147
2.0,0.026174062862992287
3.0,0.024303924292325974
4.0,0.022730665281414986
5.0,0.02133595012128353
6.0,0.02008613385260105
7.0,0.01901465468108654
8.0,0.018050827085971832
9.0,0.017149217426776886
10.0,0.01629876159131527
11.0,0.01555699948221445
12.0,0.014914175495505333
13.0,0.014353069476783276
14.0,0.01384828332811594
15.0,0.013405859470367432
16.0,0.013035171665251255
18.0,0.012346337549388409
20.0,0.011729666963219643
22.0,0.011356820352375507
24.0,0.010956823825836182
26.0,0.010413906536996365
28.0,0.009761417284607887
30.0,0.009202955290675163
32.0,0.008725711144506931
36.0,0.0077568115666508675
40.0,0.007141961250454187
44.0,0.006300654262304306
48.0,0.005578134674578905
52.0,0.004976355005055666
56.0,0.004833969287574291
60.0,0.004724819213151932
64.0,0.004561064764857292
72.0,0.00393338967114687
80.0,0.0035896976478397846
88.0,0.003040478564798832
96.0,0.002754987683147192
104.0,0.0025436764117330313
112.0,0.0024929773062467575
120.0,0.0027637332677841187
128.0,0.002406110754236579
144.0,0.001605252386070788
160.0,0.001109981443732977
176.0,0.0008140315767377615
192.0,0.0007507292903028429
208.0,0.0005954326479695737
224.0,0.00046227453276515007
240.0,-9.652235166868195e-05
256.0,0.0002814477775245905
288.0,-0.0010719757992774248
320.0,-0.0010931157739832997
352.0,-0.000793447601608932
384.0,0.00036575461854226887
416.0,7.906404789537191e-05
448.0,-0.00016756819968577474
480.0,-0.0010241945274174213
512.0,-0.0015673008747398853
576.0,-0.0003708183066919446
640.0,0.00020026318088639528
704.0,-3.5939901863457635e-05
768.0,0.0003505251370370388
832.0,-0.00059655518271029
896.0,-0.0021186741068959236
960.0,-0.0008237735601142049
1024.0,-0.001839449512772262
1152.0,-0.0013791087549179792
1280.0,-0.0015480458969250321
1408.0,-0.00019234302453696728
1536.0,0.0001057077752193436
1664.0,-0.0008018866064958274
1792.0,-0.0005593347013927996
1920.0,-0.0003769690520130098
2048.0,0.0012661530636250973
2304.0,0.0023485671263188124
2560.0,0.0016840525204315782
2816.0,-0.0011099815601482987
3072.0,-0.001276038703508675
3328.0,-0.001333989086560905
3584.0,-0.00016348961798939854
3840.0,-0.0009927067440003157
4096.0,0.0006514125852845609
4608.0,0.0006446770275942981
5120.0,0.00013858740567229688
5632.0,-0.00039398460648953915
6144.0,-0.001017131726257503
6656.0,0.0007267821929417551
7168.0,-0.0015126797370612621
7680.0,0.00010931135329883546
8192.0,-0.00013322275481186807
end
