version,3.0
numOfCh,1
type,point
parent_name,c1204_1dot0-1dot0
ch_type,1_1
kcount,1
numberNandB,1
brightnessNandB,1
carpet pos,0
pc,0
Time (ms),CH1 Auto-Correlation
1.0,0.02651972323656082
2.0,0.024278780445456505
3.0,0.02245422638952732
4.0,0.02090996317565441
5.0,0.01955307088792324
6.0,0.01833617128431797
7.0,0.01734493114054203
8.0,0.01648120954632759
9.0,0.01564168557524681
10.0,0.01483838725835085
11.0,0.01413840800523758
12.0,0.013449895195662975
13.0,0.012783643789589405
14.0,0.012147348374128342
15.0,0.01152707077562809
16.0,0.01095352042466402
18.0,0.009895152412354946
20.0,0.00894518569111824
22.0,0.008163738995790482
24.0,0.007557646371424198
26.0,0.007223770022392273
28.0,0.006906788796186447
30.0,0.006481463555246592
32.0,0.006122011225670576
36.0,0.005659828428179026
40.0,0.005252243019640446
44.0,0.004651843570172787
48.0,0.004060215782374144
52.0,0.003466525347903371
56.0,0.00304021337069571
60.0,0.0028518300969153643
64.0,0.002674785675480962
72.0,0.00239374628290534
80.0,0.0018444431480020285
88.0,0.0012273254105821252
96.0,0.0008251240942627192
104.0,0.0005943964933976531
112.0,0.0003182170039508492
120.0,0.00019200243696104735
128.0,0.0002458342642057687
144.0,-1.8717946659307927e-05
160.0,-0.0005534217925742269
176.0,-0.0008308496326208115
192.0,-0.0006610985146835446
208.0,-0.0006204242818057537
224.0,-0.0007128246943466365
240.0,0.0002714643778745085
256.0,0.0005064931465312839
288.0,-0.00017971372290048748
320.0,-0.0007499501225538552
352.0,-6.360224506352097e-05
384.0,0.00029630804783664644
416.0,0.0003767551970668137
448.0,-0.0009487243369221687
480.0,-0.0008280063630081713
512.0,-0.0006082143518142402
576.0,-0.0008129208581522107
640.0,0.00012451077054720372
704.0,-0.00011920158431166783
768.0,2.3482933102059178e-05
832.0,-0.0002100236451951787
896.0,-0.0006610326236113906
960.0,-0.0004471240390557796
1024.0,0.00015890946087893099
1152.0,-0.00044268963392823935
1280.0,-0.0007450210978277028
1408.0,0.0005288522806949914
1536.0,0.0014433441683650017
1664.0,0.0002906646113842726
1792.0,-5.0722886953735724e-05
1920.0,0.0005907613667659461
2048.0,-0.0003626508987508714
2304.0,-0.0003587061946745962
2560.0,-0.0009250487200915813
2816.0,-0.0009671989246271551
3072.0,0.0003234890173189342
3328.0,0.0007917914190329611
3584.0,-0.0005914735374972224
3840.0,-0.0007172994082793593
4096.0,-0.0003366563469171524
4608.0,0.00011247999646002427
5120.0,-0.00022806196648161858
5632.0,1.6455689547001384e-05
6144.0,0.00031141721410676837
6656.0,-6.652519368799403e-05
7168.0,-0.0001285114703932777
7680.0,0.0005219661979936063
8192.0,0.0002769895945675671
end
