version,3.0
numOfCh,1
type,point
parent_name,c1204_1dot0-1dot0
ch_type,1_1
kcount,1
numberNandB,1
brightnessNandB,1
carpet pos,0
pc,0
Time (ms),CH1 Auto-Correlation
1.0,0.027698198333382607
2.0,0.02556866966187954
3.0,0.023654110729694366
4.0,0.022002054378390312
5.0,0.020575305446982384
6.0,0.01933610998094082
7.0,0.018305297940969467
8.0,0.01726890541613102
9.0,0.016410045325756073
10.0,0.01567310281097889
11.0,0.01501960027962923
12.0,0.014402863569557667
13.0,0.013814501464366913
14.0,0.01321916189044714
15.0,0.012668618001043797
16.0,0.012161805294454098
18.0,0.011166221462190151
20.0,0.010339543223381042
22.0,0.009754139930009842
24.0,0.009318348951637745
26.0,0.008759571239352226
28.0,0.008206376805901527
30.0,0.007831983268260956
32.0,0.007598923519253731
36.0,0.007229950744658709
40.0,0.006704727187752724
44.0,0.006184142082929611
48.0,0.0059081255458295345
52.0,0.0054907179437577724
56.0,0.004819084424525499
60.0,0.0042791785672307014
64.0,0.004053837154060602
72.0,0.0037517142482101917
80.0,0.003344255732372403
88.0,0.0026752008125185966
96.0,0.001824429607950151
104.0,0.0015513215912505984
112.0,0.0013737883418798447
120.0,0.0007324781618081033
128.0,-6.963632040424272e-05
144.0,-0.0003842847072519362
160.0,-0.0003915927081834525
176.0,0.00011577825353015214
192.0,0.0011660271557047963
208.0,0.0010475757298991084
224.0,0.00010921090870397165
240.0,0.0008942388813011348
256.0,0.0014849192230030894
288.0,0.0005505711305886507
320.0,8.087464811978862e-05
352.0,0.0008539596456103027
384.0,9.324153506895527e-05
416.0,0.0003057340800296515
448.0,0.00016387311916332692
480.0,-0.00011951960186706856
512.0,-0.0006261261296458542
576.0,-0.000965822022408247
640.0,-0.00039327831473201513
704.0,0.001618972746655345
768.0,0.0016259575495496392
832.0,0.00052142224740237
896.0,0.0004008607938885689
960.0,-0.00020466827845666558
1024.0,-0.00011533532233443111
1152.0,0.0020282845944166183
1280.0,0.00046820371062494814
1408.0,0.0011082513956353068
1536.0,-0.0003888018545694649
1664.0,-0.0026797116734087467
1792.0,-0.00045405220589600503
1920.0,0.0003318226954434067
2048.0,-0.0019195381319150329
2304.0,0.00015841594722587615
2560.0,8.185230399249122e-06
2816.0,-0.0013343959581106901
3072.0,-0.0015541992615908384
3328.0,0.0008229209925048053
3584.0,0.0005271913832984865
3840.0,0.0009146966622211039
4096.0,-0.0011630309745669365
4608.0,0.00015984353376552463
5120.0,-0.000390642206184566
5632.0,0.0006714675109833479
6144.0,0.0008003778639249504
6656.0,0.000752242049202323
7168.0,0.00010351990204071626
7680.0,-0.0007207873277366161
8192.0,-0.0010487831896170974
end
