version,3.0
numOfCh,1
type,point
parent_name,c1204_1dot0-1dot0
ch_type,1_1
kcount,1
numberNandB,1
brightnessNandB,1
carpet pos,0
pc,0
Time (ms),CH1 Auto-Correlation
1.0,0.02601046673953533
2.0,0.02381020225584507
3.0,0.021908137947320938
4.0,0.02025573141872883
5.0,0.01879938133060932
6.0,0.01750289462506771
7.0,0.016368843615055084
8.0,0.015413234010338783
9.0,0.014530437998473644
10.0,0.013740751892328262
11.0,0.012997262179851532
12.0,0.012404875829815865
13.0,0.011894368566572666
14.0,0.011416519992053509
15.0,0.010998736135661602
16.0,0.010579834692180157
18.0,0.00984014943242073
20.0,0.009183949790894985
22.0,0.008508648723363876
24.0,0.007879065349698067
26.0,0.0072366464883089066
28.0,0.006865238770842552
30.0,0.006498109549283981
32.0,0.006110506132245064
36.0,0.0054726144298911095
40.0,0.005177764222025871
44.0,0.004717162344604731
48.0,0.004221232607960701
52.0,0.0038159089162945747
56.0,0.003529878566041589
60.0,0.0034600410144776106
64.0,0.0031509818509221077
72.0,0.00247893575578928
80.0,0.002023941371589899
88.0,0.002241485519334674
96.0,0.002262804890051484
104.0,0.00232651992700994
112.0,0.002245720010250807
120.0,0.0022287522442638874
128.0,0.002105310093611479
144.0,0.0017396134790033102
160.0,0.0010638772509992123
176.0,0.000865244132000953
192.0,0.0009885533945634961
208.0,0.00122945720795542
224.0,0.00097696203738451
240.0,0.0011690902756527066
256.0,0.0012842232827097178
288.0,0.0018602698110044003
320.0,0.0031345412135124207
352.0,0.0018554090056568384
384.0,0.001361984177492559
416.0,0.0011676972499117255
448.0,0.0003345638106111437
480.0,-0.0004086452827323228
512.0,0.0005629335646517575
576.0,-0.0006542088813148439
640.0,-0.00029664585599675775
704.0,-0.00021045668108854443
768.0,-0.00022678471577819437
832.0,-0.0007103499374352396
896.0,-0.000886536028701812
960.0,-0.0014768296387046576
1024.0,-0.0003903814940713346
1152.0,0.00015085507766343653
1280.0,-0.0008103963918983936
1408.0,7.260670099640265e-05
1536.0,-0.0003118080203421414
1664.0,0.0007211689371615648
1792.0,0.0011863524559885263
1920.0,0.0004442703502718359
2048.0,-0.0005297325551509857
2304.0,-0.0010087491245940328
2560.0,-0.0009103387128561735
2816.0,0.00022252838243730366
3072.0,0.000401181256165728
3328.0,0.0002667988301254809
3584.0,1.3341781595954672e-05
3840.0,0.00012198441982036456
4096.0,-0.0007829011883586645
4608.0,-0.0007453409489244223
5120.0,-0.0008977649267762899
5632.0,-0.0006523774354718626
6144.0,0.00022479682229459286
6656.0,0.001063424744643271
7168.0,-0.0004295076651033014
7680.0,-0.0009205576498061419
8192.0,3.899279545294121e-05
end
