version,3.0
numOfCh,1
type,point
parent_name,c1204_1dot0-1dot0
ch_type,1_1
kcount,1
numberNandB,1
brightnessNandB,1
carpet pos,0
pc,0
Time (ms),CH1 Auto-Correlation
1.0,0.025770898908376694
2.0,0.02368534915149212
3.0,0.021948333829641342
4.0,0.02039305679500103
5.0,0.018961405381560326
6.0,0.017674356698989868
7.0,0.016608746722340584
8.0,0.01570969820022583
9.0,0.014896550215780735
10.0,0.014112980104982853
11.0,0.013422353193163872
12.0,0.012782788835465908
13.0,0.012140227481722832
14.0,0.011523669585585594
15.0,0.010944876819849014
16.0,0.010323718190193176
18.0,0.009341993369162083
20.0,0.008579293265938759
22.0,0.007839355617761612
24.0,0.007089592516422272
26.0,0.006374002434313297
28.0,0.005814779084175825
30.0,0.005434724036604166
32.0,0.0050666010938584805
36.0,0.0044960742816329
40.0,0.0039026471786201
44.0,0.003508663037791848
48.0,0.003195183351635933
52.0,0.002917035948485136
56.0,0.0024945642799139023
60.0,0.002320646308362484
64.0,0.0021537761203944683
72.0,0.0021957324352115393
80.0,0.0019422181649133563
88.0,0.0016850146930664778
96.0,0.0015894039534032345
104.0,0.0015354061033576727
112.0,0.0014695292338728905
120.0,0.0011253954144194722
128.0,0.001386974356137216
144.0,0.0016641590045765042
160.0,0.0016938039334490895
176.0,0.0012867532204836607
192.0,0.000474407832371071
208.0,0.0008447212167084217
224.0,0.0015213536098599434
240.0,0.001188730588182807
256.0,0.00047267929767258465
288.0,7.106346401997143e-06
320.0,0.0005721017369069159
352.0,0.0008773676818236709
384.0,0.0009923496982082725
416.0,0.001690722769126296
448.0,0.0006709934677928686
480.0,0.0007512933225370944
512.0,0.0009281464735977352
576.0,0.00029032767633907497
640.0,9.258768113795668e-05
704.0,0.001171110663563013
768.0,3.4372922527836636e-05
832.0,0.0004259934648871422
896.0,0.00016627830336801708
960.0,7.675831875531003e-05
1024.0,-0.000752452586311847
1152.0,-0.0005895178182981908
1280.0,-0.00022375523985829204
1408.0,-0.00030742428498342633
1536.0,-0.0012064374750480056
1664.0,0.0007080962532199919
1792.0,0.0005290202680043876
1920.0,-0.000823256908915937
2048.0,-0.00039235028089024127
2304.0,-0.0002460595569573343
2560.0,0.0010093627497553825
2816.0,0.000486136443214491
3072.0,9.05021297512576e-05
3328.0,-0.0001431159325875342
3584.0,-0.0008530565537512302
3840.0,-0.00045506490278057754
4096.0,0.0005284500657580793
4608.0,-0.0010424942011013627
5120.0,7.2885537520051e-05
5632.0,-0.0005698867025785148
6144.0,-0.001047339173965156
6656.0,0.0004051170835737139
7168.0,-0.0010306331096217036
7680.0,-6.42587838228792e-05
8192.0,-0.0004292793746571988
end
