version,3.0
numOfCh,1
type,point
parent_name,c1204_1dot0-1dot0
ch_type,1_1
kcount,1
numberNandB,1
brightnessNandB,1
carpet pos,0
pc,0
Time (ms),CH1 Auto-Correlation
1.0,0.029371388256549835
2.0,0.02715251035988331
3.0,0.025257674977183342
4.0,0.02361229434609413
5.0,0.022082269191741943
6.0,0.020747922360897064
7.0,0.019538303837180138
8.0,0.01845153048634529
9.0,0.017443640157580376
10.0,0.016602404415607452
11.0,0.01584623195230961
12.0,0.015114007517695427
13.0,0.014479607343673706
14.0,0.013900081627070904
15.0,0.013385132886469364
16.0,0.012912960723042488
18.0,0.012024466879665852
20.0,0.011322925798594952
22.0,0.01066073589026928
24.0,0.010109255090355873
26.0,0.009630783461034298
28.0,0.009172366000711918
30.0,0.00878683291375637
32.0,0.0083385668694973
36.0,0.007528333924710751
40.0,0.006665384396910667
44.0,0.005816686432808638
48.0,0.005193870514631271
52.0,0.00459793396294117
56.0,0.004265929106622934
60.0,0.004006152506917715
64.0,0.003894477616995573
72.0,0.0038321265019476414
80.0,0.003473604330793023
88.0,0.0027779412921518087
96.0,0.002281991997733712
104.0,0.0016585832927376032
112.0,0.00144207663834095
120.0,0.0014696904690936208
128.0,0.001412905054166913
144.0,0.0013124406104907393
160.0,0.0015861582942306995
176.0,0.001992203760892153
192.0,0.002238669665530324
208.0,0.002374199917539954
224.0,0.002276398241519928
240.0,0.0020878545474261045
256.0,0.001647805329412222
288.0,0.0004877754545304924
320.0,0.0002995166869368404
352.0,-0.00037390601937659085
384.0,-0.0007081680232658982
416.0,-0.0007344387122429907
448.0,-0.0004883146611973643
480.0,-0.0017811949364840984
512.0,-0.0011157788103446364
576.0,0.0007225354202091694
640.0,-0.00013081154611427337
704.0,-0.001928388373926282
768.0,-0.0009886074112728238
832.0,-0.0004908247501589358
896.0,-0.00018770562019199133
960.0,0.00027532619424164295
1024.0,0.0003095515421591699
1152.0,0.0004416285373736173
1280.0,-0.00036857370287179947
1408.0,0.0009688115096651018
1536.0,0.001564036007039249
1664.0,0.000901870836969465
1792.0,-0.0007851345581002533
1920.0,-0.001685236464254558
2048.0,-0.0009091984829865396
2304.0,0.0004454932059161365
2560.0,5.9929916460532695e-05
2816.0,0.0001412804122082889
3072.0,0.0014424965484067798
3328.0,-0.0009168755495920777
3584.0,-0.0005904690478928387
3840.0,0.0018566292710602283
4096.0,0.0008814806351438165
4608.0,0.0004277830303180963
5120.0,-0.0002902251435443759
5632.0,-0.0002470711770001799
6144.0,0.0011976833920925856
6656.0,-0.0005374238244257867
7168.0,-0.0015621758066117764
7680.0,0.0010470743291079998
8192.0,-0.0009384975419379771
end
