version,3.0
numOfCh,1
type,point
parent_name,c1204_1dot0-1dot0
ch_type,1_1
kcount,1
numberNandB,1
brightnessNandB,1
carpet pos,0
pc,0
Time (ms),CH1 Auto-Correlation
1.0,0.030199822038412094
2.0,0.028067519888281822
3.0,0.026279829442501068
4.0,0.02471954934298992
5.0,0.02335861697793007
6.0,0.02208765596151352
7.0,0.021041782572865486
8.0,0.020192723721265793
9.0,0.01932682655751705
10.0,0.01852618157863617
11.0,0.01779639907181263
12.0,0.017109857872128487
13.0,0.01652495376765728
14.0,0.015994295477867126
15.0,0.015498900786042213
16.0,0.014991343952715397
18.0,0.01408289559185505
20.0,0.013212709687650204
22.0,0.012380188331007957
24.0,0.01161623653024435
26.0,0.010887826792895794
28.0,0.010228653438389301
30.0,0.009476660750806332
32.0,0.008880416862666607
36.0,0.008061864413321018
40.0,0.007465783506631851
44.0,0.007033429108560085
48.0,0.006737551651895046
52.0,0.006303479894995689
56.0,0.00588067015632987
60.0,0.0056969644501805305
64.0,0.005278484895825386
72.0,0.004625678528100252
80.0,0.00441641453653574
88.0,0.0038530277088284492
96.0,0.0037476886063814163
104.0,0.0036221693735569715
112.0,0.0032198303379118443
120.0,0.0028008336666971445
128.0,0.002743619028478861
144.0,0.001791526679880917
160.0,0.0002818836073856801
176.0,-0.00022049374820198864
192.0,-0.00020110828336328268
208.0,-0.0006189315463416278
224.0,0.0001253148657269776
240.0,4.02433579438366e-05
256.0,-0.0008450948516838253
288.0,-0.0010937756160274148
320.0,-0.00030210288241505623
352.0,0.0003127047384623438
384.0,0.000255762628512457
416.0,0.0007987905410118401
448.0,0.0013535235775634646
480.0,0.00022663069830741733
512.0,-0.0009567113011144102
576.0,-0.00150912010576576
640.0,-0.002557700965553522
704.0,-0.002172185340896249
768.0,-0.0027335798367857933
832.0,-0.0014993086224421859
896.0,-0.002572632860392332
960.0,-0.001663678209297359
1024.0,-0.00158484629355371
1152.0,0.0017235969426110387
1280.0,0.001131112570874393
1408.0,-0.00027224948280490935
1536.0,0.0001841157500166446
1664.0,9.874233364826068e-05
1792.0,-0.0016209674067795277
1920.0,-0.0020836233161389828
2048.0,-0.0006487360806204379
2304.0,0.0014887932920828462
2560.0,0.0007627895683981478
2816.0,0.001959973480552435
3072.0,-0.0017426249105483294
3328.0,-0.0024070916697382927
3584.0,0.00038212648360058665
3840.0,0.0004695449897553772
4096.0,0.002258035121485591
4608.0,-0.0007187440060079098
5120.0,0.0003304141864646226
5632.0,-0.0010875110747292638
6144.0,-5.61648541008708e-08
6656.0,0.001087905839085579
7168.0,-0.0018725416157394648
7680.0,-0.00027241354109719396
8192.0,0.0015531795797869563
end
