version,3.0
numOfCh,1
type,point
parent_name,c1204_1dot0-1dot0
ch_type,1_1
kcount,1
numberNandB,1
brightnessNandB,1
carpet pos,0
pc,0
Time (ms),CH1 Auto-Correlation
1.0,0.028074651956558228
2.0,0.025930019095540047
3.0,0.024052001535892487
4.0,0.022469544783234596
5.0,0.02110394276678562
6.0,0.019862841814756393
7.0,0.018778370693325996
8.0,0.017818234860897064
9.0,0.016931405290961266
10.0,0.01617351919412613
11.0,0.015501138754189014
12.0,0.014832639135420322
13.0,0.014193008653819561
14.0,0.01370682381093502
15.0,0.013171057216823101
16.0,0.012656085193157196
18.0,0.011826840229332447
20.0,0.011230857111513615
22.0,0.010571375489234924
24.0,0.010020316578447819
26.0,0.009416352957487106
28.0,0.008727728389203548
30.0,0.008131706155836582
32.0,0.007637511473149061
36.0,0.006593854166567326
40.0,0.005913256201893091
44.0,0.005097414366900921
48.0,0.004350462928414345
52.0,0.0037800748832523823
56.0,0.0033511535730212927
60.0,0.0029441199731081724
64.0,0.002660000929608941
72.0,0.0023583106230944395
80.0,0.0020535828080028296
88.0,0.002233350183814764
96.0,0.0024890045169740915
104.0,0.002555552404373884
112.0,0.0026690165977925062
120.0,0.0023555653169751167
128.0,0.0019349849317222834
144.0,0.0013453057035803795
160.0,0.001229678513482213
176.0,0.001886300160549581
192.0,0.0013485561357811093
208.0,0.0009996355511248112
224.0,0.00020538845274131745
240.0,-4.274599632481113e-05
256.0,-0.0003743807610590011
288.0,-0.0008715755539014935
320.0,-0.00040728371823206544
352.0,-0.00031135606695897877
384.0,0.00021539360750466585
416.0,-0.0007434673025272787
448.0,-0.0006836334941908717
480.0,-0.00016850046813488007
512.0,0.0007039826596155763
576.0,0.0015769272577017546
640.0,0.0007263903389684856
704.0,-0.00027668679831549525
768.0,-0.00028243917040526867
832.0,-0.0008249609381891787
896.0,-0.0006350912153720856
960.0,-0.0001479397324146703
1024.0,-0.00031481566838920116
1152.0,-1.5627376342308708e-05
1280.0,0.001140056410804391
1408.0,0.0006400786223821342
1536.0,0.0006494655972346663
1664.0,0.0005911713815294206
1792.0,0.001121192122809589
1920.0,0.0014563824515789747
2048.0,0.0003933552943635732
2304.0,0.00035545695573091507
2560.0,0.0007430812693201005
2816.0,0.0001891842548502609
3072.0,0.0007869529654271901
3328.0,-0.00029669603100046515
3584.0,4.289091157261282e-05
3840.0,-0.00046761095291003585
4096.0,0.0012614668812602758
4608.0,-0.0006670355214737356
5120.0,-0.0003431826480664313
5632.0,-6.751032924512401e-05
6144.0,0.0005239862366579473
6656.0,-0.001067825360223651
7168.0,-0.000352625414961949
7680.0,-0.0006677151541225612
8192.0,-0.0011869091540575027
end
