version,3.0
numOfCh,1
type,point
parent_name,c1204_1dot0-1dot0
ch_type,1_1
kcount,1
numberNandB,1
brightnessNandB,1
carpet pos,0
pc,0
Time (ms),CH1 Auto-Correlation
1.0,0.027190307155251503
2.0,0.025015316903591156
3.0,0.023236850276589394
4.0,0.02171609178185463
5.0,0.020389113575220108
6.0,0.01913212612271309
7.0,0.017947843298316002
8.0,0.01688203774392605
9.0,0.015922555699944496
10.0,0.015059327706694603
11.0,0.014326031319797039
12.0,0.01360065396875143
13.0,0.012927361764013767
14.0,0.012246569618582726
15.0,0.011673355475068092
16.0,0.011205502785742283
18.0,0.010284103453159332
20.0,0.009390171617269516
22.0,0.008584296330809593
24.0,0.007878348231315613
26.0,0.0072537739761173725
28.0,0.006616804748773575
30.0,0.0060918512754142284
32.0,0.005555399227887392
36.0,0.004761334042996168
40.0,0.004168059676885605
44.0,0.003571771550923586
48.0,0.002986651612445712
52.0,0.0024910231586545706
56.0,0.001958119682967663
60.0,0.0015968759544193745
64.0,0.0013204952701926231
72.0,0.0010989713482558727
80.0,0.0009719636873342097
88.0,0.0009128049714490771
96.0,0.0009559165919199586
104.0,0.0007574719493277371
112.0,0.0002915722143370658
120.0,-5.876812065253034e-05
128.0,-2.1809328245581128e-05
144.0,-0.0007135474006645381
160.0,-0.000744655670132488
176.0,-0.00015838020772207528
192.0,-0.00022173378965817392
208.0,-0.0006384685984812677
224.0,-0.00015033918316476047
240.0,0.0004285872564651072
256.0,0.0004074298485647887
288.0,0.0004442864446900785
320.0,-0.00048201196477748454
352.0,-7.275337702594697e-05
384.0,-0.0014918032102286816
416.0,-0.0011616001138463616
448.0,-0.0006413576193153858
480.0,-0.0008642347529530525
512.0,-0.0005226008361205459
576.0,-0.0003259590012021363
640.0,0.0002555015089455992
704.0,0.0005597567651420832
768.0,-0.0005519493133760989
832.0,-0.0005081755225546658
896.0,-0.0003549724933691323
960.0,0.00029614337836392224
1024.0,0.0005523959989659488
1152.0,9.186403985950164e-06
1280.0,0.0008788442355580628
1408.0,1.6328613128280267e-05
1536.0,0.00045055896043777466
1664.0,-0.0009882202139124274
1792.0,-0.0009222487569786608
1920.0,-0.0002982119913212955
2048.0,-0.0007631945190951228
2304.0,3.222999657737091e-05
2560.0,0.000163466262165457
2816.0,-0.0007120197406038642
3072.0,-0.00077042356133461
3328.0,0.00039491537609137595
3584.0,0.00017645904154051095
3840.0,-0.0003290019230917096
4096.0,-0.0005726774106733501
4608.0,2.7432704882812686e-05
5120.0,0.0009501602035015821
5632.0,0.00046065798960626125
6144.0,-0.0007715179235674441
6656.0,-0.00016917730681598186
7168.0,-0.0013092720182612538
7680.0,0.0002816158812493086
8192.0,0.0004202552081551403
end
