version,3.0
numOfCh,1
type,point
parent_name,c1204_1dot0-1dot0
ch_type,1_1
kcount,1
numberNandB,1
brightnessNandB,1
carpet pos,0
pc,0
Time (ms),CH1 Auto-Correlation
1.0,0.0275978185236454
2.0,0.0253775492310524
3.0,0.0234603863209486
4.0,0.02178073115646839
5.0,0.0203198604285717
6.0,0.019016757607460022
7.0,0.01790044642984867
8.0,0.016912980005145073
9.0,0.015962427482008934
10.0,0.015204163268208504
11.0,0.014492013491690159
12.0,0.01377824880182743
13.0,0.013140334747731686
14.0,0.01248892955482006
15.0,0.011951101943850517
16.0,0.011380546726286411
18.0,0.010332521982491016
20.0,0.00961314793676138
22.0,0.008868942968547344
24.0,0.008057487197220325
26.0,0.007243312429636717
28.0,0.006786813028156757
30.0,0.0064822291024029255
32.0,0.0062581212259829044
36.0,0.005506225861608982
40.0,0.004839600995182991
44.0,0.004160590935498476
48.0,0.003623927477747202
52.0,0.0033879117108881474
56.0,0.0030104776378721
60.0,0.002545740222558379
64.0,0.0023726867511868477
72.0,0.0022361143492162228
80.0,0.001754123717546463
88.0,0.0016484541120007634
96.0,0.0019145397236570716
104.0,0.002021318767219782
112.0,0.002290603006258607
120.0,0.0019152245949953794
128.0,0.0014083294663578272
144.0,0.001511734677478671
160.0,0.0016394542763009667
176.0,0.0018388672033324838
192.0,0.0014420381048694253
208.0,-5.179531581234187e-05
224.0,7.131608435884118e-05
240.0,0.0001446503883926198
256.0,0.00020224586478434503
288.0,0.0007935924222692847
320.0,0.0006767053273506463
352.0,0.00016726856119930744
384.0,-0.0008891823817975819
416.0,-0.0011062296107411385
448.0,-0.002047077054157853
480.0,-0.0018031777581200004
512.0,-0.0018901897128671408
576.0,-0.00057666574139148
640.0,-0.0010361113818362355
704.0,-0.0002489628386683762
768.0,-0.0007819617749191821
832.0,-0.00022570033615920693
896.0,-0.0008241099421866238
960.0,-0.0012426642933860421
1024.0,0.00011113355139968917
1152.0,-9.07830471987836e-05
1280.0,-0.00015162845375016332
1408.0,0.0009399529662914574
1536.0,3.89099441235885e-05
1664.0,0.0005677006556652486
1792.0,0.0008433266193605959
1920.0,0.00016713001241441816
2048.0,-0.0007160374661907554
2304.0,-0.0007982129463925958
2560.0,-0.0009867855114862323
2816.0,-0.00012949475785717368
3072.0,0.0004654710355680436
3328.0,-0.0012015553656965494
3584.0,-0.00016025932563934475
3840.0,0.0014431634917855263
4096.0,0.00038021666114218533
4608.0,-0.000717838469427079
5120.0,-8.734974107937887e-05
5632.0,0.0006921797757968307
6144.0,-0.0004279119020793587
6656.0,0.0005520721315406263
7168.0,-0.0005391770391725004
7680.0,0.0006539152236655354
8192.0,-0.0009299481171183288
end
