version,3.0
numOfCh,1
type,point
parent_name,c1204_1dot0-1dot0
ch_type,1_1
kcount,1
numberNandB,1
brightnessNandB,1
carpet pos,0
pc,0
Time (ms),CH1 Auto-Correlation
1.0,0.02657966874539852
2.0,0.024374639615416527
3.0,0.022473564371466637
4.0,0.02081676758825779
5.0,0.019376154989004135
6.0,0.01808965392410755
7.0,0.01695946976542473
8.0,0.01593087427318096
9.0,0.01505259983241558
10.0,0.014301793649792671
11.0,0.013581376522779465
12.0,0.01283725630491972
13.0,0.012235715053975582
14.0,0.011663480661809444
15.0,0.011095531284809113
16.0,0.010531330481171608
18.0,0.00946781039237976
20.0,0.008525235578417778
22.0,0.00771272974088788
24.0,0.007026566192507744
26.0,0.0064389402978122234
28.0,0.0058639575727283955
30.0,0.005339900031685829
32.0,0.004902550484985113
36.0,0.004472885746508837
40.0,0.0039020951371639967
44.0,0.0033903145231306553
48.0,0.0031406909693032503
52.0,0.0028478610329329967
56.0,0.002716060960665345
60.0,0.00241167307831347
64.0,0.0020762404892593622
72.0,0.0020863425452262163
80.0,0.001989265438169241
88.0,0.00132307771127671
96.0,0.0011105322046205401
104.0,0.001201912178657949
112.0,0.001226251944899559
120.0,0.0014497233787551522
128.0,0.0011864377884194255
144.0,0.0005589566426351666
160.0,0.0002797546039801091
176.0,0.000402717269025743
192.0,0.0005102985305711627
208.0,0.0003204507811460644
224.0,0.00027871745987795293
240.0,0.0004026868555229157
256.0,0.00029959340463392437
288.0,-0.00020548957400023937
320.0,0.0010002519702538848
352.0,0.0008575230604037642
384.0,0.0009304084815084934
416.0,0.0009768347954377532
448.0,0.0019890174735337496
480.0,0.0013329926878213882
512.0,-3.015083166246768e-05
576.0,0.00048112968215718865
640.0,-0.00018141987675335258
704.0,0.0005612113163806498
768.0,0.0019489022670313716
832.0,0.0011910711182281375
896.0,0.0017487813020125031
960.0,9.733601473271847e-05
1024.0,7.655045919818804e-05
1152.0,-0.0010089834686368704
1280.0,-7.662765710847452e-05
1408.0,-0.0008048658492043614
1536.0,-0.0016101234359666705
1664.0,-0.0007050345302559435
1792.0,-0.001582203432917595
1920.0,-0.001415823819115758
2048.0,-0.0010954191675409675
2304.0,-0.00013384642079472542
2560.0,-0.0006899652071297169
2816.0,-0.0006756178336218
3072.0,-0.0005088734324090183
3328.0,0.0005858077784068882
3584.0,0.0002048686583293602
3840.0,-0.00017944967839866877
4096.0,7.676284440094605e-06
4608.0,0.0011824734974652529
5120.0,0.0007796580321155488
5632.0,0.0006742034456692636
6144.0,-0.00045627699000760913
6656.0,-0.0006931161042302847
7168.0,-0.0011712826089933515
7680.0,0.00028383833705447614
8192.0,-0.000221074020373635
end
