version,3.0
numOfCh,1
type,point
parent_name,c1204_1dot0-1dot0
ch_type,1_1
kcount,1
numberNandB,1
brightnessNandB,1
carpet pos,0
pc,0
Time (ms),CH1 Auto-Correlation
1.0,0.02798355184495449
2.0,0.02571890875697136
3.0,0.0238591730594635
4.0,0.022244753316044807
5.0,0.0208808034658432
6.0,0.019609713926911354
7.0,0.01854970119893551
8.0,0.017607567831873894
9.0,0.016722887754440308
10.0,0.01589358039200306
11.0,0.015138935297727585
12.0,0.014429398812353611
13.0,0.013814251869916916
14.0,0.013233923353254795
15.0,0.012673155404627323
16.0,0.012135426513850689
18.0,0.011217025108635426
20.0,0.010461798869073391
22.0,0.009887944906949997
24.0,0.009517326951026917
26.0,0.009042325429618359
28.0,0.008491886779665947
30.0,0.008100206032395363
32.0,0.007675236091017723
36.0,0.0067915539257228374
40.0,0.006107755936682224
44.0,0.0055016204714775085
48.0,0.004726555198431015
52.0,0.0038944922853261232
56.0,0.0033288991544395685
60.0,0.0030493582598865032
64.0,0.0029813165310770273
72.0,0.0027938149869441986
80.0,0.0020665547344833612
88.0,0.0009952073451131582
96.0,0.0005019574891775846
104.0,0.0003480571904219687
112.0,0.0005765747046098113
120.0,0.0006250456208363175
128.0,0.00011067820742027834
144.0,0.00015995030116755515
160.0,-7.837150769773871e-05
176.0,-0.00011695417197188362
192.0,-2.02896317205159e-05
208.0,-0.0001751541713019833
224.0,0.000302643864415586
240.0,0.0007772966637276113
256.0,0.0005956772365607321
288.0,0.0006572885322384536
320.0,0.0009427464101463556
352.0,0.0011318010510876775
384.0,0.0005017614457756281
416.0,0.00017804130038712174
448.0,-0.0007982244133017957
480.0,-4.579220694722608e-05
512.0,-0.0010678773978725076
576.0,-0.0006424001767300069
640.0,-0.00026854334282688797
704.0,0.0003698273503687233
768.0,-0.0005127867916598916
832.0,-0.001385174342431128
896.0,0.00011159619316458702
960.0,-0.00018648421973921359
1024.0,9.782722918316722e-05
1152.0,0.00015971636457834393
1280.0,0.000420014577684924
1408.0,0.00019183770928066224
1536.0,-0.0006656483164988458
1664.0,0.0005728190299123526
1792.0,-7.261153768922668e-06
1920.0,-0.0005201528547331691
2048.0,0.0003163498768117279
2304.0,-0.00040317399543710053
2560.0,-0.000587617396377027
2816.0,-0.0002951946225948632
3072.0,-0.00013005116488784552
3328.0,-0.001475185970775783
3584.0,-6.586345989489928e-05
3840.0,0.00010473266593180597
4096.0,0.0005128707853145897
4608.0,0.00035862717777490616
5120.0,0.00023239044821821153
5632.0,0.0005726830568164587
6144.0,-3.653494786703959e-05
6656.0,-0.0007551242597401142
7168.0,-0.000724676763638854
7680.0,-0.0014036005595698953
8192.0,-0.0002975832612719387
end
