version,3.0
numOfCh,1
type,point
parent_name,c1204_1dot0-1dot0
ch_type,1_1
kcount,1
numberNandB,1
brightnessNandB,1
carpet pos,0
pc,0
Time (ms),CH1 Auto-Correlation
1.0,0.02573777735233307
2.0,0.023628324270248413
3.0,0.021858640015125275
4.0,0.02034345082938671
5.0,0.018938381224870682
6.0,0.017695460468530655
7.0,0.01663513109087944
8.0,0.015736538916826248
9.0,0.014903275296092033
10.0,0.014123267494142056
11.0,0.013401742093265057
12.0,0.012758605182170868
13.0,0.012172107584774494
14.0,0.011614994145929813
15.0,0.011136824265122414
16.0,0.010703818872570992
18.0,0.009801975451409817
20.0,0.009073667228221893
22.0,0.00834969524294138
24.0,0.007724354974925518
26.0,0.007255929056555033
28.0,0.006809745449572802
30.0,0.006333725992590189
32.0,0.005957700777798891
36.0,0.0052833473309874535
40.0,0.004550861194729805
44.0,0.003942870534956455
48.0,0.003209140617400408
52.0,0.002750169252976775
56.0,0.0024567691143602133
60.0,0.002346582245081663
64.0,0.0021774007473140955
72.0,0.0014232476241886616
80.0,0.0012080140877515078
88.0,0.0011135854292660952
96.0,0.0014926368603482842
104.0,0.0014972296776250005
112.0,0.0011852633906528354
120.0,0.0010336240520700812
128.0,0.0009149074903689325
144.0,0.00031381662120111287
160.0,-0.00014530203770846128
176.0,-0.00018743488180916756
192.0,-6.529843813041225e-05
208.0,-0.0002510033955331892
224.0,-7.943877426441759e-05
240.0,6.89369990141131e-05
256.0,-0.00011515687947394326
288.0,-0.0007598721422255039
320.0,-0.0006722126854583621
352.0,-0.0007957905763760209
384.0,-0.0009370572515763342
416.0,0.0005257425946183503
448.0,0.0008282444905489683
480.0,-0.0012906042393296957
512.0,-0.0011505319271236658
576.0,0.0003940893220715225
640.0,0.0008388968417420983
704.0,0.0009109914535656571
768.0,0.0008736084564588964
832.0,0.0017026223940774798
896.0,0.0014038984663784504
960.0,0.0014252718538045883
1024.0,0.0005865957937203348
1152.0,3.054206172237173e-05
1280.0,-0.00046647776616737247
1408.0,-0.0006019978900440037
1536.0,0.0008345659589394927
1664.0,0.00023451173910871148
1792.0,-0.0003181516076438129
1920.0,0.0005227568908594549
2048.0,0.0002551329380366951
2304.0,-0.00031093915458768606
2560.0,0.0006780370022170246
2816.0,0.0006208161939866841
3072.0,0.00015154767606873065
3328.0,-0.001000988413579762
3584.0,0.0007774974801577628
3840.0,-0.0006165702361613512
4096.0,-0.0001709158532321453
4608.0,-0.00019666909065563232
5120.0,0.000406430393923074
5632.0,0.0006190448766574264
6144.0,0.00015408852777909487
6656.0,0.00034771213540807366
7168.0,-0.0007420945330522954
7680.0,9.986851364374161e-05
8192.0,-0.0001561277313157916
end
