version,3.0
numOfCh,1
type,point
parent_name,c1204_1dot0-1dot0
ch_type,1_1
kcount,1
numberNandB,1
brightnessNandB,1
carpet pos,0
pc,0
Time (ms),CH1 Auto-Correlation
1.0,0.025453075766563416
2.0,0.02334400825202465
3.0,0.02159557119011879
4.0,0.020021267235279083
5.0,0.018571525812149048
6.0,0.017289869487285614
7.0,0.016147824004292488
8.0,0.015130599029362202
9.0,0.01420734915882349
10.0,0.013426619581878185
11.0,0.012711971998214722
12.0,0.012131551280617714
13.0,0.011491774581372738
14.0,0.010898791253566742
15.0,0.010315226390957832
16.0,0.009806986898183823
18.0,0.008891530334949493
20.0,0.008183557540178299
22.0,0.007512951735407114
24.0,0.006992602255195379
26.0,0.006433939561247826
28.0,0.005943608470261097
30.0,0.00550352968275547
32.0,0.005258744116872549
36.0,0.00488357525318861
40.0,0.004256621468812227
44.0,0.0037330195773392916
48.0,0.0032418922055512667
52.0,0.002903151325881481
56.0,0.002567181596532464
60.0,0.0022300321143120527
64.0,0.0019383429316803813
72.0,0.001639174879528582
80.0,0.0008636323036625981
88.0,0.00015175096632447094
96.0,-0.0003085542703047395
104.0,-0.0010238186223432422
112.0,-0.0013213601196184754
120.0,-0.001620456576347351
128.0,-0.0014184846077114344
144.0,-0.0009365103323943913
160.0,-0.000658858974929899
176.0,-0.0006021802546456456
192.0,-0.0007763593457639217
208.0,-0.0018898432608693838
224.0,-0.00189303292427212
240.0,-0.0011274181306362152
256.0,-0.001238374155946076
288.0,-0.0010185257997363806
320.0,-0.00014205672778189182
352.0,0.00029238700517453253
384.0,0.0002851274039130658
416.0,9.152577695203945e-05
448.0,-0.00023307930678129196
480.0,-0.0002956237003672868
512.0,0.0012023402377963066
576.0,0.0008991570794023573
640.0,-0.0009306563879363239
704.0,0.000591983029153198
768.0,0.0006786271114833653
832.0,0.0008271505357697606
896.0,0.0002722895296756178
960.0,-0.0005297020543366671
1024.0,-0.0011736552696675062
1152.0,-0.0006747570005245507
1280.0,0.0005100151756778359
1408.0,6.30469003226608e-05
1536.0,-0.00012518429139163345
1664.0,-0.00047532544704154134
1792.0,-0.0005772655713371933
1920.0,0.0005832736496813595
2048.0,-0.0011878546793013811
2304.0,-0.00026204405003227293
2560.0,0.00019298373081255704
2816.0,0.00027931752265430987
3072.0,0.00025876297149807215
3328.0,-0.0006921663880348206
3584.0,0.00026120044640265405
3840.0,-0.00014745176304131746
4096.0,-1.3984800716571044e-05
4608.0,-0.00022886502847541124
5120.0,5.579959542956203e-05
5632.0,-0.00011521895066834986
6144.0,-0.0005971689824946225
6656.0,9.843613224802539e-05
7168.0,-1.1432187420723494e-05
7680.0,0.0004925912944599986
8192.0,0.0004881068307440728
end
