version,3.0
numOfCh,1
type,point
parent_name,c1204_1dot0-1dot0
ch_type,1_1
kcount,1
numberNandB,1
brightnessNandB,1
carpet pos,0
pc,0
Time (ms),CH1 Auto-Correlation
1.0,0.026820549741387367
2.0,0.024655483663082123
3.0,0.02282075397670269
4.0,0.021304067224264145
5.0,0.01993035338819027
6.0,0.018755223602056503
7.0,0.017670296132564545
8.0,0.016749415546655655
9.0,0.015900181606411934
10.0,0.015084017999470234
11.0,0.014278716407716274
12.0,0.01356832217425108
13.0,0.012966652400791645
14.0,0.012296222150325775
15.0,0.011677146889269352
16.0,0.011125918477773666
18.0,0.010235531255602837
20.0,0.009479145519435406
22.0,0.008799434639513493
24.0,0.0082542784512043
26.0,0.0076907845214009285
28.0,0.007220304571092129
30.0,0.006731417030096054
32.0,0.006269805133342743
36.0,0.005383686162531376
40.0,0.004874605685472488
44.0,0.0042530084028840065
48.0,0.0037764734588563442
52.0,0.0032283856999129057
56.0,0.0027493478264659643
60.0,0.002429976360872388
64.0,0.0021915091201663017
72.0,0.001976898405700922
80.0,0.002485804259777069
88.0,0.0028629000298678875
96.0,0.002501413458958268
104.0,0.0020951435435563326
112.0,0.0021519814617931843
120.0,0.0016986934933811426
128.0,0.0013940552016720176
144.0,0.0007785383495502174
160.0,0.00019158079521730542
176.0,0.0005981536814942956
192.0,0.0003375928499735892
208.0,0.0002376120537519455
224.0,-7.376044959528372e-05
240.0,0.00037046545185148716
256.0,0.0007466620299965143
288.0,4.570551391225308e-05
320.0,-0.00020230788504704833
352.0,0.000280153239145875
384.0,0.0005570396315306425
416.0,0.0008442618418484926
448.0,0.0001947513228515163
480.0,0.0001467945839976892
512.0,0.0006622627261094749
576.0,0.0014298269525170326
640.0,0.0008891868055798113
704.0,-0.0005147821502760053
768.0,-0.0011255500139668584
832.0,-0.0009204111993312836
896.0,-0.0006108970264904201
960.0,-0.0010747553315013647
1024.0,0.000343693740433082
1152.0,-0.00021309441945049912
1280.0,-0.0013046206440776587
1408.0,-0.0009745273855514824
1536.0,-0.000279332249192521
1664.0,-0.0003373851941432804
1792.0,-0.002074544783681631
1920.0,-0.0009197219042107463
2048.0,3.620780262281187e-05
2304.0,0.0002847720170393586
2560.0,1.3233094250608701e-05
2816.0,0.0014994245721027255
3072.0,-0.0005298849428072572
3328.0,0.0014530349289998412
3584.0,-0.0004497433837968856
3840.0,0.0010967416455969214
4096.0,-0.0006040078005753458
4608.0,-0.0007681383867748082
5120.0,-0.0005763970548287034
5632.0,-0.0003025180194526911
6144.0,-7.669163460377604e-05
6656.0,0.0005557438125833869
7168.0,-0.00018902211741078645
7680.0,-0.0005023575504310429
8192.0,-0.0013963822275400162
end
