version,3.0
numOfCh,1
type,point
parent_name,c1204_1dot0-1dot0
ch_type,1_1
kcount,1
numberNandB,1
brightnessNandB,1
carpet pos,0
pc,0
Time (ms),CH1 Auto-Correlation
1.0,0.027307016775012016
2.0,0.02514752373099327
3.0,0.023300454020500183
4.0,0.02176482602953911
5.0,0.020424673333764076
6.0,0.019242215901613235
7.0,0.01812063530087471
8.0,0.01719287596642971
9.0,0.01638370379805565
10.0,0.01563568226993084
11.0,0.014935065992176533
12.0,0.014311103150248528
13.0,0.013753254897892475
14.0,0.01324760913848877
15.0,0.012825035490095615
16.0,0.012454953975975513
18.0,0.011831223964691162
20.0,0.01128946803510189
22.0,0.010732532478868961
24.0,0.010250960476696491
26.0,0.009770728647708893
28.0,0.009208115749061108
30.0,0.008664418943226337
32.0,0.008117674849927425
36.0,0.007077091373503208
40.0,0.0062249526381492615
44.0,0.0053948452696204185
48.0,0.005135472398251295
52.0,0.004860361106693745
56.0,0.00467802444472909
60.0,0.00435259286314249
64.0,0.003854170674458146
72.0,0.0033947245683521032
80.0,0.0030449656769633293
88.0,0.0027992844115942717
96.0,0.002569034229964018
104.0,0.0022046915255486965
112.0,0.0019891595002263784
120.0,0.0017848808784037828
128.0,0.001784239080734551
144.0,0.0014037518994882703
160.0,0.0011825347319245338
176.0,0.0014264766359701753
192.0,0.0013101837830618024
208.0,0.00042409615707583725
224.0,-0.0004559256776701659
240.0,-0.00011062310659326613
256.0,0.0004876128805335611
288.0,0.0014835568144917488
320.0,0.0013328505447134376
352.0,0.0007804296910762787
384.0,-0.00014647544594481587
416.0,-0.0005266694934107363
448.0,-0.0019810961093753576
480.0,-0.0019355048425495625
512.0,-0.001681334339082241
576.0,-0.0026936144568026066
640.0,-0.001483617932535708
704.0,-6.644820678047836e-05
768.0,-0.000463911856058985
832.0,-0.00010158568329643458
896.0,-0.0004000781336799264
960.0,0.00026713203988038003
1024.0,0.0009969762759283185
1152.0,0.0007920457283034921
1280.0,0.0003528488159645349
1408.0,0.00036950240610167384
1536.0,0.0001228847831953317
1664.0,-0.0019970019347965717
1792.0,-0.00024326292623300105
1920.0,-0.0009077392751350999
2048.0,-0.0012319678207859397
2304.0,-0.00041513878386467695
2560.0,0.000496132648549974
2816.0,0.000327553745592013
3072.0,-0.0005454251659102738
3328.0,0.00022556826297659427
3584.0,0.0007733737002126873
3840.0,0.0006284491973929107
4096.0,-0.0006864496972411871
4608.0,-0.0010315235704183578
5120.0,0.00046802248107269406
5632.0,-0.0010422150371596217
6144.0,0.0013361808378249407
6656.0,-0.000315368379233405
7168.0,-0.0001160790488938801
7680.0,0.0007216978701762855
8192.0,-0.0013802233152091503
end
