version,3.0
numOfCh,1
type,point
parent_name,c1204_1dot0-1dot0
ch_type,1_1
kcount,1
numberNandB,1
brightnessNandB,1
carpet pos,0
pc,0
Time (ms),CH1 Auto-Correlation
1.0,0.02766812965273857
2.0,0.02542181685566902
3.0,0.023471388965845108
4.0,0.021781979128718376
5.0,0.020311495289206505
6.0,0.018965836614370346
7.0,0.017746657133102417
8.0,0.01662888191640377
9.0,0.015638815239071846
10.0,0.014816123992204666
11.0,0.014065972529351711
12.0,0.013382825069129467
13.0,0.012793134897947311
14.0,0.01225156057626009
15.0,0.0117402458563447
16.0,0.011285039596259594
18.0,0.010403272695839405
20.0,0.009664755314588547
22.0,0.009070444852113724
24.0,0.00853491947054863
26.0,0.008062981069087982
28.0,0.007559421006590128
30.0,0.007069642189890146
32.0,0.006580359302461147
36.0,0.005809669382870197
40.0,0.005266733933240175
44.0,0.004695317707955837
48.0,0.0040334369987249374
52.0,0.0033793544862419367
56.0,0.002900922205299139
60.0,0.002426732797175646
64.0,0.00213107792660594
72.0,0.0019931744318455458
80.0,0.0018802694976329803
88.0,0.001597035676240921
96.0,0.0014120369451120496
104.0,0.0011773755541071296
112.0,0.001208438421599567
120.0,0.001521862461231649
128.0,0.002277760300785303
144.0,0.0019521138165146112
160.0,0.0013046135427430272
176.0,0.0016753884265199304
192.0,0.0016206121072173119
208.0,0.0015918011777102947
224.0,0.0010344614274799824
240.0,7.877271855250001e-05
256.0,-0.000809387129265815
288.0,-0.0016823908081278205
320.0,-0.0010531003354117274
352.0,9.125549695454538e-05
384.0,0.0002628613729029894
416.0,-0.0005564390448853374
448.0,-0.0017412579618394375
480.0,-0.0024100253358483315
512.0,-0.0022582155652344227
576.0,-0.0010586273856461048
640.0,-0.000891614006832242
704.0,-0.0004633622302208096
768.0,0.0014531592605635524
832.0,0.0005667940131388605
896.0,-0.0017961557023227215
960.0,0.0006230662693269551
1024.0,-0.0005446787690743804
1152.0,-0.0014042453840374947
1280.0,-0.0006469351937994361
1408.0,-0.00021613886929117143
1536.0,0.0001422025525243953
1664.0,0.0014150264905765653
1792.0,0.000629509799182415
1920.0,-0.0005749424453824759
2048.0,-0.00018477122648619115
2304.0,0.0009321705438196659
2560.0,0.00010416886652819812
2816.0,-0.0015354426577687263
3072.0,0.0011923304991796613
3328.0,0.0015655140159651637
3584.0,-0.0006943163461983204
3840.0,-0.001112281228415668
4096.0,-0.00032794856815598905
4608.0,-4.165579957771115e-05
5120.0,0.00021463679149746895
5632.0,9.223981760442257e-05
6144.0,0.0001744086912367493
6656.0,0.00011585132597247139
7168.0,-0.0010627098381519318
7680.0,-0.00015872629592195153
8192.0,0.0003928961814381182
end
