version,3.0
numOfCh,1
type,point
parent_name,c1204_1dot0-1dot0
ch_type,1_1
kcount,1
numberNandB,1
brightnessNandB,1
carpet pos,0
pc,0
Time (ms),CH1 Auto-Correlation
1.0,0.027643416076898575
2.0,0.025454508140683174
3.0,0.023540262132883072
4.0,0.02190789021551609
5.0,0.020547902211546898
6.0,0.019253917038440704
7.0,0.01811809092760086
8.0,0.017158852890133858
9.0,0.016344809904694557
10.0,0.01564282365143299
11.0,0.01495425309985876
12.0,0.014319665729999542
13.0,0.01377983670681715
14.0,0.01329557690769434
15.0,0.01286696270108223
16.0,0.012439454905688763
18.0,0.011673565953969955
20.0,0.01094889547675848
22.0,0.010266060940921307
24.0,0.009710273705422878
26.0,0.00921821128576994
28.0,0.008736774325370789
30.0,0.008266998454928398
32.0,0.007859267294406891
36.0,0.007184030022472143
40.0,0.006645284593105316
44.0,0.006258320063352585
48.0,0.005795038305222988
52.0,0.005216511432081461
56.0,0.005011620000004768
60.0,0.004786927718669176
64.0,0.00468093017116189
72.0,0.004636506550014019
80.0,0.004306835122406483
88.0,0.0038478802889585495
96.0,0.003751181298866868
104.0,0.0035317856818437576
112.0,0.002698636380955577
120.0,0.0019836591091006994
128.0,0.0014676988357678056
144.0,0.001848096726462245
160.0,0.001562422839924693
176.0,0.0010716324904933572
192.0,0.0015931390225887299
208.0,0.0011421908857300878
224.0,0.0009920723969116807
240.0,0.0010764875914901495
256.0,0.0013413762208074331
288.0,0.0014018695801496506
320.0,0.00046507237129844725
352.0,-0.0009751449106261134
384.0,-0.00036358332727104425
416.0,-0.0008425220148637891
448.0,-0.00012266525300219655
480.0,-0.000890890194568783
512.0,-0.00115674058906734
576.0,4.971903399564326e-05
640.0,-0.0007702846196480095
704.0,-0.0008781499927863479
768.0,-0.00023654327378608286
832.0,-6.997796299401671e-05
896.0,-0.0005773105658590794
960.0,-0.0007812442490831017
1024.0,-0.0009434829698875546
1152.0,-0.002023107837885618
1280.0,-3.2426555662823375e-06
1408.0,0.0005687268567271531
1536.0,0.0008503880817443132
1664.0,-0.00032358660246245563
1792.0,0.00024708485580049455
1920.0,0.0002710064291022718
2048.0,0.0003434737154748291
2304.0,-0.00021130200184416026
2560.0,-0.0007169750751927495
2816.0,0.00011489721509860829
3072.0,-0.0006675318581983447
3328.0,-0.00030670026899315417
3584.0,0.0001959414512384683
3840.0,-0.00045687772217206657
4096.0,-0.0007987305871210992
4608.0,0.0002091581845888868
5120.0,0.000891233969014138
5632.0,-0.0001753712713252753
6144.0,-0.0007290475768968463
6656.0,-0.00044104643166065216
7168.0,-0.0003462205349933356
7680.0,0.0003048742946702987
8192.0,0.0005577009869739413
end
