version,3.0
numOfCh,1
type,point
parent_name,19e3e_0dot1-0dot1
ch_type,1_1
kcount,1
numberNandB,1
brightnessNandB,1
carpet pos,0
pc,0
Time (ms),CH1 Auto-Correlation
1.0,0.03681088238954544
2.0,0.03628157079219818
3.0,0.03575880452990532
4.0,0.03524103760719299
5.0,0.03475420922040939
6.0,0.034270137548446655
7.0,0.033799443393945694
8.0,0.03333799168467522
9.0,0.03288166970014572
10.0,0.032424550503492355
11.0,0.03198568895459175
12.0,0.0315406434237957
13.0,0.03109094873070717
14.0,0.03065260499715805
15.0,0.030234303325414658
16.0,0.029829736799001694
18.0,0.0290954802185297
20.0,0.028398659080266953
22.0,0.02772544138133526
24.0,0.027081351727247238
26.0,0.026493078097701073
28.0,0.025932466611266136
30.0,0.025389615446329117
32.0,0.0248519629240036
36.0,0.023798763751983643
40.0,0.022723132744431496
44.0,0.02163562923669815
48.0,0.020608501508831978
52.0,0.019588714465498924
56.0,0.01859334670007229
60.0,0.01769193820655346
64.0,0.016871634870767593
72.0,0.015451821498572826
80.0,0.014142532832920551
88.0,0.012865059077739716
96.0,0.011836645193397999
104.0,0.010970412753522396
112.0,0.010169651359319687
120.0,0.009419192560017109
128.0,0.008414997719228268
144.0,0.0062287780456244946
160.0,0.00457803625613451
176.0,0.003213701769709587
192.0,0.0025267975870519876
208.0,0.0019792341627180576
224.0,0.0017803574446588755
240.0,0.0015222945949062705
256.0,0.0009729129378683865
288.0,3.0348097425303422e-05
320.0,-0.0002655808930285275
352.0,0.00036934224772267044
384.0,0.0012972812401130795
416.0,0.0019533836748450994
448.0,0.0022325622849166393
480.0,0.0025180575903505087
512.0,0.0033966933842748404
576.0,0.0030118669383227825
640.0,0.00046285107964649796
704.0,-0.0007875801529735327
768.0,-0.001656010514125228
832.0,-0.0016741777071729302
896.0,-0.0010805514175444841
960.0,-0.0013063752558082342
1024.0,-0.00291700498200953
1152.0,-0.0034035767894238234
1280.0,-0.0012739101657643914
1408.0,-0.001258183503523469
1536.0,-0.0033517354167997837
1664.0,-0.002785980934277177
1792.0,0.0006667440175078809
1920.0,-0.00022211986652109772
2048.0,-0.000306542991893366
2304.0,0.0005261287442408502
2560.0,-0.0029089832678437233
2816.0,-0.00169281754642725
3072.0,-0.004164904821664095
3328.0,-0.0009836192475631833
3584.0,-0.00021391561313066632
3840.0,0.004386527929455042
4096.0,0.0006959495949558914
4608.0,0.001198187586851418
5120.0,-0.0009695726330392063
5632.0,0.0008509655017405748
6144.0,0.0027036210522055626
6656.0,0.0008910811156965792
7168.0,-0.00187476328574121
7680.0,-0.0032244313042610884
8192.0,-0.00010762116289697587
end
