version,3.0
numOfCh,1
type,point
parent_name,19e3e_0dot1-0dot1
ch_type,1_1
kcount,1
numberNandB,1
brightnessNandB,1
carpet pos,0
pc,0
Time (ms),CH1 Auto-Correlation
1.0,0.05318609997630119
2.0,0.05266237631440163
3.0,0.05214789882302284
4.0,0.051651064306497574
5.0,0.051174137741327286
6.0,0.050698310136795044
7.0,0.050220832228660583
8.0,0.04975412040948868
9.0,0.04926978796720505
10.0,0.04879346862435341
11.0,0.048342008143663406
12.0,0.04790591448545456
13.0,0.04748997092247009
14.0,0.047066282480955124
15.0,0.04663803428411484
16.0,0.04622231423854828
18.0,0.045384299010038376
20.0,0.04452776536345482
22.0,0.04366135224699974
24.0,0.04282641038298607
26.0,0.04204762354493141
28.0,0.04130936414003372
30.0,0.04061587527394295
32.0,0.0399685800075531
36.0,0.03881930187344551
40.0,0.03781209513545036
44.0,0.036878399550914764
48.0,0.03596532717347145
52.0,0.03510463982820511
56.0,0.034354906529188156
60.0,0.0337434858083725
64.0,0.03319470211863518
72.0,0.03190305829048157
80.0,0.030793026089668274
88.0,0.030080726370215416
96.0,0.029539044946432114
104.0,0.02921314351260662
112.0,0.029021142050623894
120.0,0.02857338637113571
128.0,0.027971355244517326
144.0,0.026451531797647476
160.0,0.024723809212446213
176.0,0.023032305762171745
192.0,0.021098902449011803
208.0,0.01975712925195694
224.0,0.019060594961047173
240.0,0.018125411123037338
256.0,0.017488809302449226
288.0,0.015855317935347557
320.0,0.014132941141724586
352.0,0.012322288006544113
384.0,0.010493175126612186
416.0,0.008559095673263073
448.0,0.006494147703051567
480.0,0.005347062833607197
512.0,0.005145803093910217
576.0,0.00563166756182909
640.0,0.006251127924770117
704.0,0.005121723283082247
768.0,0.0032264580950140953
832.0,0.0009135695872828364
896.0,0.0014375981409102678
960.0,0.0026114911306649446
1024.0,0.0014223509933799505
1152.0,0.002158604096621275
1280.0,0.004566796589642763
1408.0,0.0034038934390991926
1536.0,0.0023054308257997036
1664.0,-0.0007200374966487288
1792.0,-0.006092060822993517
1920.0,-0.008602404035627842
2048.0,-0.010902213864028454
2304.0,-0.004925531800836325
2560.0,-0.001085264259018004
2816.0,-0.004305007867515087
3072.0,-0.0069370269775390625
3328.0,-0.008188941515982151
3584.0,-0.008594179525971413
3840.0,-0.005247794557362795
4096.0,-0.006857540458440781
4608.0,-0.00419262982904911
5120.0,0.00563628738746047
5632.0,0.0007645931327715516
6144.0,0.004432450048625469
6656.0,0.0071320305578410625
7168.0,0.0007828888483345509
7680.0,0.0023383847437798977
8192.0,-0.007554268930107355
end
