version,3.0
numOfCh,1
type,point
parent_name,19e3e_0dot1-0dot1
ch_type,1_1
kcount,1
numberNandB,1
brightnessNandB,1
carpet pos,0
pc,0
Time (ms),CH1 Auto-Correlation
1.0,0.05460333451628685
2.0,0.054019153118133545
3.0,0.053467683494091034
4.0,0.052950169891119
5.0,0.052430201321840286
6.0,0.051925405859947205
7.0,0.05144044756889343
8.0,0.05097591504454613
9.0,0.050518471747636795
10.0,0.05006181821227074
11.0,0.04960772395133972
12.0,0.049183983355760574
13.0,0.048773083835840225
14.0,0.04836153984069824
15.0,0.04797026515007019
16.0,0.047583747655153275
18.0,0.046819861978292465
20.0,0.04610031843185425
22.0,0.045380882918834686
24.0,0.04463966190814972
26.0,0.04391378536820412
28.0,0.043181005865335464
30.0,0.04250374808907509
32.0,0.041836418211460114
36.0,0.04052415490150452
40.0,0.03923396021127701
44.0,0.038058627396821976
48.0,0.037021320313215256
52.0,0.036080703139305115
56.0,0.035137925297021866
60.0,0.03419947251677513
64.0,0.033300988376140594
72.0,0.031532157212495804
80.0,0.03013140894472599
88.0,0.029056290164589882
96.0,0.028145160526037216
104.0,0.027069658041000366
112.0,0.025963883846998215
120.0,0.0246885996311903
128.0,0.023015547543764114
144.0,0.019723787903785706
160.0,0.01742822863161564
176.0,0.015981391072273254
192.0,0.015224621631205082
208.0,0.014856643974781036
224.0,0.014866625890135765
240.0,0.015175705775618553
256.0,0.014995075762271881
288.0,0.013639918528497219
320.0,0.012246616184711456
352.0,0.012060308828949928
384.0,0.011299777776002884
416.0,0.009391251020133495
448.0,0.008632090874016285
480.0,0.008681430481374264
512.0,0.00877869501709938
576.0,0.007000903133302927
640.0,0.007708569057285786
704.0,0.00824651401489973
768.0,0.008776861242949963
832.0,0.009192016907036304
896.0,0.010484847240149975
960.0,0.01093492191284895
1024.0,0.011383947916328907
1152.0,0.008240888826549053
1280.0,0.006510135252028704
1408.0,0.0002914486394729465
1536.0,-0.002261006273329258
1664.0,-0.0018195528537034988
1792.0,-0.002131428336724639
1920.0,-5.881664947082754e-06
2048.0,0.002297651721164584
2304.0,-0.003640972077846527
2560.0,-0.0070951576344668865
2816.0,-0.004616364371031523
3072.0,-0.0016764926258474588
3328.0,-0.010184988379478455
3584.0,-0.007563500199466944
3840.0,-0.0036365115083754063
4096.0,-0.0010249228216707706
4608.0,-0.007396077737212181
5120.0,-0.0018357706721872091
5632.0,-0.0069080195389688015
6144.0,-0.004669339396059513
6656.0,-0.006449509412050247
7168.0,-0.003322004107758403
7680.0,-0.0074975634925067425
8192.0,-0.005921663250774145
end
