version,3.0
numOfCh,1
type,point
parent_name,19e3e_0dot1-0dot1
ch_type,1_1
kcount,1
numberNandB,1
brightnessNandB,1
carpet pos,0
pc,0
Time (ms),CH1 Auto-Correlation
1.0,0.050382100045681
2.0,0.0498584546148777
3.0,0.04935704171657562
4.0,0.0488695353269577
5.0,0.048404496163129807
6.0,0.04795243218541145
7.0,0.04750638082623482
8.0,0.04707735404372215
9.0,0.0466584749519825
10.0,0.04625742882490158
11.0,0.04586447402834892
12.0,0.045484572649002075
13.0,0.04510567709803581
14.0,0.044733382761478424
15.0,0.04437543451786041
16.0,0.04402511566877365
18.0,0.04335690662264824
20.0,0.04269803315401077
22.0,0.0420447401702404
24.0,0.041403040289878845
26.0,0.040771350264549255
28.0,0.04017473757266998
30.0,0.03958750143647194
32.0,0.039055000990629196
36.0,0.03810960799455643
40.0,0.037200022488832474
44.0,0.036308400332927704
48.0,0.03542260453104973
52.0,0.03459930419921875
56.0,0.033881232142448425
60.0,0.03315773606300354
64.0,0.0324016809463501
72.0,0.03089579939842224
80.0,0.029508696869015694
88.0,0.02823568508028984
96.0,0.02693120390176773
104.0,0.025707483291625977
112.0,0.02460748516023159
120.0,0.023689670488238335
128.0,0.022963443771004677
144.0,0.021438218653202057
160.0,0.02042611502110958
176.0,0.019917400553822517
192.0,0.019795875996351242
208.0,0.019853319972753525
224.0,0.019816910848021507
240.0,0.019689805805683136
256.0,0.019499681890010834
288.0,0.017584653571248055
320.0,0.01479861605912447
352.0,0.012345834635198116
384.0,0.009752467274665833
416.0,0.007667251862585545
448.0,0.006755225360393524
480.0,0.007334795314818621
512.0,0.008126780390739441
576.0,0.006886826362460852
640.0,0.004591457545757294
704.0,0.003157304832711816
768.0,0.004215897526592016
832.0,0.004087441135197878
896.0,0.0036534902174025774
960.0,0.0019192107720300555
1024.0,-0.0008269770187325776
1152.0,-0.0030404573772102594
1280.0,-0.005357211455702782
1408.0,-0.004865837749093771
1536.0,-0.005391198676079512
1664.0,-0.00630612438544631
1792.0,-0.0064534214325249195
1920.0,-0.01117654051631689
2048.0,-0.011791056022047997
2304.0,-0.013550826348364353
2560.0,-0.00919987540692091
2816.0,-0.006171304266899824
3072.0,-0.005934938322752714
3328.0,-0.005120962392538786
3584.0,-0.0006835322710685432
3840.0,-0.0037800774443894625
4096.0,-0.0016903742216527462
4608.0,0.005783312488347292
5120.0,0.0010682999854907393
5632.0,0.0006763151613995433
6144.0,0.0055440496653318405
6656.0,-0.0008418929064646363
7168.0,0.0038720895536243916
7680.0,0.002904806984588504
8192.0,0.0010203588753938675
end
