version,3.0
numOfCh,1
type,point
parent_name,19e3e_0dot1-0dot1
ch_type,1_1
kcount,1
numberNandB,1
brightnessNandB,1
carpet pos,0
pc,0
Time (ms),CH1 Auto-Correlation
1.0,0.053385473787784576
2.0,0.05288557708263397
3.0,0.05240371450781822
4.0,0.05192730948328972
5.0,0.051448553800582886
6.0,0.05098128318786621
7.0,0.050530921667814255
8.0,0.050094474107027054
9.0,0.049664806574583054
10.0,0.04924178496003151
11.0,0.0488307885825634
12.0,0.04842042177915573
13.0,0.048032645136117935
14.0,0.04764627665281296
15.0,0.04726547747850418
16.0,0.046906813979148865
18.0,0.04620708152651787
20.0,0.04552723094820976
22.0,0.04485338181257248
24.0,0.04420020803809166
26.0,0.04357726499438286
28.0,0.042981915175914764
30.0,0.042438577860593796
32.0,0.041922904551029205
36.0,0.04090925306081772
40.0,0.03993098437786102
44.0,0.038978662341833115
48.0,0.038092028349637985
52.0,0.03731019049882889
56.0,0.03649904951453209
60.0,0.03571031987667084
64.0,0.03502504900097847
72.0,0.03388446941971779
80.0,0.03264382481575012
88.0,0.031316980719566345
96.0,0.029928602278232574
104.0,0.02854170836508274
112.0,0.027296094223856926
120.0,0.026236532256007195
128.0,0.025044307112693787
144.0,0.022861137986183167
160.0,0.02069035731256008
176.0,0.018258515745401382
192.0,0.015928689390420914
208.0,0.014301878400146961
224.0,0.012885170988738537
240.0,0.01158192940056324
256.0,0.010301266796886921
288.0,0.008922386914491653
320.0,0.008466673083603382
352.0,0.008258656598627567
384.0,0.007723372429609299
416.0,0.007578196935355663
448.0,0.00854523479938507
480.0,0.009713519364595413
512.0,0.00990354549139738
576.0,0.009679904207587242
640.0,0.008421644568443298
704.0,0.006366232875734568
768.0,0.007908403873443604
832.0,0.008482842706143856
896.0,0.007304235361516476
960.0,0.005154842510819435
1024.0,0.0024171664845198393
1152.0,-0.004831086844205856
1280.0,-0.004448052030056715
1408.0,0.004825313109904528
1536.0,0.008741321042180061
1664.0,0.005789552349597216
1792.0,0.0009260446531698108
1920.0,-0.0028431802056729794
2048.0,-0.0022850222885608673
2304.0,0.0018539908342063427
2560.0,0.0011194705730304122
2816.0,0.0005119294510222971
3072.0,0.0031443892512470484
3328.0,9.959832823369652e-05
3584.0,-0.0004060881619807333
3840.0,-0.0012428107438609004
4096.0,0.00019103949307464063
4608.0,-0.000355729105649516
5120.0,0.0006928700022399426
5632.0,-0.0040955692529678345
6144.0,-0.010597387328743935
6656.0,-0.00962778925895691
7168.0,-0.005264529027044773
7680.0,-0.005354652181267738
8192.0,-0.000962294521741569
end
