version,3.0
numOfCh,1
type,point
parent_name,19e3e_0dot1-0dot1
ch_type,1_1
kcount,1
numberNandB,1
brightnessNandB,1
carpet pos,0
pc,0
Time (ms),CH1 Auto-Correlation
1.0,0.05538586899638176
2.0,0.05487942323088646
3.0,0.05438369885087013
4.0,0.0539109893143177
5.0,0.05343596637248993
6.0,0.05297335237264633
7.0,0.052498605102300644
8.0,0.05204189941287041
9.0,0.05160815268754959
10.0,0.05118434131145477
11.0,0.05078209564089775
12.0,0.05040275678038597
13.0,0.050022076815366745
14.0,0.04965812340378761
15.0,0.049291595816612244
16.0,0.04893253743648529
18.0,0.04822736233472824
20.0,0.047562964260578156
22.0,0.046905845403671265
24.0,0.04626540467143059
26.0,0.04563283175230026
28.0,0.04505503177642822
30.0,0.0445297546684742
32.0,0.04404062777757645
36.0,0.04308744892477989
40.0,0.04209357500076294
44.0,0.04113295301795006
48.0,0.04023807868361473
52.0,0.03944830968976021
56.0,0.03869251906871796
60.0,0.037923384457826614
64.0,0.037229426205158234
72.0,0.03604104742407799
80.0,0.034884169697761536
88.0,0.033717185258865356
96.0,0.032555706799030304
104.0,0.03152387961745262
112.0,0.030459076166152954
120.0,0.029425445944070816
128.0,0.028423640877008438
144.0,0.026525679975748062
160.0,0.025017665699124336
176.0,0.02370603196322918
192.0,0.022298622876405716
208.0,0.020960146561264992
224.0,0.01922091282904148
240.0,0.017210084944963455
256.0,0.015375148504972458
288.0,0.014202876016497612
320.0,0.013544321991503239
352.0,0.012233695946633816
384.0,0.01104805152863264
416.0,0.00966561771929264
448.0,0.008516797795891762
480.0,0.008261396549642086
512.0,0.008177134208381176
576.0,0.004641048144549131
640.0,4.3099869799334556e-05
704.0,-0.0025948595721274614
768.0,-0.005266568157821894
832.0,-0.0058037471026182175
896.0,-0.006838671397417784
960.0,-0.008120737969875336
1024.0,-0.006394317373633385
1152.0,-0.002763973781839013
1280.0,-0.001346028526313603
1408.0,-0.0026966254226863384
1536.0,-0.00026675654225982726
1664.0,0.005277581512928009
1792.0,0.005777465179562569
1920.0,0.0027680702041834593
2048.0,0.005788360722362995
2304.0,0.009883856400847435
2560.0,0.0035466263070702553
2816.0,0.002387604210525751
3072.0,-0.0009976692963391542
3328.0,0.0002765816170722246
3584.0,-0.0005677551380358636
3840.0,-0.007080381270498037
4096.0,-0.009115821681916714
4608.0,0.0031803876627236605
5120.0,0.008773602545261383
5632.0,0.002215972635895014
6144.0,-0.007330610882490873
6656.0,-0.012143495492637157
7168.0,0.004657051991671324
7680.0,0.004399227909743786
8192.0,-0.006831501144915819
end
