version,3.0
numOfCh,1
type,point
parent_name,19e3e_0dot1-0dot1
ch_type,1_1
kcount,1
numberNandB,1
brightnessNandB,1
carpet pos,0
pc,0
Time (ms),CH1 Auto-Correlation
1.0,0.043816354125738144
2.0,0.043267834931612015
3.0,0.04273183271288872
4.0,0.042232174426317215
5.0,0.041731711477041245
6.0,0.04125267639756203
7.0,0.0407988466322422
8.0,0.0403553731739521
9.0,0.039918698370456696
10.0,0.03948213532567024
11.0,0.039043743163347244
12.0,0.038593392819166183
13.0,0.03814719617366791
14.0,0.03771067038178444
15.0,0.03727268427610397
16.0,0.03686853498220444
18.0,0.03608353063464165
20.0,0.03530757129192352
22.0,0.03451330214738846
24.0,0.03376614302396774
26.0,0.03305641561746597
28.0,0.03239598870277405
30.0,0.03177819773554802
32.0,0.03119160421192646
36.0,0.03016980178654194
40.0,0.029298897832632065
44.0,0.02846755087375641
48.0,0.027729447931051254
52.0,0.027080155909061432
56.0,0.02644222229719162
60.0,0.025768494233489037
64.0,0.025138644501566887
72.0,0.02398059144616127
80.0,0.022952428087592125
88.0,0.021820632740855217
96.0,0.020836222916841507
104.0,0.01978141814470291
112.0,0.0185907743871212
120.0,0.01762545108795166
128.0,0.01673060841858387
144.0,0.015370535664260387
160.0,0.013961803168058395
176.0,0.012277434580028057
192.0,0.010432594455778599
208.0,0.009076262824237347
224.0,0.008515415713191032
240.0,0.008192675188183784
256.0,0.008252818137407303
288.0,0.007302433717995882
320.0,0.0055741057731211185
352.0,0.004728167317807674
384.0,0.0036073043011128902
416.0,0.0022953813895583153
448.0,0.0007709626224823296
480.0,8.697262819623575e-05
512.0,-0.0008772047585807741
576.0,-0.001300564967095852
640.0,-0.0021092165261507034
704.0,-0.0008824359974823892
768.0,0.0005044313729740679
832.0,0.0009208519477397203
896.0,0.002202763920649886
960.0,0.003270468208938837
1024.0,0.0037778911646455526
1152.0,0.0027085565961897373
1280.0,0.0018584150820970535
1408.0,0.0012847234029322863
1536.0,-0.0024690707214176655
1664.0,-0.004387982189655304
1792.0,-0.004687100183218718
1920.0,-0.0037132548168301582
2048.0,-0.0018944682087749243
2304.0,0.00039350782753899693
2560.0,-0.0006085448549129069
2816.0,-0.000584030116442591
3072.0,-0.0010209883330389857
3328.0,-0.003614784451201558
3584.0,-0.00037211788003332913
3840.0,-0.0038382753264158964
4096.0,-0.0059087686240673065
4608.0,0.005044073797762394
5120.0,-0.0022976810578256845
5632.0,0.004340848885476589
6144.0,-0.006818614900112152
6656.0,-0.0012376102386042476
7168.0,-0.007596482522785664
7680.0,-0.005904731806367636
8192.0,-0.0036871253978461027
end
