version,3.0
numOfCh,1
type,point
parent_name,19e3e_0dot1-0dot1
ch_type,1_1
kcount,1
numberNandB,1
brightnessNandB,1
carpet pos,0
pc,0
Time (ms),CH1 Auto-Correlation
1.0,0.045257095247507095
2.0,0.04473762586712837
3.0,0.044247210025787354
4.0,0.04377142712473869
5.0,0.04332757741212845
6.0,0.04286111518740654
7.0,0.042422592639923096
8.0,0.04199265316128731
9.0,0.04157479107379913
10.0,0.041189227253198624
11.0,0.040802232921123505
12.0,0.04041092097759247
13.0,0.04005197063088417
14.0,0.03969829902052879
15.0,0.039369918406009674
16.0,0.03904741257429123
18.0,0.03843012824654579
20.0,0.03782137855887413
22.0,0.03721064701676369
24.0,0.03660265728831291
26.0,0.03597676008939743
28.0,0.03539600968360901
30.0,0.03485226631164551
32.0,0.0343223437666893
36.0,0.03328680619597435
40.0,0.03224689140915871
44.0,0.03121930919587612
48.0,0.030170051380991936
52.0,0.029123270884156227
56.0,0.02819572575390339
60.0,0.02727021463215351
64.0,0.026353934779763222
72.0,0.024906868115067482
80.0,0.023702451959252357
88.0,0.02259623445570469
96.0,0.021412869915366173
104.0,0.02014784887433052
112.0,0.018847836181521416
120.0,0.017502138391137123
128.0,0.016221487894654274
144.0,0.013718350790441036
160.0,0.011531395837664604
176.0,0.009713361039757729
192.0,0.008077677339315414
208.0,0.006846682634204626
224.0,0.005922137293964624
240.0,0.005014877300709486
256.0,0.00451749749481678
288.0,0.004304030444473028
320.0,0.004537072032690048
352.0,0.004292499739676714
384.0,0.0044249570928514
416.0,0.004797379020601511
448.0,0.005086893681436777
480.0,0.00570265669375658
512.0,0.007129475940018892
576.0,0.005762340500950813
640.0,0.002021616091951728
704.0,-0.001256808522157371
768.0,-0.0025710079353302717
832.0,-0.0027096157427877188
896.0,-0.002694465918466449
960.0,-0.003833504393696785
1024.0,-0.0031376713886857033
1152.0,-0.0023904312402009964
1280.0,-0.000690259737893939
1408.0,0.0019205770222470164
1536.0,-0.0001360792521154508
1664.0,-0.001072053681127727
1792.0,0.0006435646791942418
1920.0,0.0023861906956881285
2048.0,0.0010802976321429014
2304.0,0.002918955171480775
2560.0,0.006908484734594822
2816.0,0.0027630282565951347
3072.0,0.0030316454358398914
3328.0,0.0013478475157171488
3584.0,-0.004628321621567011
3840.0,-0.0018610114930197597
4096.0,-0.00790501944720745
4608.0,-0.00549678597599268
5120.0,0.004547400400042534
5632.0,-0.0017305564833804965
6144.0,-0.010562323033809662
6656.0,-0.003747842274606228
7168.0,0.00019614421762526035
7680.0,0.0025381685700267553
8192.0,-0.0021546438802033663
end
