version,3.0
numOfCh,1
type,point
parent_name,19e3e_0dot1-0dot1
ch_type,1_1
kcount,1
numberNandB,1
brightnessNandB,1
carpet pos,0
pc,0
Time (ms),CH1 Auto-Correlation
1.0,0.043551746755838394
2.0,0.04294280707836151
3.0,0.04237530380487442
4.0,0.041814178228378296
5.0,0.04124756529927254
6.0,0.04070395603775978
7.0,0.04016924649477005
8.0,0.039644818753004074
9.0,0.03914207965135574
10.0,0.03862810879945755
11.0,0.03812139481306076
12.0,0.03763232007622719
13.0,0.037148911505937576
14.0,0.03667602688074112
15.0,0.03620801120996475
16.0,0.035748377442359924
18.0,0.0348694883286953
20.0,0.034028444439172745
22.0,0.0331958644092083
24.0,0.032387394458055496
26.0,0.03162389248609543
28.0,0.030903348699212074
30.0,0.030204225331544876
32.0,0.029564309865236282
36.0,0.028496183454990387
40.0,0.02757859416306019
44.0,0.02671993523836136
48.0,0.0259050615131855
52.0,0.0251218993216753
56.0,0.024285055696964264
60.0,0.023552346974611282
64.0,0.022928593680262566
72.0,0.021896932274103165
80.0,0.021105840802192688
88.0,0.02027413435280323
96.0,0.019592439755797386
104.0,0.0187994297593832
112.0,0.017688989639282227
120.0,0.016361907124519348
128.0,0.015233605168759823
144.0,0.013356117531657219
160.0,0.012001197785139084
176.0,0.011256196536123753
192.0,0.01081356592476368
208.0,0.010043308138847351
224.0,0.009547867812216282
240.0,0.009611680172383785
256.0,0.009873643517494202
288.0,0.009793349541723728
320.0,0.009571617469191551
352.0,0.0075671253725886345
384.0,0.00457641901448369
416.0,0.0024661067873239517
448.0,-0.00047534925397485495
480.0,-0.0008960536797530949
512.0,0.00039400492096319795
576.0,0.0010066417744383216
640.0,-0.00014206342166289687
704.0,-0.00036756618646904826
768.0,-0.0004166564904153347
832.0,0.0017897520447149873
896.0,0.0014811645960435271
960.0,0.00025017515872605145
1024.0,-0.0011822639498859644
1152.0,-0.002038421807810664
1280.0,-0.004331190139055252
1408.0,-0.0010852625127881765
1536.0,-0.0023946380242705345
1664.0,-0.0006955036660656333
1792.0,-0.0016269013285636902
1920.0,-0.0058218855410814285
2048.0,-0.006712859962135553
2304.0,-0.0051767295226454735
2560.0,-0.0010329348733648658
2816.0,-0.0011797044426202774
3072.0,0.0023015656042844057
3328.0,0.0010319352149963379
3584.0,-0.0050479997880756855
3840.0,-0.007489686366170645
4096.0,-0.0046711633913218975
4608.0,0.0011089565232396126
5120.0,0.0026411607395857573
5632.0,0.009878979064524174
6144.0,0.005331204738467932
6656.0,-0.0006207533879205585
7168.0,-0.008912590332329273
7680.0,-0.003007757943123579
8192.0,-0.00661742128431797
end
