version,3.0
numOfCh,1
type,point
parent_name,19e3e_0dot1-0dot1
ch_type,1_1
kcount,1
numberNandB,1
brightnessNandB,1
carpet pos,0
pc,0
Time (ms),CH1 Auto-Correlation
1.0,0.049274083226919174
2.0,0.04866701364517212
3.0,0.048109885305166245
4.0,0.04756184667348862
5.0,0.04702998325228691
6.0,0.046510450541973114
7.0,0.04599017649888992
8.0,0.045490264892578125
9.0,0.044999051839113235
10.0,0.0445091612637043
11.0,0.04402927681803703
12.0,0.04354802146553993
13.0,0.043074727058410645
14.0,0.04261020943522453
15.0,0.04216335341334343
16.0,0.04173571988940239
18.0,0.04085225239396095
20.0,0.04002029448747635
22.0,0.03925550356507301
24.0,0.03848867490887642
26.0,0.037794459611177444
28.0,0.037124715745449066
30.0,0.03644878417253494
32.0,0.03580908104777336
36.0,0.03451467677950859
40.0,0.03326958417892456
44.0,0.03201252594590187
48.0,0.030787615105509758
52.0,0.029691379517316818
56.0,0.02867134101688862
60.0,0.027649035677313805
64.0,0.02658422291278839
72.0,0.02489122748374939
80.0,0.023615818470716476
88.0,0.022413019090890884
96.0,0.021209651604294777
104.0,0.02006281539797783
112.0,0.019072063267230988
120.0,0.01811562106013298
128.0,0.017126070335507393
144.0,0.01508959662169218
160.0,0.01335032656788826
176.0,0.011279787868261337
192.0,0.009497382678091526
208.0,0.008536452427506447
224.0,0.00812542624771595
240.0,0.007993079721927643
256.0,0.008379114791750908
288.0,0.009143549017608166
320.0,0.009670489467680454
352.0,0.011051922105252743
384.0,0.010967029258608818
416.0,0.00999473873525858
448.0,0.009034419432282448
480.0,0.008709724992513657
512.0,0.008343569934368134
576.0,0.007661369163542986
640.0,0.005446275696158409
704.0,0.003986015450209379
768.0,0.0024809865280985832
832.0,0.00371754914522171
896.0,0.0018180079059675336
960.0,-0.0012533654225990176
1024.0,-0.0041929506696760654
1152.0,-0.004057274200022221
1280.0,0.0010077551705762744
1408.0,0.0013755620457231998
1536.0,-0.003395559499040246
1664.0,-0.005352743901312351
1792.0,-0.007666412275284529
1920.0,-0.008512034080922604
2048.0,-0.007837542332708836
2304.0,-0.011330243200063705
2560.0,-0.008889290504157543
2816.0,-0.005251153837889433
3072.0,-0.004449096508324146
3328.0,-0.003562601050361991
3584.0,-8.581901056459174e-05
3840.0,-0.003298291703686118
4096.0,0.003175759920850396
4608.0,0.0051305172964930534
5120.0,0.0029144068248569965
5632.0,0.0006415295065380633
6144.0,-5.22395312145818e-05
6656.0,-0.0017018774524331093
7168.0,0.0017417328199371696
7680.0,0.0038066995330154896
8192.0,0.0006629510316997766
end
