version,3.0
numOfCh,1
type,point
parent_name,19e3e_0dot1-0dot1
ch_type,1_1
kcount,1
numberNandB,1
brightnessNandB,1
carpet pos,0
pc,0
Time (ms),CH1 Auto-Correlation
1.0,0.06394457072019577
2.0,0.0632578432559967
3.0,0.06258229911327362
4.0,0.06192272529006004
5.0,0.06130508333444595
6.0,0.06068387255072594
7.0,0.06006723642349243
8.0,0.059443142265081406
9.0,0.058816928416490555
10.0,0.05817684531211853
11.0,0.057575371116399765
12.0,0.05697958543896675
13.0,0.05644453689455986
14.0,0.055932797491550446
15.0,0.055400487035512924
16.0,0.05486709251999855
18.0,0.053813181817531586
20.0,0.05279705300927162
22.0,0.051848724484443665
24.0,0.05092699080705643
26.0,0.05004975199699402
28.0,0.049211982637643814
30.0,0.048404864966869354
32.0,0.04760000482201576
36.0,0.046066172420978546
40.0,0.04456884041428566
44.0,0.043202586472034454
48.0,0.04211262986063957
52.0,0.04111456871032715
56.0,0.04012357071042061
60.0,0.03911764919757843
64.0,0.038080789148807526
72.0,0.035990022122859955
80.0,0.03408883139491081
88.0,0.03265450522303581
96.0,0.03132396936416626
104.0,0.030164174735546112
112.0,0.029149236157536507
120.0,0.02810613438487053
128.0,0.02717612497508526
144.0,0.02605735883116722
160.0,0.025149855762720108
176.0,0.023711171001195908
192.0,0.022204192355275154
208.0,0.02140042372047901
224.0,0.020567715167999268
240.0,0.01903676427900791
256.0,0.017506174743175507
288.0,0.015104557387530804
320.0,0.01234295405447483
352.0,0.009501305408775806
384.0,0.008003996685147285
416.0,0.009203202091157436
448.0,0.009196920320391655
480.0,0.008687427267432213
512.0,0.007447683252394199
576.0,0.002448445651680231
640.0,-0.0007981988601386547
704.0,-0.0035995198413729668
768.0,-0.005725294351577759
832.0,-0.008119073696434498
896.0,-0.0075638070702552795
960.0,-0.007294653914868832
1024.0,-0.007318781688809395
1152.0,-0.0031161450315266848
1280.0,0.0012272796593606472
1408.0,0.004451405722647905
1536.0,0.007279157638549805
1664.0,0.002653387375175953
1792.0,-0.00177567929495126
1920.0,-0.0034943176433444023
2048.0,-0.0040775020606815815
2304.0,-0.005179317202419043
2560.0,-0.002432370325550437
2816.0,0.0006294867489486933
3072.0,0.0023639602586627007
3328.0,-0.013909248635172844
3584.0,-0.02317328378558159
3840.0,-0.016711072996258736
4096.0,-0.004993986338376999
4608.0,0.013054778799414635
5120.0,-0.01079175341874361
5632.0,-0.005181158892810345
6144.0,0.007900611497461796
6656.0,-0.002591475611552596
7168.0,0.004658500663936138
7680.0,0.004283339716494083
8192.0,-0.010229982435703278
end
