version,3.0
numOfCh,1
type,point
parent_name,19e3e_0dot1-0dot1
ch_type,1_1
kcount,1
numberNandB,1
brightnessNandB,1
carpet pos,0
pc,0
Time (ms),CH1 Auto-Correlation
1.0,0.03564446419477463
2.0,0.03509882465004921
3.0,0.03459319472312927
4.0,0.034133076667785645
5.0,0.03369920328259468
6.0,0.0332549586892128
7.0,0.03282291069626808
8.0,0.032404035329818726
9.0,0.03198570758104324
10.0,0.03157181292772293
11.0,0.031162405386567116
12.0,0.030768021941184998
13.0,0.030364980921149254
14.0,0.029956286773085594
15.0,0.029572270810604095
16.0,0.029188944026827812
18.0,0.028475267812609673
20.0,0.0277666375041008
22.0,0.02704162709414959
24.0,0.026354650035500526
26.0,0.025721454992890358
28.0,0.025181597098708153
30.0,0.024657893925905228
32.0,0.024097749963402748
36.0,0.023069709539413452
40.0,0.022073740139603615
44.0,0.021074706688523293
48.0,0.02014009840786457
52.0,0.019236546009778976
56.0,0.018353769555687904
60.0,0.01754961535334587
64.0,0.01677612215280533
72.0,0.015169263817369938
80.0,0.013791962526738644
88.0,0.012757984921336174
96.0,0.012106113135814667
104.0,0.011458462104201317
112.0,0.01086971815675497
120.0,0.010494180954992771
128.0,0.010237447917461395
144.0,0.009354991838335991
160.0,0.007953877560794353
176.0,0.006738246884196997
192.0,0.0056267352774739265
208.0,0.004980717319995165
224.0,0.00415501743555069
240.0,0.0032016842160373926
256.0,0.002656906144693494
288.0,0.002445621183142066
320.0,0.0028268781024962664
352.0,0.0027244335506111383
384.0,0.0015210798010230064
416.0,0.0003645705874077976
448.0,-0.00012162143684690818
480.0,-0.00033100496511906385
512.0,-0.0014730251859873533
576.0,-0.001189325237646699
640.0,-0.0018824463477358222
704.0,-0.0027656538877636194
768.0,-0.003015441820025444
832.0,-0.001792994560673833
896.0,0.00017951216432265937
960.0,-0.00015474901010748
1024.0,-0.0034833226818591356
1152.0,-0.005130833014845848
1280.0,-0.0007935910834930837
1408.0,0.00222197687253356
1536.0,0.004545837175101042
1664.0,0.0037257971707731485
1792.0,0.004360113758593798
1920.0,0.0009489657240919769
2048.0,-0.0019049625843763351
2304.0,0.00036470877239480615
2560.0,0.00045305161620490253
2816.0,-0.0031534817535430193
3072.0,-0.0033548246137797832
3328.0,-0.005533772520720959
3584.0,0.0034069428220391273
3840.0,0.001653675688430667
4096.0,0.006661796476691961
4608.0,-0.003907469566911459
5120.0,-0.0030005224980413914
5632.0,0.0018545445054769516
6144.0,-0.0007546809501945972
6656.0,-0.003155273851007223
7168.0,-0.00222033797763288
7680.0,0.0028787555638700724
8192.0,0.0005995078827254474
end
