version,3.0
numOfCh,1
type,point
parent_name,19e3e_0dot1-0dot1
ch_type,1_1
kcount,1
numberNandB,1
brightnessNandB,1
carpet pos,0
pc,0
Time (ms),CH1 Auto-Correlation
1.0,0.04387563467025757
2.0,0.04342062398791313
3.0,0.042968470603227615
4.0,0.042519330978393555
5.0,0.042092472314834595
6.0,0.04166622459888458
7.0,0.04124639928340912
8.0,0.040832724422216415
9.0,0.040427595376968384
10.0,0.04003143683075905
11.0,0.0396413654088974
12.0,0.039255328476428986
13.0,0.03886756673455238
14.0,0.03849080577492714
15.0,0.03811686113476753
16.0,0.03774971142411232
18.0,0.03702559322118759
20.0,0.03635065630078316
22.0,0.03568931296467781
24.0,0.0350329764187336
26.0,0.03440244123339653
28.0,0.033792972564697266
30.0,0.03321695327758789
32.0,0.03266777843236923
36.0,0.03159214183688164
40.0,0.030558928847312927
44.0,0.029577769339084625
48.0,0.0286155603826046
52.0,0.027635566890239716
56.0,0.02672451362013817
60.0,0.025924891233444214
64.0,0.025235801935195923
72.0,0.023967009037733078
80.0,0.02273942343890667
88.0,0.021579816937446594
96.0,0.02049311250448227
104.0,0.01942211017012596
112.0,0.018459275364875793
120.0,0.01759648695588112
128.0,0.016717499122023582
144.0,0.01473736297339201
160.0,0.0131457494571805
176.0,0.012241621501743793
192.0,0.011293098330497742
208.0,0.010100836865603924
224.0,0.0094322944059968
240.0,0.008917364291846752
256.0,0.00828469730913639
288.0,0.006201035808771849
320.0,0.004448681138455868
352.0,0.004032962489873171
384.0,0.004576636478304863
416.0,0.004585254937410355
448.0,0.004584215115755796
480.0,0.005629414226859808
512.0,0.006338513921946287
576.0,0.005205166060477495
640.0,0.005624774843454361
704.0,0.0035618902184069157
768.0,0.0034882030449807644
832.0,0.0016042677452787757
896.0,-0.00141291378531605
960.0,-0.003382585709914565
1024.0,-0.0036528657656162977
1152.0,-0.002050515729933977
1280.0,0.00035823057987727225
1408.0,-0.003731569740921259
1536.0,-0.003851573448628187
1664.0,-0.006402506958693266
1792.0,-0.009201811626553535
1920.0,-0.007289723493158817
2048.0,-0.007704402785748243
2304.0,-0.00619693286716938
2560.0,-0.0034771310165524483
2816.0,0.0021665028762072325
3072.0,0.0042658718302845955
3328.0,0.0076980325393378735
3584.0,0.006228978279978037
3840.0,-0.0008853775216266513
4096.0,0.0013571365270763636
4608.0,0.0004428261308930814
5120.0,-0.006522299721837044
5632.0,-0.003021280514076352
6144.0,-8.714847353985533e-05
6656.0,0.0029380808118730783
7168.0,0.0021924313623458147
7680.0,-0.0024279961362481117
8192.0,-0.005478633567690849
end
