version,3.0
numOfCh,1
type,point
parent_name,19e3e_0dot1-0dot1
ch_type,1_1
kcount,1
numberNandB,1
brightnessNandB,1
carpet pos,0
pc,0
Time (ms),CH1 Auto-Correlation
1.0,0.0793333649635315
2.0,0.07843146473169327
3.0,0.07756028324365616
4.0,0.07674891501665115
5.0,0.07598347961902618
6.0,0.07524077594280243
7.0,0.07458127290010452
8.0,0.07393832504749298
9.0,0.07329585403203964
10.0,0.07267513871192932
11.0,0.07202687114477158
12.0,0.07142007350921631
13.0,0.07078620046377182
14.0,0.07018423080444336
15.0,0.06962373852729797
16.0,0.06907590478658676
18.0,0.06790513545274734
20.0,0.066815584897995
22.0,0.06589755415916443
24.0,0.06499966979026794
26.0,0.06410705298185349
28.0,0.06308337301015854
30.0,0.0621555894613266
32.0,0.06129545718431473
36.0,0.05976392328739166
40.0,0.05828149616718292
44.0,0.056970205157995224
48.0,0.05563970282673836
52.0,0.05408375337719917
56.0,0.05264225974678993
60.0,0.05123385787010193
64.0,0.049850307404994965
72.0,0.04744456335902214
80.0,0.045057184994220734
88.0,0.042653393000364304
96.0,0.040562134236097336
104.0,0.038770660758018494
112.0,0.037015534937381744
120.0,0.03501996025443077
128.0,0.03328108787536621
144.0,0.03112024813890457
160.0,0.02936209738254547
176.0,0.028449734672904015
192.0,0.02749910019338131
208.0,0.02695159800350666
224.0,0.026306167244911194
240.0,0.02515929937362671
256.0,0.02409488335251808
288.0,0.020894795656204224
320.0,0.0196645837277174
352.0,0.01837596856057644
384.0,0.01604793779551983
416.0,0.013343405909836292
448.0,0.010262327268719673
480.0,0.005090009421110153
512.0,0.0009904009057208896
576.0,-0.004584862384945154
640.0,-0.004520202521234751
704.0,-0.004328999202698469
768.0,-0.00545474560931325
832.0,-0.006258131470531225
896.0,-0.009508301503956318
960.0,-0.011836318299174309
1024.0,-0.01210151519626379
1152.0,-0.003591872053220868
1280.0,0.004300265572965145
1408.0,0.006363751832395792
1536.0,0.007075637113302946
1664.0,0.0032055245246738195
1792.0,0.0002983319864142686
1920.0,0.0005893348134122789
2048.0,0.001354270614683628
2304.0,-0.005480682477355003
2560.0,-0.007202340755611658
2816.0,-0.01370916049927473
3072.0,-0.01368683110922575
3328.0,0.0020030189771205187
3584.0,0.005961627699434757
3840.0,0.008566157892346382
4096.0,0.008783098310232162
4608.0,0.0026028600987046957
5120.0,-0.003106181276962161
5632.0,-0.005973500199615955
6144.0,0.006986839696764946
6656.0,-0.015011493116617203
7168.0,-0.02758605405688286
7680.0,-0.00045639192103408277
8192.0,0.0018428866751492023
end
