version,3.0
numOfCh,1
type,point
parent_name,19e3e_0dot1-0dot1
ch_type,1_1
kcount,1
numberNandB,1
brightnessNandB,1
carpet pos,0
pc,0
Time (ms),CH1 Auto-Correlation
1.0,0.04398568719625473
2.0,0.04338594153523445
3.0,0.04279208555817604
4.0,0.04220325127243996
5.0,0.041626300662755966
6.0,0.04104416072368622
7.0,0.04047347977757454
8.0,0.03992532938718796
9.0,0.039380379021167755
10.0,0.03883917257189751
11.0,0.03831901401281357
12.0,0.03780419006943703
13.0,0.037296850234270096
14.0,0.03681838512420654
15.0,0.03633062168955803
16.0,0.03587285056710243
18.0,0.03503071144223213
20.0,0.03423266485333443
22.0,0.03343566507101059
24.0,0.032672539353370667
26.0,0.03192802146077156
28.0,0.031196463853120804
30.0,0.030520571395754814
32.0,0.0298767052590847
36.0,0.02859431877732277
40.0,0.027383780106902122
44.0,0.02628478594124317
48.0,0.02523963712155819
52.0,0.024354511871933937
56.0,0.023573176935315132
60.0,0.022868270054459572
64.0,0.022206224501132965
72.0,0.02090109884738922
80.0,0.019724639132618904
88.0,0.018783068284392357
96.0,0.018169306218624115
104.0,0.017552340403199196
112.0,0.016896648332476616
120.0,0.016178656369447708
128.0,0.015749501064419746
144.0,0.01540543232113123
160.0,0.014919972978532314
176.0,0.01443041767925024
192.0,0.013755030930042267
208.0,0.013127601705491543
224.0,0.012028086930513382
240.0,0.010501651093363762
256.0,0.008842671290040016
288.0,0.006893858313560486
320.0,0.0061212521977722645
352.0,0.005332629196345806
384.0,0.004465450067073107
416.0,0.004039525520056486
448.0,0.0028655091300606728
480.0,0.0021196012385189533
512.0,0.0027488493360579014
576.0,0.004534115549176931
640.0,0.006726743653416634
704.0,0.007090809755027294
768.0,0.007314230315387249
832.0,0.009383496828377247
896.0,0.00805168692022562
960.0,0.005790026858448982
1024.0,0.004718464333564043
1152.0,0.0028989471029490232
1280.0,0.00186944380402565
1408.0,-0.0010420880280435085
1536.0,0.0005787973641417921
1664.0,0.0023712823167443275
1792.0,0.0018328136065974832
1920.0,0.00046049439697526395
2048.0,-0.002246244577690959
2304.0,-0.004717344418168068
2560.0,-0.004163782112300396
2816.0,-0.001278465031646192
3072.0,-0.0030667514074593782
3328.0,-0.0013889740221202374
3584.0,0.0006583533249795437
3840.0,0.002345919841900468
4096.0,0.0038772972766309977
4608.0,0.003430294105783105
5120.0,0.0017285493668168783
5632.0,-0.0016914780717343092
6144.0,-0.0049606021493673325
6656.0,-0.00026050247834064066
7168.0,-0.002908848226070404
7680.0,-0.007869805209338665
8192.0,-0.007905511185526848
end
