version,3.0
numOfCh,1
type,point
parent_name,19e3e_0dot1-0dot1
ch_type,1_1
kcount,1
numberNandB,1
brightnessNandB,1
carpet pos,0
pc,0
Time (ms),CH1 Auto-Correlation
1.0,0.035083021968603134
2.0,0.03448156267404556
3.0,0.03392041474580765
4.0,0.03339109942317009
5.0,0.032863736152648926
6.0,0.03233930468559265
7.0,0.03182728961110115
8.0,0.03131069615483284
9.0,0.030810898169875145
10.0,0.030326958745718002
11.0,0.02985147386789322
12.0,0.02936929278075695
13.0,0.028923584148287773
14.0,0.028490256518125534
15.0,0.028052672743797302
16.0,0.027644911780953407
18.0,0.02679084613919258
20.0,0.025954751297831535
22.0,0.02517380751669407
24.0,0.024372832849621773
26.0,0.023573795333504677
28.0,0.022792574018239975
30.0,0.0219881534576416
32.0,0.0212169848382473
36.0,0.019673502072691917
40.0,0.018216263502836227
44.0,0.016870010644197464
48.0,0.015598855912685394
52.0,0.014424353837966919
56.0,0.01341946143656969
60.0,0.012653454206883907
64.0,0.012080883607268333
72.0,0.0109242033213377
80.0,0.009981786832213402
88.0,0.009233107790350914
96.0,0.00859512947499752
104.0,0.008010023273527622
112.0,0.007652279920876026
120.0,0.007298354525119066
128.0,0.007021393161267042
144.0,0.006840553134679794
160.0,0.0065045710653066635
176.0,0.006178112700581551
192.0,0.005816542077809572
208.0,0.005365096498280764
224.0,0.005405274219810963
240.0,0.005511215887963772
256.0,0.0056831021793186665
288.0,0.004397670738399029
320.0,0.002116478979587555
352.0,0.0005517379613593221
384.0,0.00023058743681758642
416.0,-0.0004229006008245051
448.0,-5.1801125664496794e-05
480.0,0.0009323172853328288
512.0,0.0022919143084436655
576.0,0.0007947843405418098
640.0,-0.0011594411917030811
704.0,-0.000718589115422219
768.0,0.0009742247639223933
832.0,0.00019032129785045981
896.0,-1.66623813129263e-05
960.0,0.0018728282302618027
1024.0,0.00131976546254009
1152.0,-0.005257876124233007
1280.0,-0.0043236673809587955
1408.0,-0.004994438495486975
1536.0,-0.0020637158304452896
1664.0,-0.0020289712119847536
1792.0,-0.002004785230383277
1920.0,-0.003128371899947524
2048.0,-0.00046177554759196937
2304.0,-0.0014021177776157856
2560.0,-8.138810517266393e-05
2816.0,-0.0012077584397047758
3072.0,-0.0001444237568648532
3328.0,0.0006980372709222138
3584.0,0.0007475095335394144
3840.0,-0.0003742368135135621
4096.0,0.0020709370728582144
4608.0,0.001799016259610653
5120.0,0.0014755214797332883
5632.0,-0.00019281879940535873
6144.0,-0.0029481661040335894
6656.0,-0.0038974490016698837
7168.0,-0.0010246578603982925
7680.0,0.0020857597701251507
8192.0,0.004324488807469606
end
