version,3.0
numOfCh,1
type,point
parent_name,19e3e_0dot1-0dot1
ch_type,1_1
kcount,1
numberNandB,1
brightnessNandB,1
carpet pos,0
pc,0
Time (ms),CH1 Auto-Correlation
1.0,0.0627848207950592
2.0,0.062031690031290054
3.0,0.06128200143575668
4.0,0.06061449646949768
5.0,0.05997117608785629
6.0,0.05935513228178024
7.0,0.05872906371951103
8.0,0.058109354227781296
9.0,0.057512152940034866
10.0,0.056874483823776245
11.0,0.056319668889045715
12.0,0.05578254535794258
13.0,0.055286094546318054
14.0,0.054797980934381485
15.0,0.054310377687215805
16.0,0.053800586611032486
18.0,0.05281822383403778
20.0,0.05184672027826309
22.0,0.050896525382995605
24.0,0.05000806599855423
26.0,0.04921815171837807
28.0,0.048483625054359436
30.0,0.04774503782391548
32.0,0.04702339693903923
36.0,0.045740749686956406
40.0,0.04448115825653076
44.0,0.04326770454645157
48.0,0.04197125881910324
52.0,0.04059411957859993
56.0,0.0393848642706871
60.0,0.03841782361268997
64.0,0.037650056183338165
72.0,0.03598823770880699
80.0,0.03434484079480171
88.0,0.03251071646809578
96.0,0.030647391453385353
104.0,0.029009010642766953
112.0,0.027601636946201324
120.0,0.026621080935001373
128.0,0.026067284867167473
144.0,0.02462693862617016
160.0,0.023231005296111107
176.0,0.02200266532599926
192.0,0.021011851727962494
208.0,0.019416024908423424
224.0,0.018034491688013077
240.0,0.016538435593247414
256.0,0.014695446938276291
288.0,0.012005498632788658
320.0,0.012947885319590569
352.0,0.012938449159264565
384.0,0.010431509464979172
416.0,0.00879533402621746
448.0,0.007656638976186514
480.0,0.00658046267926693
512.0,0.005985470954328775
576.0,0.0023441000375896692
640.0,-0.001437355182133615
704.0,-0.002620238810777664
768.0,-0.006141189951449633
832.0,-0.00866845715790987
896.0,-0.009063026867806911
960.0,-0.011259314604103565
1024.0,-0.009764892980456352
1152.0,-0.011568699963390827
1280.0,-0.014599005691707134
1408.0,-0.010518197901546955
1536.0,-0.004718308337032795
1664.0,-0.0032186631578952074
1792.0,-0.0021839477121829987
1920.0,0.0015537348808720708
2048.0,0.006060985382646322
2304.0,0.007236169185489416
2560.0,0.012236041948199272
2816.0,0.010881821624934673
3072.0,0.00853018183261156
3328.0,0.0027651770506054163
3584.0,-0.002160271629691124
3840.0,-0.0076326061971485615
4096.0,-0.0061632483266294
4608.0,0.0016206094296649098
5120.0,-0.0005747817922383547
5632.0,-0.005607117898762226
6144.0,-3.6610435927286744e-05
6656.0,0.0002779393980745226
7168.0,-0.005115203093737364
7680.0,-0.015544198453426361
8192.0,-0.022887466475367546
end
