version,3.0
numOfCh,1
type,point
parent_name,40-cuts
ch_type,1_1
kcount,1
numberNandB,1
brightnessNandB,1
carpet pos,0
pc,0
Time (ms),CH1 Auto-Correlation
1.0,0.029418015852570534
2.0,0.027199873700737953
3.0,0.025265375152230263
4.0,0.023544419556856155
5.0,0.022032253444194794
6.0,0.020735707134008408
7.0,0.01958635449409485
8.0,0.01855955645442009
9.0,0.01770184375345707
10.0,0.016901377588510513
11.0,0.016210289672017097
12.0,0.015556293539702892
13.0,0.014980840496718884
14.0,0.01442458014935255
15.0,0.013960813172161579
16.0,0.01346980407834053
18.0,0.012643481604754925
20.0,0.01189712155610323
22.0,0.011136318556964397
24.0,0.010480598546564579
26.0,0.00991226825863123
28.0,0.009482725523412228
30.0,0.009065181948244572
32.0,0.008660930208861828
36.0,0.007916714996099472
40.0,0.007366580422967672
44.0,0.006874848157167435
48.0,0.006391094531863928
52.0,0.005976649932563305
56.0,0.00578526733443141
60.0,0.005537380464375019
64.0,0.005140103865414858
72.0,0.0044363089837133884
80.0,0.004064064938575029
88.0,0.003834231523796916
96.0,0.003240761114284396
104.0,0.0027606640942394733
112.0,0.0023185862228274345
120.0,0.002126894658431411
128.0,0.0018747028661891818
144.0,0.0016356187406927347
160.0,0.0013916041934862733
176.0,0.0012066157069057226
192.0,0.0007566257263533771
208.0,2.4758708605077118e-05
224.0,-7.522336090914905e-05
240.0,0.0003700112574733794
256.0,0.0015769224846735597
288.0,0.0010555554181337357
320.0,0.0005802571540698409
352.0,0.000655773445032537
384.0,0.000254868675256148
416.0,0.0008296910091303289
448.0,0.00028160325018689036
480.0,-0.0013011433184146881
512.0,-0.0005834078183397651
576.0,-0.00012931553646922112
640.0,0.0006627084221690893
704.0,0.0008857805514708161
768.0,0.00036082626320421696
832.0,-0.0002236225554952398
896.0,-0.000926068692933768
960.0,-0.0009197262697853148
1024.0,-0.0015179667389020324
1152.0,-0.0016249199397861958
1280.0,-0.0011202855966985226
1408.0,-0.0014197001000866294
1536.0,-0.001116765895858407
1664.0,-0.0014998369151726365
1792.0,-0.0008142451988533139
1920.0,-0.0006159206968732178
2048.0,-0.00025594141334295273
2304.0,0.0007493249140679836
2560.0,0.0010138052748516202
2816.0,0.0006649300921708345
3072.0,-0.0006550849648192525
3328.0,-0.00036416127113625407
3584.0,0.00029470602748915553
3840.0,-0.00017582667351234704
4096.0,0.00043354215449653566
4608.0,-0.0003838776028715074
5120.0,-0.0017674979753792286
5632.0,-0.0006408115732483566
6144.0,0.001238696975633502
6656.0,0.0016576520865783095
7168.0,-0.00012977495498489588
7680.0,-0.0010049780830740929
8192.0,0.0001103092945413664
9216.0,0.00020191457588225603
10240.0,-0.0005828600260429084
11264.0,-0.0004855303268413991
12288.0,-0.0008144928142428398
13312.0,0.0005514526856131852
14336.0,0.0006215645698830485
end
