version,3.0
numOfCh,1
type,point
parent_name,40-cuts
ch_type,1_1
kcount,1
numberNandB,1
brightnessNandB,1
carpet pos,0
pc,0
Time (ms),CH1 Auto-Correlation
1.0,0.09380973130464554
2.0,0.08638184517621994
3.0,0.07983265817165375
4.0,0.07403414696455002
5.0,0.0687556266784668
6.0,0.06404823064804077
7.0,0.059978045523166656
8.0,0.05632178112864494
9.0,0.05304713174700737
10.0,0.05022656172513962
11.0,0.047782693058252335
12.0,0.04568491503596306
13.0,0.043737851083278656
14.0,0.041884858161211014
15.0,0.040186963975429535
16.0,0.03838508203625679
18.0,0.03559054061770439
20.0,0.03312326967716217
22.0,0.03082030639052391
24.0,0.028798457235097885
26.0,0.026909928768873215
28.0,0.024982567876577377
30.0,0.023203045129776
32.0,0.021506521850824356
36.0,0.01977548748254776
40.0,0.018595708534121513
44.0,0.01741947792470455
48.0,0.014929987490177155
52.0,0.012269429862499237
56.0,0.010816052556037903
60.0,0.009916283190250397
64.0,0.008002223446965218
72.0,0.005332463420927525
80.0,0.003740833606570959
88.0,0.003966279793530703
96.0,0.0034621793311089277
104.0,0.0033250870183110237
112.0,0.0024287793785333633
120.0,0.003266533836722374
128.0,0.0039044443983584642
144.0,0.0017600604332983494
160.0,0.004324332810938358
176.0,0.005709110293537378
192.0,0.005208056420087814
208.0,0.006462925113737583
224.0,0.004229454789310694
240.0,0.004369460977613926
256.0,0.004882273264229298
288.0,0.001400092849507928
320.0,-0.0006602427456527948
352.0,0.001427214010618627
384.0,0.0015662326477468014
416.0,-0.00019479444017633796
448.0,-0.004195548128336668
480.0,-0.0021681291982531548
512.0,-0.00043106998782604933
576.0,-9.776759543456137e-05
640.0,-0.0017958518583327532
704.0,-0.002256447449326515
768.0,0.0006536344881169498
832.0,-0.0006000147550366819
896.0,0.0013692480279132724
960.0,0.000542391964700073
1024.0,0.004214787855744362
1152.0,-0.0018037983682006598
1280.0,0.0036334414035081863
1408.0,0.003436486003920436
1536.0,-0.0008364383247680962
1664.0,0.0016162591055035591
1792.0,-0.0013172730104997754
1920.0,0.000729742634575814
2048.0,-0.000696612405590713
2304.0,-0.0017845008987933397
2560.0,-0.0030434448271989822
2816.0,0.001106626121327281
3072.0,0.0010613364866003394
3328.0,0.001958288950845599
3584.0,-9.997678716899827e-05
3840.0,-0.0014014639891684055
4096.0,-0.0012285665143281221
4608.0,-2.050049624813255e-05
5120.0,-0.0005031402106396854
5632.0,-0.001401457004249096
6144.0,-0.00015289861767087132
6656.0,-0.0012025805190205574
7168.0,-0.0014209012733772397
7680.0,-0.001623836811631918
8192.0,-0.0036071815993636847
9216.0,0.001611132174730301
10240.0,0.001123558497056365
11264.0,-0.0021330025047063828
12288.0,0.0005903523997403681
13312.0,-0.0003963338676840067
14336.0,-0.005578158888965845
end
