version,3.0
numOfCh,1
type,point
parent_name,40-cuts
ch_type,1_1
kcount,1
numberNandB,1
brightnessNandB,1
carpet pos,0
pc,0
Time (ms),CH1 Auto-Correlation
1.0,0.09438680112361908
2.0,0.08737359195947647
3.0,0.0814424455165863
4.0,0.07632594555616379
5.0,0.07175400853157043
6.0,0.06778254359960556
7.0,0.06434673815965652
8.0,0.06131090968847275
9.0,0.0585210844874382
10.0,0.0559689924120903
11.0,0.053513333201408386
12.0,0.05106254294514656
13.0,0.04878482222557068
14.0,0.046725280582904816
15.0,0.04466506466269493
16.0,0.042834069579839706
18.0,0.04009690135717392
20.0,0.03761632367968559
22.0,0.036041758954524994
24.0,0.03453541547060013
26.0,0.03299872204661369
28.0,0.03125285357236862
30.0,0.02958759106695652
32.0,0.027907611802220345
36.0,0.024394715204834938
40.0,0.022034237161278725
44.0,0.02019997499883175
48.0,0.018500916659832
52.0,0.017228078097105026
56.0,0.015328506007790565
60.0,0.013688374310731888
64.0,0.011985830031335354
72.0,0.00977402925491333
80.0,0.007618853822350502
88.0,0.006629969924688339
96.0,0.006308491807430983
104.0,0.005577892065048218
112.0,0.0057536237873137
120.0,0.006075836252421141
128.0,0.005130707286298275
144.0,0.006635049358010292
160.0,0.007685126271098852
176.0,0.007634960114955902
192.0,0.008688811212778091
208.0,0.009720329195261002
224.0,0.007839185185730457
240.0,0.0077532329596579075
256.0,0.0051209828816354275
288.0,0.0003307234146632254
320.0,-0.0022908917162567377
352.0,-0.006087418645620346
384.0,-0.006236287299543619
416.0,-0.0034378867130726576
448.0,0.00019388087093830109
480.0,0.0019958249758929014
512.0,0.005906302481889725
576.0,0.0015638810582458973
640.0,0.003519960679113865
704.0,0.003642309457063675
768.0,0.001819323981180787
832.0,0.0007244164007715881
896.0,-0.003897544229403138
960.0,-0.0010415221331641078
1024.0,-0.002061802428215742
1152.0,-0.0022475402802228928
1280.0,-0.0030436371453106403
1408.0,-0.0010541158262640238
1536.0,-0.0031583940144628286
1664.0,-0.0013879787875339389
1792.0,-0.004400310572236776
1920.0,-0.007362410891801119
2048.0,-0.005886055063456297
2304.0,-0.0025771441869437695
2560.0,-0.0031665621791034937
2816.0,0.0014107960741966963
3072.0,0.000927728193346411
3328.0,0.0029214252717792988
3584.0,0.007551068440079689
3840.0,0.003377373330295086
4096.0,0.0020751734264194965
4608.0,0.0010345752816647291
5120.0,-0.0010790243977680802
5632.0,-0.0012228178093209863
6144.0,-0.0031778125558048487
6656.0,-0.0029704072512686253
7168.0,-0.0030916312243789434
7680.0,0.004686306696385145
8192.0,0.0030603217892348766
9216.0,-0.0031157720368355513
10240.0,-0.0002876174112316221
11264.0,0.0007487334660254419
12288.0,-0.003924424294382334
13312.0,0.0011711204424500465
14336.0,0.001152181182987988
end
