version,3.0
numOfCh,1
type,point
parent_name,40-cuts
ch_type,1_1
kcount,1
numberNandB,1
brightnessNandB,1
carpet pos,0
pc,0
Time (ms),CH1 Auto-Correlation
1.0,0.02742731384932995
2.0,0.025230012834072113
3.0,0.02330486848950386
4.0,0.02161863073706627
5.0,0.020131638273596764
6.0,0.018771808594465256
7.0,0.017566846683621407
8.0,0.016498617827892303
9.0,0.015540032647550106
10.0,0.01472256425768137
11.0,0.013956938870251179
12.0,0.013289332389831543
13.0,0.012724815867841244
14.0,0.012240183539688587
15.0,0.011738024652004242
16.0,0.011284559965133667
18.0,0.010397435165941715
20.0,0.009641950018703938
22.0,0.008916802704334259
24.0,0.008296163752675056
26.0,0.007743341848254204
28.0,0.007075924426317215
30.0,0.006496524438261986
32.0,0.005988319404423237
36.0,0.005452814046293497
40.0,0.005318126641213894
44.0,0.004970332141965628
48.0,0.004671047441661358
52.0,0.004105777479708195
56.0,0.003820873098447919
60.0,0.0035457469057291746
64.0,0.0033579389564692974
72.0,0.00305243581533432
80.0,0.002418028423562646
88.0,0.002024418208748102
96.0,0.0018118401058018208
104.0,0.0016211653128266335
112.0,0.0021994258277118206
120.0,0.0025138852652162313
128.0,0.002761634299531579
144.0,0.001996669452637434
160.0,0.000930682523176074
176.0,0.00038525337004102767
192.0,0.00030094810063019395
208.0,0.0003942840558011085
224.0,-8.924405119614676e-05
240.0,-0.0008940922562032938
256.0,-0.0014667921932414174
288.0,-0.0011260609608143568
320.0,-0.0002264573413413018
352.0,-0.001030645682476461
384.0,-0.000914110685698688
416.0,-0.0004495506000239402
448.0,0.00024054334789980203
480.0,-4.081476799910888e-05
512.0,0.0007252928917296231
576.0,-1.6916967069846578e-05
640.0,0.00012026636977680027
704.0,0.0002824584662448615
768.0,0.0004750356310978532
832.0,0.00015422908472828567
896.0,-0.00012586057709995657
960.0,-0.00016873727145139128
1024.0,-0.0007078141206875443
1152.0,-0.0001504399988334626
1280.0,-4.846595766139217e-05
1408.0,0.0008007842116057873
1536.0,-0.0006769928731955588
1664.0,-0.0006947467336431146
1792.0,-0.0008872858597896993
1920.0,7.74743384681642e-05
2048.0,-0.0012557025766000152
2304.0,-0.0010492564179003239
2560.0,0.000260103028267622
2816.0,-0.0004554887709673494
3072.0,0.0011279307072982192
3328.0,0.000227550626732409
3584.0,-0.0003732948680408299
3840.0,0.001494076568633318
4096.0,-0.0004987705033272505
4608.0,0.00025429564993828535
5120.0,0.0001623257267056033
5632.0,-0.0005230373935773969
6144.0,-6.098118319641799e-05
6656.0,-0.00030032554059289396
7168.0,4.877541869063862e-05
7680.0,0.00045756559120491147
8192.0,0.0006247060955502093
9216.0,-0.0010702351573854685
10240.0,-0.0001774152333382517
11264.0,-2.0748400856973603e-05
12288.0,-0.0005228568916209042
13312.0,0.00022914665169082582
14336.0,0.00014451719471253455
end
