version,3.0
numOfCh,1
type,point
parent_name,40-cuts
ch_type,1_1
kcount,1
numberNandB,1
brightnessNandB,1
carpet pos,0
pc,0
Time (ms),CH1 Auto-Correlation
1.0,0.029145050793886185
2.0,0.026988813653588295
3.0,0.02514132298529148
4.0,0.023507816717028618
5.0,0.022070450708270073
6.0,0.02080715447664261
7.0,0.019631382077932358
8.0,0.01851942390203476
9.0,0.017540261149406433
10.0,0.016626723110675812
11.0,0.015801548957824707
12.0,0.015087096020579338
13.0,0.01441347599029541
14.0,0.013792815618216991
15.0,0.013249893672764301
16.0,0.012772360816597939
18.0,0.011836628429591656
20.0,0.010980578139424324
22.0,0.0103276576846838
24.0,0.009812000207602978
26.0,0.009241455234587193
28.0,0.008724505081772804
30.0,0.008213263005018234
32.0,0.007845161482691765
36.0,0.007413813378661871
40.0,0.006727336905896664
44.0,0.006025206297636032
48.0,0.005421954207122326
52.0,0.005016273818910122
56.0,0.004604080691933632
60.0,0.004232413601130247
64.0,0.004026135895401239
72.0,0.0032794289290905
80.0,0.002752382541075349
88.0,0.002521045506000519
96.0,0.0027547504287213087
104.0,0.0027109209913760424
112.0,0.0023553594946861267
120.0,0.0019481927156448364
128.0,0.0015467769699171185
144.0,0.0014704997884109616
160.0,0.002076612552627921
176.0,0.0021020877175033092
192.0,0.00152388378046453
208.0,0.0016006772639229894
224.0,0.000977301155216992
240.0,0.0007945570396259427
256.0,0.001163799548521638
288.0,0.0014436173951253295
320.0,-0.0001553931797388941
352.0,-0.0007614916539750993
384.0,-0.00026955505018122494
416.0,0.0015810563927516341
448.0,0.0006886540213599801
480.0,-0.0001115845880121924
512.0,0.0002509309852030128
576.0,4.4956585043109953e-05
640.0,4.351593815954402e-06
704.0,-0.0013309859205037355
768.0,-0.0017521867994219065
832.0,-0.0016676692757755518
896.0,-0.002676719566807151
960.0,-0.0013548583956435323
1024.0,0.0001239447738043964
1152.0,-0.0007429596735164523
1280.0,0.00013148708967491984
1408.0,-0.0002580202417448163
1536.0,-0.0007960401126183569
1664.0,0.0008735957671888173
1792.0,-0.0006464915932156146
1920.0,-0.00040052723488770425
2048.0,-0.0003158685867674649
2304.0,0.00041983721894212067
2560.0,-8.121925930026919e-05
2816.0,0.0006075590499676764
3072.0,0.0009668141137808561
3328.0,0.000589913921430707
3584.0,0.00021960983576718718
3840.0,-0.00026537763187661767
4096.0,-0.0002555915270932019
4608.0,-0.000979432137683034
5120.0,0.000525866518728435
5632.0,-6.176429451443255e-05
6144.0,-0.0013944884994998574
6656.0,0.0006959087331779301
7168.0,-3.3094991522375494e-05
7680.0,-0.0002641066093929112
8192.0,-0.0003335376095492393
9216.0,0.00018667263793759048
10240.0,-0.001026528887450695
11264.0,5.82061693421565e-05
12288.0,0.0011277195299044251
13312.0,-0.0016706744208931923
14336.0,0.0007836707518436015
end
