version,3.0
numOfCh,1
type,point
parent_name,40-cuts
ch_type,1_1
kcount,1
numberNandB,1
brightnessNandB,1
carpet pos,0
pc,0
Time (ms),CH1 Auto-Correlation
1.0,0.042428553104400635
2.0,0.03923691064119339
3.0,0.03653169050812721
4.0,0.0341736264526844
5.0,0.03205014020204544
6.0,0.030101077631115913
7.0,0.02831392176449299
8.0,0.026732247322797775
9.0,0.025292394682765007
10.0,0.023912491276860237
11.0,0.02258441597223282
12.0,0.021354535594582558
13.0,0.020215624943375587
14.0,0.019213097169995308
15.0,0.01829707622528076
16.0,0.017535243183374405
18.0,0.016136029735207558
20.0,0.01496214885264635
22.0,0.013919966295361519
24.0,0.012970836833119392
26.0,0.012068749405443668
28.0,0.0113115468993783
30.0,0.0105851199477911
32.0,0.009997760877013206
36.0,0.00900936033576727
40.0,0.008444332517683506
44.0,0.007829174399375916
48.0,0.0072851902805268764
52.0,0.0069788070395588875
56.0,0.006725471466779709
60.0,0.006663703825324774
64.0,0.006796868517994881
72.0,0.00646188436076045
80.0,0.0058475397527217865
88.0,0.004988222848623991
96.0,0.003933218773454428
104.0,0.0033842716366052628
112.0,0.003349171718582511
120.0,0.003394312458112836
128.0,0.0036990956868976355
144.0,0.004471069201827049
160.0,0.004807797260582447
176.0,0.003354821354150772
192.0,0.003427863121032715
208.0,0.003609111299738288
224.0,0.002944055711850524
240.0,0.0026576784439384937
256.0,0.001472265343181789
288.0,0.0012382901040837169
320.0,0.0015935668488964438
352.0,0.0028972376603633165
384.0,0.0023733172565698624
416.0,0.0006340629188343883
448.0,-0.0018372839549556375
480.0,-0.0017018737271428108
512.0,-0.000894844182766974
576.0,0.0004449443658813834
640.0,-0.001674323808401823
704.0,-0.0011844001710414886
768.0,-0.0008028590818867087
832.0,-0.001767498324625194
896.0,-0.001805456355214119
960.0,0.00023287939256988466
1024.0,0.0005034953355789185
1152.0,0.0003426149196457118
1280.0,0.0014430596493184566
1408.0,0.0002564472088124603
1536.0,0.00018419534899294376
1664.0,0.0005263436469249427
1792.0,1.6371031961170956e-05
1920.0,-8.907858864404261e-05
2048.0,0.0007285632891580462
2304.0,0.000744010612834245
2560.0,0.001214834162965417
2816.0,-0.0004509917343966663
3072.0,-0.0012952267425134778
3328.0,-0.0008395317126996815
3584.0,-0.0014373232843354344
3840.0,-0.0007029426633380353
4096.0,0.0009793603094294667
4608.0,-0.00013087407569400966
5120.0,-0.0013443465577438474
5632.0,9.578851313563064e-05
6144.0,-0.001758644706569612
6656.0,0.0008000190136954188
7168.0,4.3005191400879994e-05
7680.0,-0.0014850485604256392
8192.0,-0.0005332125583663583
9216.0,0.0012487696949392557
10240.0,-0.0004982067621313035
11264.0,0.0007640119874849916
12288.0,-0.0009711030288599432
13312.0,0.00029401833307929337
14336.0,-0.0010618860833346844
end
