version,3.0
numOfCh,1
type,point
parent_name,40-cuts
ch_type,1_1
kcount,1
numberNandB,1
brightnessNandB,1
carpet pos,0
pc,0
Time (ms),CH1 Auto-Correlation
1.0,0.04265427961945534
2.0,0.03935306891798973
3.0,0.036506377160549164
4.0,0.03396422043442726
5.0,0.031611520797014236
6.0,0.029559724032878876
7.0,0.027729185298085213
8.0,0.026061946526169777
9.0,0.024544481188058853
10.0,0.023280426859855652
11.0,0.022146498784422874
12.0,0.021079979836940765
13.0,0.0201280415058136
14.0,0.0192862581461668
15.0,0.018372341990470886
16.0,0.017491258680820465
18.0,0.016150927171111107
20.0,0.01501284446567297
22.0,0.013916483148932457
24.0,0.012921854853630066
26.0,0.01192531082779169
28.0,0.011053444817662239
30.0,0.010112971998751163
32.0,0.00939407292753458
36.0,0.008341652341187
40.0,0.007314868737012148
44.0,0.006431004498153925
48.0,0.005682264920324087
52.0,0.005609850399196148
56.0,0.005437986925244331
60.0,0.005376874934881926
64.0,0.005291277542710304
72.0,0.005371018312871456
80.0,0.0052100177854299545
88.0,0.0049277907237410545
96.0,0.004445342812687159
104.0,0.004255222622305155
112.0,0.003305188613012433
120.0,0.002282161498442292
128.0,0.0021310027223080397
144.0,0.003918137867003679
160.0,0.004719187505543232
176.0,0.0036209465470165014
192.0,0.0008896704530343413
208.0,-0.002072777133435011
224.0,-0.0023657619021832943
240.0,-0.002226087497547269
256.0,-0.0025746184401214123
288.0,-0.0032530927564948797
320.0,-0.0019109514541924
352.0,-0.0014127121539786458
384.0,-0.0014294078573584557
416.0,-0.0007196166552603245
448.0,-0.0022322845179587603
480.0,-0.0028276797384023666
512.0,-0.0016699032858014107
576.0,-0.0012001011054962873
640.0,-0.0019175485940650105
704.0,-0.0009222104563377798
768.0,0.0005682554328814149
832.0,0.0002103334409184754
896.0,0.001264883205294609
960.0,0.0010860419133678079
1024.0,0.000510243873577565
1152.0,0.00029385738889686763
1280.0,0.00012820241681765765
1408.0,0.00038680576835758984
1536.0,-0.0003640439244918525
1664.0,-0.0001515993062639609
1792.0,-0.0005022138939239085
1920.0,-0.001206658431328833
2048.0,-0.0006488723447546363
2304.0,0.0008833122556097806
2560.0,-0.001096454099752009
2816.0,-0.00030753083410672843
3072.0,0.0032096323557198048
3328.0,-0.001960123423486948
3584.0,-0.0036290425341576338
3840.0,-0.0008407867280766368
4096.0,0.0015705140540376306
4608.0,-0.0020132064819335938
5120.0,0.000780157744884491
5632.0,0.0005011378671042621
6144.0,-0.0001846247469075024
6656.0,-0.0016067184042185545
7168.0,0.004282283131033182
7680.0,-0.0017340031918138266
8192.0,0.0012848349288105965
9216.0,3.2987345548463054e-06
10240.0,-0.00046134472358971834
11264.0,0.0001784303894964978
12288.0,0.0005567144835367799
13312.0,-0.0013548985589295626
14336.0,-5.875130955246277e-05
end
