version,3.0
numOfCh,1
type,point
parent_name,40-cuts
ch_type,1_1
kcount,1
numberNandB,1
brightnessNandB,1
carpet pos,0
pc,0
Time (ms),CH1 Auto-Correlation
1.0,0.03923961892724037
2.0,0.03600510582327843
3.0,0.033230848610401154
4.0,0.030782373622059822
5.0,0.02864154987037182
6.0,0.02682187221944332
7.0,0.025087662041187286
8.0,0.02359350584447384
9.0,0.022237831726670265
10.0,0.02099495381116867
11.0,0.019915223121643066
12.0,0.01893058605492115
13.0,0.01811489276587963
14.0,0.017420804128050804
15.0,0.01677718013525009
16.0,0.016176089644432068
18.0,0.014972604811191559
20.0,0.013761813752353191
22.0,0.012664507143199444
24.0,0.011893773451447487
26.0,0.011164160445332527
28.0,0.01038607582449913
30.0,0.009814736433327198
32.0,0.009312449023127556
36.0,0.008277676068246365
40.0,0.0071472586132586
44.0,0.006180804222822189
48.0,0.005523810628801584
52.0,0.00503889936953783
56.0,0.004486897028982639
60.0,0.003889670828357339
64.0,0.0033210234250873327
72.0,0.002456572838127613
80.0,0.002230034675449133
88.0,0.0013750275829806924
96.0,0.00043572354479692876
104.0,0.0005693177226930857
112.0,0.00047316259588114917
120.0,0.00014262959302868694
128.0,-0.0012548613594844937
144.0,-0.0013872754061594605
160.0,-0.0006279405788518488
176.0,-0.0011378707131370902
192.0,-0.0015805801376700401
208.0,-0.0009560510516166687
224.0,-0.0006693728500977159
240.0,0.00048623356269672513
256.0,0.0008133694645948708
288.0,0.0009805578738451004
320.0,0.0010200606193393469
352.0,-0.0001810774119803682
384.0,-0.001033131149597466
416.0,-0.0007519493228755891
448.0,-0.0002531498612370342
480.0,-0.0012647563125938177
512.0,-0.002259701956063509
576.0,-0.00029835570603609085
640.0,-0.0005284746293909848
704.0,-0.00015119888121262193
768.0,-0.0016311147483065724
832.0,-0.0028857600409537554
896.0,-0.0019105829996988177
960.0,-0.0013491648714989424
1024.0,0.000380775541998446
1152.0,0.0007372027030214667
1280.0,0.000652870861813426
1408.0,-0.0005087139434181154
1536.0,0.00112717947922647
1664.0,0.0023037735372781754
1792.0,-0.0007302932208403945
1920.0,-0.00044092218740843236
2048.0,0.00030496050021611154
2304.0,0.000329452333971858
2560.0,-0.00016466545639559627
2816.0,0.0010433538118377328
3072.0,-0.0011380084324628115
3328.0,0.0004112232127226889
3584.0,-1.262220939679537e-05
3840.0,0.0005841346574015915
4096.0,-0.0015914288815110922
4608.0,1.7783147995942272e-05
5120.0,-0.00045843678526580334
5632.0,-0.00011236507998546585
6144.0,-4.439269559952663e-06
6656.0,-0.0006615574238821864
7168.0,-0.00011797537445090711
7680.0,6.455894617829472e-05
8192.0,-0.00025336386170238256
9216.0,-0.00031058210879564285
10240.0,0.0005106847384013236
11264.0,-0.0006026455666869879
12288.0,-0.0002664041530806571
13312.0,0.0010630289325490594
14336.0,0.0013120651710778475
end
