version,3.0
numOfCh,1
type,point
parent_name,40-cuts
ch_type,1_1
kcount,1
numberNandB,1
brightnessNandB,1
carpet pos,0
pc,0
Time (ms),CH1 Auto-Correlation
1.0,0.043809786438941956
2.0,0.040367551147937775
3.0,0.03733745589852333
4.0,0.03473808988928795
5.0,0.03240307420492172
6.0,0.03041251376271248
7.0,0.028717368841171265
8.0,0.027208218351006508
9.0,0.025751670822501183
10.0,0.024405580013990402
11.0,0.0231229979544878
12.0,0.022031938657164574
13.0,0.02095257118344307
14.0,0.01995890960097313
15.0,0.01911340281367302
16.0,0.018277810886502266
18.0,0.01679440215229988
20.0,0.015499834902584553
22.0,0.01435990072786808
24.0,0.013416443020105362
26.0,0.012544269673526287
28.0,0.011893685907125473
30.0,0.011296183802187443
32.0,0.010848045349121094
36.0,0.009945766068994999
40.0,0.009475772269070148
44.0,0.008976619690656662
48.0,0.008401148952543736
52.0,0.007686317432671785
56.0,0.00714108906686306
60.0,0.0067372070625424385
64.0,0.006144058890640736
72.0,0.0048557850532233715
80.0,0.003720161970704794
88.0,0.0030312056187540293
96.0,0.0021514163818210363
104.0,0.0028891453985124826
112.0,0.00333145959302783
120.0,0.0031139389611780643
128.0,0.0035643086303025484
144.0,0.004445183090865612
160.0,0.004318712279200554
176.0,0.0032625249586999416
192.0,0.0015144884819164872
208.0,0.0005163104506209493
224.0,-0.00017794425366446376
240.0,-1.8883788470702711e-06
256.0,-0.000828485528472811
288.0,0.0003142486384604126
320.0,0.001316050998866558
352.0,0.0012556614819914103
384.0,-0.00015353455091826618
416.0,-0.0009081551688723266
448.0,0.0008008552831597626
480.0,-0.000177313297172077
512.0,-0.0015058738645166159
576.0,-0.0005284230574034154
640.0,-0.0008209401275962591
704.0,0.0009696714696474373
768.0,0.0034954685252159834
832.0,0.0009365288424305618
896.0,0.0007109068683348596
960.0,0.00012998802412766963
1024.0,-0.0026637567207217216
1152.0,-0.0019278645049780607
1280.0,-0.0021223602816462517
1408.0,-0.002115039387717843
1536.0,-0.0007108949939720333
1664.0,0.0018082078313454986
1792.0,0.0006978593301028013
1920.0,0.0002953055372927338
2048.0,0.0002790558501146734
2304.0,0.000425836187787354
2560.0,0.0029360961634665728
2816.0,6.0279893659753725e-05
3072.0,5.8925430494127795e-05
3328.0,-5.313085421221331e-05
3584.0,-0.0015602626372128725
3840.0,-5.381300434237346e-05
4096.0,-0.0012455708347260952
4608.0,0.0013720669085159898
5120.0,0.0015426048776134849
5632.0,-0.0002491023042239249
6144.0,-0.002528040437027812
6656.0,-0.0011764825321733952
7168.0,0.0026752138510346413
7680.0,0.0014216038398444653
8192.0,-0.0005124935996718705
9216.0,-0.0008998411940410733
10240.0,-0.00031777488766238093
11264.0,-0.002104070270434022
12288.0,0.0010877882596105337
13312.0,-0.0028506808448582888
14336.0,-0.0012803978752344847
end
