version,3.0
numOfCh,1
type,point
parent_name,40-cuts
ch_type,1_1
kcount,1
numberNandB,1
brightnessNandB,1
carpet pos,0
pc,0
Time (ms),CH1 Auto-Correlation
1.0,0.028142251074314117
2.0,0.025979964062571526
3.0,0.02412480115890503
4.0,0.022502902895212173
5.0,0.02106623351573944
6.0,0.019841017201542854
7.0,0.018694519996643066
8.0,0.01766790635883808
9.0,0.016716960817575455
10.0,0.015826571732759476
11.0,0.015027548186480999
12.0,0.014244028367102146
13.0,0.013535602949559689
14.0,0.01284691784530878
15.0,0.012222313322126865
16.0,0.011618582531809807
18.0,0.010660851374268532
20.0,0.009767834097146988
22.0,0.008888501673936844
24.0,0.008154641836881638
26.0,0.007633698172867298
28.0,0.007117981091141701
30.0,0.006644848268479109
32.0,0.006248351652175188
36.0,0.005508528556674719
40.0,0.004960665479302406
44.0,0.004414690658450127
48.0,0.00392927834764123
52.0,0.003673313185572624
56.0,0.0034086296800523996
60.0,0.003115027444437146
64.0,0.0029296341817826033
72.0,0.002430707449093461
80.0,0.0022477200254797935
88.0,0.0013874976430088282
96.0,0.0013051446294412017
104.0,0.0014094692887738347
112.0,0.001041156006976962
120.0,0.001207844354212284
128.0,0.0013474549632519484
144.0,0.0008464895654469728
160.0,0.00016417750157415867
176.0,0.00033977197017520666
192.0,0.00038674401002936065
208.0,0.001331670326180756
224.0,0.0010305277537554502
240.0,0.0009942009346559644
256.0,0.00105878000613302
288.0,0.00026356877060607076
320.0,0.0007652993081137538
352.0,0.0009756257059052587
384.0,0.0007458881009370089
416.0,0.0005288944230414927
448.0,-4.788904698216356e-05
480.0,-0.0005460855318233371
512.0,-0.0003855157701764256
576.0,0.0007259921403601766
640.0,0.0004905986716039479
704.0,0.0007064315141178668
768.0,0.001274837413802743
832.0,0.0007898087496869266
896.0,0.000313855882268399
960.0,0.0003409211349207908
1024.0,0.0015821405686438084
1152.0,-8.461820834781975e-05
1280.0,0.0011252257972955704
1408.0,0.0003538218152243644
1536.0,-0.00028651292086578906
1664.0,-0.00039686670061200857
1792.0,-4.521292794379406e-05
1920.0,0.00036533185630105436
2048.0,-1.3205502000346314e-05
2304.0,-3.4910699469037354e-05
2560.0,0.000908541027456522
2816.0,0.00014434994955081493
3072.0,0.0004574375052470714
3328.0,0.0011331109562888741
3584.0,0.0011717791203409433
3840.0,0.0006240379880182445
4096.0,-0.00012998978490941226
4608.0,-0.00044478505151346326
5120.0,-0.0009748241282068193
5632.0,-0.0010814672568812966
6144.0,-0.0004898912156932056
6656.0,-8.936307858675718e-05
7168.0,5.0235834351042286e-05
7680.0,-0.0005048733437433839
8192.0,-0.0014450416201725602
9216.0,-0.0010776467388495803
10240.0,0.0004855294246226549
11264.0,-0.0004007759562227875
12288.0,-0.0009043703321367502
13312.0,0.0005179332802072167
14336.0,0.0005844597471877933
end
