version,3.0
numOfCh,1
type,point
parent_name,40-cuts
ch_type,1_1
kcount,1
numberNandB,1
brightnessNandB,1
carpet pos,0
pc,0
Time (ms),CH1 Auto-Correlation
1.0,0.09465464949607849
2.0,0.08757086843252182
3.0,0.08151784539222717
4.0,0.07639782875776291
5.0,0.07203312963247299
6.0,0.06811539083719254
7.0,0.06480048596858978
8.0,0.061581000685691833
9.0,0.05871358513832092
10.0,0.05601947754621506
11.0,0.053481388837099075
12.0,0.05094200000166893
13.0,0.04859345778822899
14.0,0.046380963176488876
15.0,0.044247936457395554
16.0,0.04230336844921112
18.0,0.03919036313891411
20.0,0.036426298320293427
22.0,0.03393737971782684
24.0,0.031650930643081665
26.0,0.02964201383292675
28.0,0.02764281816780567
30.0,0.025954416021704674
32.0,0.02452915720641613
36.0,0.022806283086538315
40.0,0.021176591515541077
44.0,0.019954077899456024
48.0,0.01771795190870762
52.0,0.01634303852915764
56.0,0.015391006134450436
60.0,0.014813547022640705
64.0,0.014254315756261349
72.0,0.011407346464693546
80.0,0.009727803990244865
88.0,0.00931306928396225
96.0,0.008642910979688168
104.0,0.008182462304830551
112.0,0.0071133095771074295
120.0,0.005572271998971701
128.0,0.00488646375015378
144.0,0.008440786972641945
160.0,0.00920452643185854
176.0,0.007040335796773434
192.0,0.007475632708519697
208.0,0.006557820364832878
224.0,0.007050789427012205
240.0,0.009193521924316883
256.0,0.009722726419568062
288.0,0.0073652248829603195
320.0,0.006215244065970182
352.0,0.0023427689447999
384.0,-0.0005390499718487263
416.0,-0.004149534739553928
448.0,-0.001914898632094264
480.0,0.0028250489849597216
512.0,0.004716929048299789
576.0,0.0013067785184830427
640.0,0.000205805801670067
704.0,-0.003532311413437128
768.0,-0.00425567664206028
832.0,-0.004076169338077307
896.0,-0.002281003165990114
960.0,-0.0050484356470406055
1024.0,-0.0007276865071617067
1152.0,0.002301999134942889
1280.0,0.004301056731492281
1408.0,0.006499355658888817
1536.0,0.0058875433169305325
1664.0,0.006039901170879602
1792.0,0.002820773981511593
1920.0,0.0028880564495921135
2048.0,0.001602629548870027
2304.0,0.00016135805344674736
2560.0,0.003336129244416952
2816.0,0.005049838684499264
3072.0,0.003825486870482564
3328.0,-0.0017888228176161647
3584.0,-0.00255917152389884
3840.0,-0.0002594095712993294
4096.0,0.002088347915560007
4608.0,-8.170195360435173e-05
5120.0,-0.00373208150267601
5632.0,-0.0005249963141977787
6144.0,-0.0041422173380851746
6656.0,-0.004938737489283085
7168.0,-0.0005443398258648813
7680.0,-0.007264268584549427
8192.0,-0.004490215331315994
9216.0,-0.003570443019270897
10240.0,-0.003104069037362933
11264.0,0.0014100433327257633
12288.0,-0.0009257022175006568
13312.0,-0.0003726754803210497
14336.0,0.0017101686680689454
end
