version,3.0
numOfCh,1
type,point
parent_name,40-cuts
ch_type,1_1
kcount,1
numberNandB,1
brightnessNandB,1
carpet pos,0
pc,0
Time (ms),CH1 Auto-Correlation
1.0,0.10095666348934174
2.0,0.09371190518140793
3.0,0.08732873946428299
4.0,0.0816955417394638
5.0,0.07685644924640656
6.0,0.07249896973371506
7.0,0.06863095611333847
8.0,0.06520746648311615
9.0,0.06204073503613472
10.0,0.05906694009900093
11.0,0.05621935427188873
12.0,0.05377804487943649
13.0,0.05158119648694992
14.0,0.049408718943595886
15.0,0.047474585473537445
16.0,0.04568227380514145
18.0,0.042228035628795624
20.0,0.03910384699702263
22.0,0.03640293702483177
24.0,0.03372255712747574
26.0,0.03159559890627861
28.0,0.0298895426094532
30.0,0.028402740135788918
32.0,0.026763547211885452
36.0,0.024477364495396614
40.0,0.02274395525455475
44.0,0.02124175801873207
48.0,0.019479289650917053
52.0,0.018352536484599113
56.0,0.01761907897889614
60.0,0.017049459740519524
64.0,0.016348596662282944
72.0,0.013812607154250145
80.0,0.013227359391748905
88.0,0.011834358796477318
96.0,0.010090697556734085
104.0,0.010375484824180603
112.0,0.010396300815045834
120.0,0.010089416988193989
128.0,0.007944148033857346
144.0,0.0071948859840631485
160.0,0.005282969679683447
176.0,0.0017602064181119204
192.0,0.0010865263175219297
208.0,0.0015686771366745234
224.0,0.0026133812498301268
240.0,0.0033816432114690542
256.0,0.005295851733535528
288.0,0.006925136782228947
320.0,0.006009990349411964
352.0,0.0014528530882671475
384.0,0.0009150856640189886
416.0,-0.003123539499938488
448.0,-0.004106726497411728
480.0,0.0001859817566582933
512.0,-7.853243732824922e-05
576.0,0.0018440248677507043
640.0,0.0025751921348273754
704.0,0.0027303367387503386
768.0,0.0026993928477168083
832.0,0.0028759047854691744
896.0,0.011886590160429478
960.0,0.007141280919313431
1024.0,0.00328630767762661
1152.0,0.0024753992911428213
1280.0,0.003033664310351014
1408.0,0.004607317969202995
1536.0,0.003228205954656005
1664.0,0.004476737231016159
1792.0,0.0015142702031880617
1920.0,0.0038680052384734154
2048.0,0.0008902039844542742
2304.0,0.004441092722117901
2560.0,0.00322996755130589
2816.0,0.005825983826071024
3072.0,0.003299049800261855
3328.0,0.0030328917782753706
3584.0,-0.0012554496061056852
3840.0,0.0062177530489861965
4096.0,0.0016131596639752388
4608.0,-0.000413618516176939
5120.0,0.0005537507240660489
5632.0,0.0007291935035027564
6144.0,-0.006883690133690834
6656.0,-0.002916636411100626
7168.0,-0.002056780969724059
7680.0,-0.002820013789460063
8192.0,-0.005546377040445805
9216.0,-0.005642288830131292
10240.0,-0.005954422056674957
11264.0,-0.005697173532098532
12288.0,-0.0037303692661225796
13312.0,-0.005723878741264343
14336.0,-0.004310267046093941
end
