version,3.0
numOfCh,1
type,point
parent_name,40-cuts
ch_type,1_1
kcount,1
numberNandB,1
brightnessNandB,1
carpet pos,0
pc,0
Time (ms),CH1 Auto-Correlation
1.0,0.035606738179922104
2.0,0.03235531970858574
3.0,0.02950391173362732
4.0,0.026914451271295547
5.0,0.024696825072169304
6.0,0.02273283340036869
7.0,0.021031523123383522
8.0,0.01954459771513939
9.0,0.018151286989450455
10.0,0.016918431967496872
11.0,0.015764405950903893
12.0,0.014833511784672737
13.0,0.01409960724413395
14.0,0.013362130150198936
15.0,0.012741979211568832
16.0,0.012187393382191658
18.0,0.011340648867189884
20.0,0.010726249776780605
22.0,0.010232481174170971
24.0,0.009607966989278793
26.0,0.008906551636755466
28.0,0.00830223597586155
30.0,0.007756947074085474
32.0,0.0071518803015351295
36.0,0.006030987482517958
40.0,0.0051502324640750885
44.0,0.004520594608038664
48.0,0.004284627269953489
52.0,0.004193354398012161
56.0,0.004099239595234394
60.0,0.0036031794734299183
64.0,0.0030220283661037683
72.0,0.00231617852114141
80.0,0.001889698556624353
88.0,0.0011458740336820483
96.0,0.001182821812108159
104.0,0.00031186488922685385
112.0,-0.00035021593794226646
120.0,-0.0002708591637201607
128.0,-1.9551749574020505e-05
144.0,0.0007853835704736412
160.0,0.0015153746353462338
176.0,0.00037984963273629546
192.0,-0.001037455745972693
208.0,3.7967624848533887e-06
224.0,-0.0004722091543953866
240.0,-6.547138036694378e-05
256.0,-0.0001256394461961463
288.0,0.0006133110146038234
320.0,0.0005391157465055585
352.0,0.001076846499927342
384.0,0.0009896289557218552
416.0,0.0007289177738130093
448.0,0.00013641540135722607
480.0,-0.000655519834253937
512.0,-0.00033804847043938935
576.0,0.00030086931656114757
640.0,-0.0009146837401203811
704.0,-0.0007932669832371175
768.0,0.0008950626943260431
832.0,-0.0010485327802598476
896.0,0.0007358343573287129
960.0,-0.0007299114367924631
1024.0,-0.0007911734282970428
1152.0,0.00013295040116645396
1280.0,-0.0001336657296633348
1408.0,-0.0006083656917326152
1536.0,0.0003049291844945401
1664.0,0.0002178781433030963
1792.0,-0.0018623569048941135
1920.0,-0.001353464089334011
2048.0,-1.534079092380125e-05
2304.0,-0.0012508784420788288
2560.0,0.000896003853995353
2816.0,-0.00020973087521269917
3072.0,-0.00043672986794263124
3328.0,0.0012176013551652431
3584.0,0.0003761146799661219
3840.0,0.0002351778675802052
4096.0,0.0012527885846793652
4608.0,9.431232319911942e-05
5120.0,-0.0009076862479560077
5632.0,-0.0009891571244224906
6144.0,0.0004113269387744367
6656.0,4.20496980950702e-05
7168.0,0.0006970106041990221
7680.0,0.0006217050249688327
8192.0,0.00016244097787421197
9216.0,-0.0011173038510605693
10240.0,0.0004082391387782991
11264.0,0.0001839391770772636
12288.0,-0.0002701481862459332
13312.0,-0.00018902149167843163
14336.0,0.0009633482550270855
end
