version,3.0
numOfCh,1
type,point
parent_name,40-cuts
ch_type,1_1
kcount,1
numberNandB,1
brightnessNandB,1
carpet pos,0
pc,0
Time (ms),CH1 Auto-Correlation
1.0,0.08856447041034698
2.0,0.08189164102077484
3.0,0.07591631263494492
4.0,0.07065204530954361
5.0,0.06611648201942444
6.0,0.06212414801120758
7.0,0.05857972800731659
8.0,0.0555410273373127
9.0,0.05281507223844528
10.0,0.050025466829538345
11.0,0.047436024993658066
12.0,0.044983360916376114
13.0,0.04295182228088379
14.0,0.04109377786517143
15.0,0.03920690715312958
16.0,0.03765914961695671
18.0,0.03505167365074158
20.0,0.03274666517972946
22.0,0.030779944732785225
24.0,0.029004571959376335
26.0,0.02745100110769272
28.0,0.025437338277697563
30.0,0.02352626621723175
32.0,0.02251308225095272
36.0,0.020838124677538872
40.0,0.018608245998620987
44.0,0.015750352293252945
48.0,0.013188433833420277
52.0,0.010683364234864712
56.0,0.009119248948991299
60.0,0.00866649579256773
64.0,0.008335563354194164
72.0,0.006413370370864868
80.0,0.003852328984066844
88.0,0.0036063867155462503
96.0,0.002984859049320221
104.0,0.002576060825958848
112.0,0.002595307305455208
120.0,0.0021711173467338085
128.0,0.001846409635618329
144.0,0.0004336524580139667
160.0,-0.0014521825360134244
176.0,0.00016163419059012085
192.0,0.0009743259288370609
208.0,0.0013146167621016502
224.0,0.002051761606708169
240.0,-0.000850344484206289
256.0,-0.0016459135804325342
288.0,-0.0025479760952293873
320.0,-0.0020346178207546473
352.0,-0.005306934006512165
384.0,-0.002596874488517642
416.0,-0.0004542036622297019
448.0,0.000626135035417974
480.0,0.0013391776010394096
512.0,0.0019189007580280304
576.0,0.0027046825271099806
640.0,0.0032315722201019526
704.0,0.004736780654639006
768.0,0.0023582694120705128
832.0,-0.005427640862762928
896.0,-0.0033369483426213264
960.0,-0.0028941789641976357
1024.0,-0.004294291604310274
1152.0,0.0003232475137338042
1280.0,-0.00376907829195261
1408.0,0.001917658606544137
1536.0,-0.00404871441423893
1664.0,-0.0046433876268565655
1792.0,-0.002795918844640255
1920.0,0.0017151267966255546
2048.0,-0.0016621047398075461
2304.0,-0.0039442116394639015
2560.0,-0.00017362029757350683
2816.0,0.00039878388633951545
3072.0,-8.632641402073205e-05
3328.0,0.003979813307523727
3584.0,0.0007871358538977802
3840.0,0.004354905802756548
4096.0,0.0020995785016566515
4608.0,-7.563724648207426e-05
5120.0,-0.003182831685990095
5632.0,-0.003238102188333869
6144.0,-0.0004380872705951333
6656.0,0.004178257193416357
7168.0,0.0022880597971379757
7680.0,-0.0005545808235183358
8192.0,-0.0012870712671428919
9216.0,-0.0013941287761554122
10240.0,0.0023431098088622093
11264.0,0.001149501302279532
12288.0,-0.002686625812202692
13312.0,0.0002725943922996521
14336.0,0.002183835720643401
end
