version,3.0
numOfCh,1
type,point
parent_name,40-cuts
ch_type,1_1
kcount,1
numberNandB,1
brightnessNandB,1
carpet pos,0
pc,0
Time (ms),CH1 Auto-Correlation
1.0,0.02891859970986843
2.0,0.02677757479250431
3.0,0.024893296882510185
4.0,0.023242319002747536
5.0,0.021782124415040016
6.0,0.020428167656064034
7.0,0.01924859546124935
8.0,0.018186239525675774
9.0,0.01721164956688881
10.0,0.016305312514305115
11.0,0.015503990463912487
12.0,0.014819802716374397
13.0,0.014183083549141884
14.0,0.01359093002974987
15.0,0.01300464104861021
16.0,0.012476038187742233
18.0,0.011593526229262352
20.0,0.010842091403901577
22.0,0.010205274447798729
24.0,0.009779782965779305
26.0,0.009434414096176624
28.0,0.009177456609904766
30.0,0.008973202668130398
32.0,0.008765934966504574
36.0,0.008400361984968185
40.0,0.0078755933791399
44.0,0.007387042511254549
48.0,0.007019910961389542
52.0,0.006597695406526327
56.0,0.005919399205595255
60.0,0.00513247586786747
64.0,0.004505638033151627
72.0,0.0040294150821864605
80.0,0.004027640447020531
88.0,0.003946530167013407
96.0,0.0037365772295743227
104.0,0.003243366489186883
112.0,0.002719330368563533
120.0,0.002613083692267537
128.0,0.0026352570857852697
144.0,0.002667386783286929
160.0,0.002046768320724368
176.0,0.001362054725177586
192.0,0.0014015347696840763
208.0,0.0013231212506070733
224.0,0.002162962220609188
240.0,0.0022897054441273212
256.0,0.001709551434032619
288.0,0.0016352505190297961
320.0,0.0015034712851047516
352.0,0.0019004023633897305
384.0,0.001443258486688137
416.0,0.0007360766758210957
448.0,0.0014132005162537098
480.0,0.0008813388412818313
512.0,1.3758694876742084e-05
576.0,4.6848708734614775e-05
640.0,-0.0003353619540575892
704.0,-0.00033354925108142197
768.0,-0.0007755092810839415
832.0,0.00035491512971930206
896.0,0.0010770916705951095
960.0,0.0010447936365380883
1024.0,0.0013372579123824835
1152.0,-0.0006317374063655734
1280.0,-0.0005537731922231615
1408.0,-0.0005741769564338028
1536.0,-0.0013165191048756242
1664.0,-0.0013859686441719532
1792.0,-0.0007994564948603511
1920.0,-8.351832366315648e-05
2048.0,7.825015927664936e-06
2304.0,4.1453098674537614e-05
2560.0,-0.0008596586994826794
2816.0,-0.001112088211812079
3072.0,0.0007990117883309722
3328.0,0.00015925690240692347
3584.0,-0.0014326147502288222
3840.0,-0.0009113560663536191
4096.0,-0.00020890077576041222
4608.0,-0.0011771314311772585
5120.0,9.000338468467817e-05
5632.0,-0.0005781837389804423
6144.0,0.0008934031939134002
6656.0,0.0003056162968277931
7168.0,8.785365025687497e-06
7680.0,0.0008334312587976456
8192.0,0.0022345646284520626
9216.0,-0.0006268226425163448
10240.0,-0.0016948411939665675
11264.0,-0.000549428747035563
12288.0,-8.850503945723176e-05
13312.0,-0.0010526913683861494
14336.0,0.004868600517511368
end
