version,3.0
numOfCh,1
type,point
parent_name,40-cuts
ch_type,1_1
kcount,1
numberNandB,1
brightnessNandB,1
carpet pos,0
pc,0
Time (ms),CH1 Auto-Correlation
1.0,0.0899907797574997
2.0,0.08298511803150177
3.0,0.07699204981327057
4.0,0.0715823695063591
5.0,0.06696836650371552
6.0,0.06306832283735275
7.0,0.059474170207977295
8.0,0.05607189983129501
9.0,0.05308881029486656
10.0,0.050324663519859314
11.0,0.04785885289311409
12.0,0.045523855835199356
13.0,0.043477144092321396
14.0,0.041583891957998276
15.0,0.03985629230737686
16.0,0.03835338354110718
18.0,0.03515056520700455
20.0,0.03259173035621643
22.0,0.030471738427877426
24.0,0.02874791994690895
26.0,0.027371052652597427
28.0,0.026140814647078514
30.0,0.024940934032201767
32.0,0.023582687601447105
36.0,0.021663840860128403
40.0,0.019583124667406082
44.0,0.016719797626137733
48.0,0.013905498199164867
52.0,0.011902854777872562
56.0,0.010567694902420044
60.0,0.009251672774553299
64.0,0.008159248158335686
72.0,0.008406300097703934
80.0,0.006985744461417198
88.0,0.004125308711081743
96.0,0.0018352195620536804
104.0,0.0007494303863495588
112.0,0.0009692179155535996
120.0,0.00039585467311553657
128.0,0.0007396066794171929
144.0,0.0030284696258604527
160.0,0.0056671081110835075
176.0,0.0025386856868863106
192.0,0.00039640453178435564
208.0,0.00171611737459898
224.0,0.0018830435583367944
240.0,0.002550344215705991
256.0,0.0007494268356822431
288.0,-0.0008487278246320784
320.0,0.0007640764233656228
352.0,0.002084790961816907
384.0,0.0033211070112884045
416.0,0.0014543600846081972
448.0,0.0005543589941225946
480.0,-0.0001729651412460953
512.0,-0.0034449524246156216
576.0,-0.0016695336671546102
640.0,-0.0008929812465794384
704.0,-0.005955364555120468
768.0,0.0001919701899169013
832.0,0.001140266889706254
896.0,0.002354664960876107
960.0,0.004332875367254019
1024.0,0.0014694249257445335
1152.0,0.004666521213948727
1280.0,-0.003770499723032117
1408.0,-0.007172766141593456
1536.0,0.0015919058350846171
1664.0,-0.004535446874797344
1792.0,-0.0008034913334995508
1920.0,0.005279164295643568
2048.0,0.004951149225234985
2304.0,0.0020544282160699368
2560.0,0.001021101139485836
2816.0,-0.0007353177643381059
3072.0,-0.0011352919973433018
3328.0,-0.0012679974315688014
3584.0,-0.0016143291722983122
3840.0,-0.0038914529141038656
4096.0,-0.004603737499564886
4608.0,0.0008271230035461485
5120.0,-0.0010500130010768771
5632.0,0.001558009535074234
6144.0,-0.0017957789823412895
6656.0,-0.00110338581725955
7168.0,0.0025608341675251722
7680.0,0.0003894834953825921
8192.0,0.003166671609506011
9216.0,0.00097883481066674
10240.0,-0.00020738557213917375
11264.0,0.0010037337196990848
12288.0,-0.0026271590031683445
13312.0,-0.004736190661787987
14336.0,-0.003434063633903861
end
