version,3.0
numOfCh,1
type,point
parent_name,40-cuts
ch_type,1_1
kcount,1
numberNandB,1
brightnessNandB,1
carpet pos,0
pc,0
Time (ms),CH1 Auto-Correlation
1.0,0.02655942551791668
2.0,0.02434024028480053
3.0,0.02244897559285164
4.0,0.02082779072225094
5.0,0.01937790960073471
6.0,0.018139781430363655
7.0,0.017068777233362198
8.0,0.01607094146311283
9.0,0.015161932446062565
10.0,0.01430600043386221
11.0,0.013527682051062584
12.0,0.012833785265684128
13.0,0.012217715382575989
14.0,0.011661089956760406
15.0,0.01116879377514124
16.0,0.010687549598515034
18.0,0.009990382939577103
20.0,0.009322774596512318
22.0,0.008720164187252522
24.0,0.008160166442394257
26.0,0.00768069876357913
28.0,0.007241170387715101
30.0,0.006884950678795576
32.0,0.006520701572299004
36.0,0.006105171516537666
40.0,0.00552701111882925
44.0,0.0049031516537070274
48.0,0.004285547416657209
52.0,0.0034844158217310905
56.0,0.003093794919550419
60.0,0.002857979852706194
64.0,0.0026494276244193316
72.0,0.0025751469656825066
80.0,0.00250733969733119
88.0,0.002948505338281393
96.0,0.0024930217768996954
104.0,0.0014018178917467594
112.0,0.0007945504039525986
120.0,0.0009376242524012923
128.0,0.0007286281324923038
144.0,0.0007574901101179421
160.0,0.001210663584060967
176.0,0.0017158323898911476
192.0,0.0013452415587380528
208.0,0.0009665528777986765
224.0,0.0008879167144186795
240.0,0.0005797937628813088
256.0,0.00014885584823787212
288.0,0.0005307170795276761
320.0,0.00021131573885213584
352.0,1.726610389596317e-05
384.0,-5.964119918644428e-05
416.0,-0.0010544969700276852
448.0,-0.001467692549340427
480.0,-0.00065408501541242
512.0,-0.0007043138612061739
576.0,-0.00028514061705209315
640.0,-0.0001789340312825516
704.0,-0.0003203439118806273
768.0,-0.001312827691435814
832.0,0.0003788775356952101
896.0,-0.00033785964478738606
960.0,-0.0009931253734976053
1024.0,-8.363048254977912e-05
1152.0,-0.0002637252036947757
1280.0,0.0006054867408238351
1408.0,0.0003932626568712294
1536.0,-0.0006329130264930427
1664.0,-9.430304635316133e-05
1792.0,0.0011242285836488008
1920.0,0.0006924992194399238
2048.0,0.00018694189202506095
2304.0,-0.0013371047098189592
2560.0,-0.000861131411511451
2816.0,-0.0015501080779358745
3072.0,-0.00014806508261244744
3328.0,0.00038436055183410645
3584.0,0.0007919861818663776
3840.0,0.0003310801403131336
4096.0,0.00024310578010044992
4608.0,-8.421226812060922e-05
5120.0,0.0009430584614165127
5632.0,5.994574894430116e-05
6144.0,-0.0008144833846017718
6656.0,-2.63106994680129e-05
7168.0,0.00040597160113975406
7680.0,-0.0006166038801893592
8192.0,-0.0007777499849908054
9216.0,-3.5194538213545457e-05
10240.0,0.00017415110778529197
11264.0,-0.00018323060066904873
12288.0,-0.00010871329141082242
13312.0,1.8811882910085842e-05
14336.0,-0.00010419902537250891
end
