version,3.0
numOfCh,1
type,point
parent_name,40-cuts
ch_type,1_1
kcount,1
numberNandB,1
brightnessNandB,1
carpet pos,0
pc,0
Time (ms),CH1 Auto-Correlation
1.0,0.02742253616452217
2.0,0.02523881010711193
3.0,0.02332473360002041
4.0,0.021652692928910255
5.0,0.02015729993581772
6.0,0.018815288320183754
7.0,0.01764453947544098
8.0,0.016636880114674568
9.0,0.015687717124819756
10.0,0.014904066920280457
11.0,0.014175220392644405
12.0,0.013483093120157719
13.0,0.012877275235950947
14.0,0.012265278026461601
15.0,0.01173122227191925
16.0,0.011152948252856731
18.0,0.010132710449397564
20.0,0.009424831718206406
22.0,0.00874343141913414
24.0,0.00803464837372303
26.0,0.007322598248720169
28.0,0.006813760381191969
30.0,0.006368259899318218
32.0,0.0060171387158334255
36.0,0.005236722528934479
40.0,0.004458071663975716
44.0,0.0037900330498814583
48.0,0.0033909722696989775
52.0,0.0033539277501404285
56.0,0.0032457050401717424
60.0,0.0031857348512858152
64.0,0.003169441130012274
72.0,0.0027127822395414114
80.0,0.0021082803141325712
88.0,0.0018135055433958769
96.0,0.0015905068721622229
104.0,0.0016310467617586255
112.0,0.001490998431108892
120.0,0.0013737361878156662
128.0,0.0013444925425574183
144.0,0.0016304007731378078
160.0,0.0015038306592032313
176.0,0.0008475232170894742
192.0,0.0002023444976657629
208.0,-0.0002465403522364795
224.0,-2.157378003175836e-05
240.0,0.0008009757730178535
256.0,0.0008358107879757881
288.0,0.001303445198573172
320.0,0.0015325871063396335
352.0,0.00027242579380981624
384.0,-0.0005385102122090757
416.0,-0.0007930943393148482
448.0,-0.0013264198787510395
480.0,-0.0013876986922696233
512.0,-0.0013692458160221577
576.0,-0.0007427696255035698
640.0,-0.00012321132817305624
704.0,-0.0008235799032263458
768.0,-0.001469691633246839
832.0,-0.0003713694750331342
896.0,-4.379231540951878e-05
960.0,-0.0007080250070430338
1024.0,0.00047892695874907076
1152.0,0.00018476859258953482
1280.0,-0.0005745166563428938
1408.0,3.6936056858394295e-05
1536.0,0.0007825199863873422
1664.0,-7.961830851854756e-05
1792.0,0.0010222780983895063
1920.0,-5.507656533154659e-05
2048.0,0.0006584050133824348
2304.0,-0.0003843457670882344
2560.0,0.0006956486031413078
2816.0,-0.0004070746654178947
3072.0,-0.0001946656557265669
3328.0,-0.0007382052717730403
3584.0,0.0001798047887859866
3840.0,0.0001035803506965749
4096.0,-0.00020288692030590028
4608.0,-0.0001138190200435929
5120.0,0.0006407288019545376
5632.0,-0.0005183848552405834
6144.0,-0.0006409055786207318
6656.0,0.0005324239609763026
7168.0,-0.00016059470362961292
7680.0,-0.0010483317309990525
8192.0,0.00046933864359743893
9216.0,-0.00036970130167901516
10240.0,-0.0005130171193741262
11264.0,-0.0005344341625459492
12288.0,0.0008487018058076501
13312.0,0.0013003161875531077
14336.0,-0.000205823642318137
end
