version,3.0
numOfCh,1
type,point
parent_name,40-cuts
ch_type,1_1
kcount,1
numberNandB,1
brightnessNandB,1
carpet pos,0
pc,0
Time (ms),CH1 Auto-Correlation
1.0,0.026829110458493233
2.0,0.024529460817575455
3.0,0.02254173904657364
4.0,0.02081860788166523
5.0,0.019310973584651947
6.0,0.01800549030303955
7.0,0.01687421090900898
8.0,0.01581612229347229
9.0,0.014823416247963905
10.0,0.013945015147328377
11.0,0.013134708628058434
12.0,0.012431024573743343
13.0,0.011768685653805733
14.0,0.011144389398396015
15.0,0.010626927018165588
16.0,0.010184069164097309
18.0,0.009383732452988625
20.0,0.00869873259216547
22.0,0.00819327961653471
24.0,0.007746185641735792
26.0,0.00731789181008935
28.0,0.006936818826943636
30.0,0.006636859383434057
32.0,0.006315310951322317
36.0,0.005914990324527025
40.0,0.005755735095590353
44.0,0.005395112559199333
48.0,0.005047916434705257
52.0,0.00478783855214715
56.0,0.0045782215893268585
60.0,0.004374607000499964
64.0,0.004463654011487961
72.0,0.00435481034219265
80.0,0.003934256266802549
88.0,0.0037014323752373457
96.0,0.00363867892883718
104.0,0.0035475282929837704
112.0,0.0031511716078966856
120.0,0.0024311181623488665
128.0,0.0020298559684306383
144.0,0.003134516067802906
160.0,0.0032088507432490587
176.0,0.0029046263080090284
192.0,0.0020350327249616385
208.0,0.0012988236267119646
224.0,0.0012969322269782424
240.0,0.0008197621209546924
256.0,0.00015430811617989093
288.0,-0.00014455812925007194
320.0,-0.0008871132740750909
352.0,-0.0007727692136541009
384.0,-0.0005126526230014861
416.0,-0.0012069202493876219
448.0,-0.0016262357821688056
480.0,-0.0008363403030671179
512.0,-0.00031234475318342447
576.0,-4.0507991798222065e-05
640.0,0.00029842392541468143
704.0,0.001379933557473123
768.0,0.0005207470385357738
832.0,5.741443965234794e-05
896.0,1.534962939331308e-05
960.0,7.925715181045234e-05
1024.0,-0.00018260409706272185
1152.0,-0.0010291683720424771
1280.0,-0.001008544466458261
1408.0,-0.0010977823985740542
1536.0,-0.000725854653865099
1664.0,-0.0002507503086235374
1792.0,-0.0014210358494892716
1920.0,-0.0012831109343096614
2048.0,-7.56510125938803e-05
2304.0,-0.0008071584161370993
2560.0,0.00023313479323405772
2816.0,0.0019973197486251593
3072.0,0.0011639531003311276
3328.0,0.00046544484212063253
3584.0,0.0005258093005977571
3840.0,3.2206494324782398e-06
4096.0,-0.0016830377280712128
4608.0,-0.001526844804175198
5120.0,0.0001629498292459175
5632.0,0.00037414071266539395
6144.0,0.0010718749836087227
6656.0,0.00032500820816494524
7168.0,-0.0013172277249395847
7680.0,-0.001174621982499957
8192.0,-0.0013758641434833407
9216.0,0.0007027431856840849
10240.0,-0.00010515863687032834
11264.0,-0.0003149489057250321
12288.0,0.00033686633105389774
13312.0,-0.000746946781873703
14336.0,0.00036544460454024374
end
