version,3.0
numOfCh,1
type,point
parent_name,40-cuts
ch_type,1_1
kcount,1
numberNandB,1
brightnessNandB,1
carpet pos,0
pc,0
Time (ms),CH1 Auto-Correlation
1.0,0.025965165346860886
2.0,0.023777909576892853
3.0,0.021947002038359642
4.0,0.020346343517303467
5.0,0.018960466608405113
6.0,0.017727268859744072
7.0,0.016622986644506454
8.0,0.01562628522515297
9.0,0.014734627678990364
10.0,0.013778101652860641
11.0,0.012911426834762096
12.0,0.012113822624087334
13.0,0.011319301091134548
14.0,0.010650522075593472
15.0,0.010056196711957455
16.0,0.009515074081718922
18.0,0.008646163158118725
20.0,0.007856763899326324
22.0,0.0072305877692997456
24.0,0.0066545745357871056
26.0,0.006122522987425327
28.0,0.005523291416466236
30.0,0.004938201978802681
32.0,0.004368172492831945
36.0,0.003660436486825347
40.0,0.0031474647112190723
44.0,0.0025577840860933065
48.0,0.002165980404242873
52.0,0.001985826063901186
56.0,0.001935682725161314
60.0,0.001596839283592999
64.0,0.0014414496254175901
72.0,0.0009810513583943248
80.0,0.000845972215756774
88.0,0.0011082917917519808
96.0,0.0015263588866218925
104.0,0.0017681450117379427
112.0,0.002012023003771901
120.0,0.0014932866906747222
128.0,0.0008199719013646245
144.0,-0.00031024127383716404
160.0,-0.0004149706510361284
176.0,-0.0005750982672907412
192.0,-0.000596378231421113
208.0,-0.0007405488286167383
224.0,-0.00012928692740388215
240.0,0.00038808834506198764
256.0,0.000561139895580709
288.0,0.0002418703807052225
320.0,0.00029012010782025754
352.0,0.0008810731815174222
384.0,-0.00021104057668708265
416.0,7.112288585631177e-05
448.0,0.0009218613849952817
480.0,-0.00010938151535810903
512.0,-0.00023625095491297543
576.0,0.0008109369082376361
640.0,-0.0006991507252678275
704.0,0.0001536846102681011
768.0,0.0004596201761160046
832.0,-7.774955884087831e-05
896.0,-0.0001389339449815452
960.0,-0.0003171842254232615
1024.0,0.00021459200070239604
1152.0,-2.223134106316138e-05
1280.0,-0.000589638773817569
1408.0,-0.0005195713019929826
1536.0,-0.00020591108477674425
1664.0,-0.0009857813129201531
1792.0,0.00022965802054386586
1920.0,0.00025709380861371756
2048.0,-0.0005978521076031029
2304.0,-0.00045121790026314557
2560.0,0.00027560701710172
2816.0,-0.0005326318787410855
3072.0,0.00028899626340717077
3328.0,0.00019708284526132047
3584.0,-0.0005588826606981456
3840.0,0.00041814130963757634
4096.0,-5.4526273743249476e-05
4608.0,-0.0001489217538619414
5120.0,0.0005372228915803134
5632.0,0.0002669300010893494
6144.0,-0.00011618743155850098
6656.0,0.0002630380040500313
7168.0,-0.00017186871264129877
7680.0,-0.000981342513114214
8192.0,-0.00042370156734250486
9216.0,-0.0001436071761418134
10240.0,8.20435379864648e-05
11264.0,-5.941986819379963e-05
12288.0,-0.000448701495770365
13312.0,0.00021073551033623517
14336.0,-0.00044056560727767646
end
