version,3.0
numOfCh,1
type,point
parent_name,40-cuts
ch_type,1_1
kcount,1
numberNandB,1
brightnessNandB,1
carpet pos,0
pc,0
Time (ms),CH1 Auto-Correlation
1.0,0.0994911640882492
2.0,0.09230126440525055
3.0,0.08602409809827805
4.0,0.0806804671883583
5.0,0.07609234750270844
6.0,0.0720909908413887
7.0,0.06852301210165024
8.0,0.06545867770910263
9.0,0.06264805048704147
10.0,0.06005881726741791
11.0,0.057702627032995224
12.0,0.05560919642448425
13.0,0.05372647941112518
14.0,0.05203812196850777
15.0,0.05040569603443146
16.0,0.0488709956407547
18.0,0.04600253701210022
20.0,0.04345857352018356
22.0,0.041253168135881424
24.0,0.03926027938723564
26.0,0.03736230358481407
28.0,0.03593315929174423
30.0,0.03449232876300812
32.0,0.03312927484512329
36.0,0.030227769166231155
40.0,0.028478991240262985
44.0,0.026495374739170074
48.0,0.024529382586479187
52.0,0.02262250706553459
56.0,0.019792931154370308
60.0,0.017106911167502403
64.0,0.015187079086899757
72.0,0.013070655055344105
80.0,0.011482096277177334
88.0,0.009618215262889862
96.0,0.007366635836660862
104.0,0.006293219048529863
112.0,0.005713548045605421
120.0,0.005547006148844957
128.0,0.007111457176506519
144.0,0.008562358096241951
160.0,0.008080846630036831
176.0,0.006464019883424044
192.0,0.0037362873554229736
208.0,0.0018500825390219688
224.0,-0.001034179818816483
240.0,-0.002582379849627614
256.0,-0.0023043514229357243
288.0,-0.0001554660266265273
320.0,0.001376111526042223
352.0,0.0027422276325523853
384.0,0.00239149434491992
416.0,-0.00012700034130830318
448.0,0.001461052568629384
480.0,0.004066626541316509
512.0,0.004176620859652758
576.0,0.0016064441297203302
640.0,-0.0010094831231981516
704.0,-0.0012614572187885642
768.0,-0.0016964668175205588
832.0,0.001707925577647984
896.0,0.0002928688481915742
960.0,-0.004276168532669544
1024.0,-0.005433012265712023
1152.0,-0.0010830073151737452
1280.0,0.0019030501134693623
1408.0,0.0019547329284250736
1536.0,-0.005722724366933107
1664.0,0.0028395112603902817
1792.0,0.0010105122346431017
1920.0,-0.003480891464278102
2048.0,-0.0008543544681742787
2304.0,-0.004602587316185236
2560.0,-0.00030501364381052554
2816.0,0.0009832849027588964
3072.0,0.0005647644284181297
3328.0,0.0021875433158129454
3584.0,0.0009484834154136479
3840.0,0.0029201649595052004
4096.0,0.0014145683962851763
4608.0,-0.004023960791528225
5120.0,-0.0035698229912668467
5632.0,3.604852099670097e-05
6144.0,0.0011811667354777455
6656.0,-0.002693388145416975
7168.0,-0.0030800243839621544
7680.0,-0.0012446959735825658
8192.0,-0.0007510121213272214
9216.0,0.0006572348065674305
10240.0,-0.0011519475374370813
11264.0,0.002011224627494812
12288.0,0.008102030493319035
13312.0,0.001052567269653082
14336.0,-0.007048423867672682
end
