version,3.0
numOfCh,1
type,point
parent_name,40-cuts
ch_type,1_1
kcount,1
numberNandB,1
brightnessNandB,1
carpet pos,0
pc,0
Time (ms),CH1 Auto-Correlation
1.0,0.026953229680657387
2.0,0.024738864973187447
3.0,0.022787757217884064
4.0,0.02104968950152397
5.0,0.0195134449750185
6.0,0.018171558156609535
7.0,0.016968633979558945
8.0,0.015858182683587074
9.0,0.014895460568368435
10.0,0.014041204005479813
11.0,0.013236134313046932
12.0,0.012486343272030354
13.0,0.011834809556603432
14.0,0.011179959401488304
15.0,0.010585659183561802
16.0,0.010101140476763248
18.0,0.009303152561187744
20.0,0.00859318021684885
22.0,0.007995402440428734
24.0,0.0074600172229111195
26.0,0.006892596837133169
28.0,0.006499531213194132
30.0,0.006197600159794092
32.0,0.005861600395292044
36.0,0.00539048295468092
40.0,0.004946968052536249
44.0,0.004675022792071104
48.0,0.004494048655033112
52.0,0.0044244276359677315
56.0,0.004190654028207064
60.0,0.003915939014405012
64.0,0.003787013003602624
72.0,0.003498324891552329
80.0,0.002420383971184492
88.0,0.0020200959406793118
96.0,0.0018430628115311265
104.0,0.001916390610858798
112.0,0.001975501421838999
120.0,0.0016403843183070421
128.0,0.0012616057647392154
144.0,0.000503444520290941
160.0,0.00016190684982575476
176.0,-0.0003013129171449691
192.0,0.00019794254330918193
208.0,0.0008041359833441675
224.0,0.00104641099460423
240.0,0.00030407661688514054
256.0,0.0004464992380235344
288.0,-0.0004844412615057081
320.0,-0.002126910723745823
352.0,-0.002247303258627653
384.0,-0.0018670705612748861
416.0,-0.001614147680811584
448.0,-0.0011857107747346163
480.0,-0.0003218388301320374
512.0,-0.0006443850579671562
576.0,0.0003533142153173685
640.0,-9.61035184445791e-05
704.0,0.00025566236581653357
768.0,-0.00020263750047888607
832.0,0.00039039168041199446
896.0,-0.000319878599839285
960.0,7.571290188934654e-05
1024.0,5.9536909247981384e-05
1152.0,0.001055750879459083
1280.0,-3.681389716803096e-05
1408.0,-0.0003451961383689195
1536.0,-0.000867906492203474
1664.0,0.0005321062635630369
1792.0,0.0015993958804756403
1920.0,0.0014313757419586182
2048.0,-1.085874464479275e-05
2304.0,-0.000697270326782018
2560.0,7.690143684158102e-05
2816.0,0.0006801853887736797
3072.0,2.451645013934467e-05
3328.0,-0.0011210250668227673
3584.0,-0.00012588191020768136
3840.0,8.450811583315954e-05
4096.0,0.0011636634590104222
4608.0,-0.00039188668597489595
5120.0,0.00014211198140401393
5632.0,-0.001101033529266715
6144.0,9.624662925489247e-05
6656.0,-0.00012532348046079278
7168.0,-0.000800802547018975
7680.0,-0.0003218280035071075
8192.0,-0.00010971923620672897
9216.0,-0.0002484944125171751
10240.0,9.058730211108923e-05
11264.0,0.00026389071717858315
12288.0,0.00040693324990570545
13312.0,0.0005573994130827487
14336.0,-0.00032510687015019357
end
