version,3.0
numOfCh,1
type,point
parent_name,40-cuts
ch_type,1_1
kcount,1
numberNandB,1
brightnessNandB,1
carpet pos,0
pc,0
Time (ms),CH1 Auto-Correlation
1.0,0.04000347852706909
2.0,0.03663933649659157
3.0,0.033798884600400925
4.0,0.031243188306689262
5.0,0.02907865308225155
6.0,0.027237534523010254
7.0,0.025672398507595062
8.0,0.02424830198287964
9.0,0.022976959124207497
10.0,0.02175319567322731
11.0,0.020566122606396675
12.0,0.019435299560427666
13.0,0.018339065834879875
14.0,0.017397994175553322
15.0,0.01651274412870407
16.0,0.015699338167905807
18.0,0.014319822192192078
20.0,0.013086521066725254
22.0,0.011994732543826103
24.0,0.011044258251786232
26.0,0.010047395713627338
28.0,0.009108023717999458
30.0,0.00838273111730814
32.0,0.007704520132392645
36.0,0.00672522047534585
40.0,0.0060438308864831924
44.0,0.005656545516103506
48.0,0.0053350599482655525
52.0,0.005009780637919903
56.0,0.004591221921145916
60.0,0.003932462073862553
64.0,0.003051147097721696
72.0,0.0021370702888816595
80.0,0.002133651403710246
88.0,0.002038151491433382
96.0,0.0022348451893776655
104.0,0.0021530308295041323
112.0,0.002011363860219717
120.0,0.0020394602324813604
128.0,0.0022679814137518406
144.0,0.0010821574833244085
160.0,0.0007945069228298962
176.0,0.0005423715338110924
192.0,0.0005942997522652149
208.0,0.0005167218041606247
224.0,0.0001062099399860017
240.0,-0.0002826464478857815
256.0,-0.0016460114857181907
288.0,-0.0018523478647693992
320.0,-0.001043839380145073
352.0,-0.00027027467149309814
384.0,-0.00022807253117207438
416.0,-0.0007554821204394102
448.0,-0.0010538247879594564
480.0,0.0002817896311171353
512.0,-0.0002712728746701032
576.0,0.0008474349160678685
640.0,0.0010067098774015903
704.0,-0.0011938156094402075
768.0,-0.00024433748330920935
832.0,0.00032174430089071393
896.0,-0.0008374328026548028
960.0,0.0009481878369115293
1024.0,0.000441270531155169
1152.0,0.0009333174675703049
1280.0,0.002049286849796772
1408.0,0.0004972595488652587
1536.0,-0.000318169011734426
1664.0,-0.0016754932003095746
1792.0,-0.00011433828331064433
1920.0,0.0004624754365067929
2048.0,0.00041338559822179377
2304.0,-0.0017333828145638108
2560.0,-0.0006785062723793089
2816.0,-0.0004286065814085305
3072.0,-0.0008192326640710235
3328.0,0.0010303289163857698
3584.0,-0.000752124993596226
3840.0,-0.00034531339770182967
4096.0,-0.000985305174253881
4608.0,0.0005297343013808131
5120.0,-5.2569826948456466e-05
5632.0,-7.606042345287278e-05
6144.0,0.0006759174866601825
6656.0,-0.0002555690589360893
7168.0,-0.0003709969751071185
7680.0,-0.0013718341942876577
8192.0,0.00013518492050934583
9216.0,0.0002892528718803078
10240.0,0.00045741748181171715
11264.0,0.0003545458894222975
12288.0,-9.946618956746534e-05
13312.0,-2.1992398615111597e-05
14336.0,-0.0005870605236850679
end
