version,3.0
numOfCh,1
type,point
parent_name,40-cuts
ch_type,1_1
kcount,1
numberNandB,1
brightnessNandB,1
carpet pos,0
pc,0
Time (ms),CH1 Auto-Correlation
1.0,0.10401955991983414
2.0,0.09726902097463608
3.0,0.0913386419415474
4.0,0.0861818715929985
5.0,0.08149673044681549
6.0,0.07720980793237686
7.0,0.07352739572525024
8.0,0.07017987966537476
9.0,0.0671151876449585
10.0,0.06445008516311646
11.0,0.06199220195412636
12.0,0.05990290269255638
13.0,0.057856012135744095
14.0,0.05607319995760918
15.0,0.05435311049222946
16.0,0.05283553525805473
18.0,0.0498238131403923
20.0,0.04697262495756149
22.0,0.04452332854270935
24.0,0.04239239543676376
26.0,0.04047000780701637
28.0,0.038711633533239365
30.0,0.036847345530986786
32.0,0.03551936149597168
36.0,0.03320111334323883
40.0,0.03204033896327019
44.0,0.03129066899418831
48.0,0.029731422662734985
52.0,0.028196005150675774
56.0,0.026820849627256393
60.0,0.025029031559824944
64.0,0.02311129681766033
72.0,0.018055303022265434
80.0,0.015683937817811966
88.0,0.015119909308850765
96.0,0.013022602535784245
104.0,0.012007396668195724
112.0,0.011447880417108536
120.0,0.010371235199272633
128.0,0.009738479740917683
144.0,0.007431407924741507
160.0,0.005886819679290056
176.0,0.006874696351587772
192.0,0.005764362867921591
208.0,0.004570418037474155
224.0,0.004634427838027477
240.0,0.004378622397780418
256.0,0.0026907152496278286
288.0,0.00600516377016902
320.0,0.0071280584670603275
352.0,0.00466450210660696
384.0,0.001777387922629714
416.0,-0.0012834523804485798
448.0,-0.004132883623242378
480.0,-0.003449627198278904
512.0,-0.0003023104218300432
576.0,-0.004910327959805727
640.0,-0.0025841163005679846
704.0,0.0004096802440471947
768.0,-0.0016792259411886334
832.0,-0.0015748407458886504
896.0,0.000609480426646769
960.0,0.0007442067144438624
1024.0,-0.004552996251732111
1152.0,-0.00505994725972414
1280.0,-0.006184886675328016
1408.0,-0.002128149615600705
1536.0,-0.0020742302294820547
1664.0,0.0010149158770218492
1792.0,0.003725209506228566
1920.0,0.000635592732578516
2048.0,0.0022394945845007896
2304.0,-0.0011643293546512723
2560.0,-0.007784714922308922
2816.0,-0.010720877908170223
3072.0,-0.006954585667699575
3328.0,-0.0011774583254009485
3584.0,0.001355737796984613
3840.0,0.003258415963500738
4096.0,0.0009696208871901035
4608.0,0.00317954458296299
5120.0,0.003421944798901677
5632.0,0.0034071977715939283
6144.0,0.0010307022603228688
6656.0,-0.0031061957124620676
7168.0,-0.005948948673903942
7680.0,-0.00024988505174405873
8192.0,-0.001944201998412609
9216.0,0.0026577776297926903
10240.0,0.0023286626674234867
11264.0,0.0006897120620124042
12288.0,-0.0032802270725369453
13312.0,-0.0015275393379852176
14336.0,0.002320228610187769
end
