version,3.0
numOfCh,1
type,point
parent_name,40-cuts
ch_type,1_1
kcount,1
numberNandB,1
brightnessNandB,1
carpet pos,0
pc,0
Time (ms),CH1 Auto-Correlation
1.0,0.03961162641644478
2.0,0.036373868584632874
3.0,0.03354752063751221
4.0,0.03115026280283928
5.0,0.028983715921640396
6.0,0.027105215936899185
7.0,0.02542281523346901
8.0,0.023948417976498604
9.0,0.022668257355690002
10.0,0.02151881530880928
11.0,0.020462214946746826
12.0,0.019402332603931427
13.0,0.018385302275419235
14.0,0.017457079142332077
15.0,0.01660582236945629
16.0,0.01588505692780018
18.0,0.014574545435607433
20.0,0.013522154651582241
22.0,0.01256627682596445
24.0,0.011814242228865623
26.0,0.01114271767437458
28.0,0.010535662062466145
30.0,0.009948848746716976
32.0,0.009467246942222118
36.0,0.008812620304524899
40.0,0.008143630810081959
44.0,0.007488397415727377
48.0,0.006907507311552763
52.0,0.006307336501777172
56.0,0.005831865593791008
60.0,0.0053632608614861965
64.0,0.004870147909969091
72.0,0.004601878579705954
80.0,0.0042488048784434795
88.0,0.003416291670873761
96.0,0.002957176184281707
104.0,0.002421983750537038
112.0,0.0021250874269753695
120.0,0.001450955169275403
128.0,0.0008141185389831662
144.0,0.0006612137658521533
160.0,-0.00024407415185123682
176.0,-0.000272575271083042
192.0,-0.0009495675330981612
208.0,-0.0014241320313885808
224.0,-0.001493392395786941
240.0,-0.001470350893214345
256.0,-0.002492847153916955
288.0,-0.0020129207987338305
320.0,-0.0009484219481237233
352.0,-0.0009585237712599337
384.0,1.4267361621023156e-05
416.0,0.00023444775433745235
448.0,0.0006158981123007834
480.0,0.0005517282988876104
512.0,0.0008442442631348968
576.0,9.208554547512904e-05
640.0,-0.0013844697969034314
704.0,-0.0029019336216151714
768.0,-0.004310958553105593
832.0,-0.003100394504144788
896.0,-4.81316055811476e-06
960.0,0.0008952797506935894
1024.0,0.0015213534934446216
1152.0,0.0015698943752795458
1280.0,-0.0007536688935942948
1408.0,-0.0014209887012839317
1536.0,0.001614001695998013
1664.0,0.000536379695404321
1792.0,0.000655840733088553
1920.0,-0.0016735246172174811
2048.0,0.0013169151498004794
2304.0,0.00036920118145644665
2560.0,-0.0005338216433301568
2816.0,-0.0012776015792042017
3072.0,0.0001274391688639298
3328.0,0.0011619031429290771
3584.0,-6.25394459348172e-05
3840.0,-0.0006984556675888598
4096.0,-0.0014333813451230526
4608.0,-6.855638639535755e-05
5120.0,0.0005441191606223583
5632.0,-0.00020057486835867167
6144.0,-0.0016012318665161729
6656.0,0.0011443820549175143
7168.0,-0.0006301105604507029
7680.0,0.00013075850438326597
8192.0,-0.0010563596151769161
9216.0,0.00021938503778073937
10240.0,-0.00012363148562144488
11264.0,0.0002103211882058531
12288.0,0.0004114333132747561
13312.0,0.0002492820785846561
14336.0,0.0006855499814264476
end
