version,3.0
numOfCh,1
type,point
parent_name,40-cuts
ch_type,1_1
kcount,1
numberNandB,1
brightnessNandB,1
carpet pos,0
pc,0
Time (ms),CH1 Auto-Correlation
1.0,0.08851136267185211
2.0,0.08187120407819748
3.0,0.07635144144296646
4.0,0.07170503586530685
5.0,0.0675119161605835
6.0,0.06377531588077545
7.0,0.06044313684105873
8.0,0.05736861005425453
9.0,0.05479845777153969
10.0,0.05245739594101906
11.0,0.050381921231746674
12.0,0.048288315534591675
13.0,0.04638228937983513
14.0,0.04463212192058563
15.0,0.04285481572151184
16.0,0.04134403541684151
18.0,0.038580428808927536
20.0,0.036122847348451614
22.0,0.03416247293353081
24.0,0.03234037384390831
26.0,0.030766572803258896
28.0,0.02947523444890976
30.0,0.028452543541789055
32.0,0.02768903225660324
36.0,0.025674324482679367
40.0,0.023622212931513786
44.0,0.022085243836045265
48.0,0.02100626938045025
52.0,0.02070602960884571
56.0,0.020846204832196236
60.0,0.019902558997273445
64.0,0.01869111880660057
72.0,0.017003890126943588
80.0,0.015033327974379063
88.0,0.013511931523680687
96.0,0.012243276461958885
104.0,0.011258621700108051
112.0,0.011134810745716095
120.0,0.010828178375959396
128.0,0.010519358329474926
144.0,0.008241726085543633
160.0,0.005610389169305563
176.0,0.004440375603735447
192.0,0.0036120594013482332
208.0,0.003831222653388977
224.0,0.003007954452186823
240.0,0.0004990400047972798
256.0,-0.00019715121015906334
288.0,-0.0009828289039433002
320.0,0.0018626144155859947
352.0,0.0049474211409688
384.0,0.0023370767012238503
416.0,0.0007652984349988401
448.0,0.00036558680585585535
480.0,-0.000854116166010499
512.0,-0.0021913594100624323
576.0,-0.0037987965624779463
640.0,-0.00480892788618803
704.0,-0.00564314192160964
768.0,-0.0015935255214571953
832.0,0.0007412291597574949
896.0,-0.0005769783165305853
960.0,0.004996863659471273
1024.0,-6.121698243077844e-05
1152.0,-0.0005991266807541251
1280.0,-0.006032443605363369
1408.0,-0.004536147229373455
1536.0,-0.00525426072999835
1664.0,-0.004968501161783934
1792.0,0.004093748051673174
1920.0,0.0012083170004189014
2048.0,-0.0005452702171169221
2304.0,-0.0002226955402875319
2560.0,-0.0002921084815170616
2816.0,0.0026171032804995775
3072.0,0.0006973433191888034
3328.0,0.0007551800808869302
3584.0,0.0006018615677021444
3840.0,0.002089323243126273
4096.0,0.001481254817917943
4608.0,-0.0007396253058686852
5120.0,0.002045868895947933
5632.0,-0.003066237783059478
6144.0,0.0009914059191942215
6656.0,-0.0026340505573898554
7168.0,0.0019088517874479294
7680.0,-0.0014889365993440151
8192.0,-3.1909075914882123e-05
9216.0,-0.0008507799939252436
10240.0,-0.002505923854187131
11264.0,8.120722486637533e-05
12288.0,-0.007686401717364788
13312.0,0.006448767613619566
14336.0,-0.005701559595763683
end
