version,3.0
numOfCh,1
type,point
parent_name,40-cuts
ch_type,1_1
kcount,1
numberNandB,1
brightnessNandB,1
carpet pos,0
pc,0
Time (ms),CH1 Auto-Correlation
1.0,0.029277488589286804
2.0,0.027132438495755196
3.0,0.025260359048843384
4.0,0.02359086088836193
5.0,0.02206181362271309
6.0,0.02074318751692772
7.0,0.01958196423947811
8.0,0.018510717898607254
9.0,0.017555691301822662
10.0,0.016749747097492218
11.0,0.016029151156544685
12.0,0.015278411097824574
13.0,0.014652903191745281
14.0,0.014030450023710728
15.0,0.013430177234113216
16.0,0.012915680184960365
18.0,0.012006008066236973
20.0,0.01123209297657013
22.0,0.010564746335148811
24.0,0.009949217550456524
26.0,0.009390534833073616
28.0,0.008772255852818489
30.0,0.008213269524276257
32.0,0.007701645139604807
36.0,0.006968310568481684
40.0,0.006352616939693689
44.0,0.005714466329663992
48.0,0.00502360612154007
52.0,0.004455817863345146
56.0,0.004033349454402924
60.0,0.0037445458583533764
64.0,0.0035155366640537977
72.0,0.003254492534324527
80.0,0.002772403648123145
88.0,0.0025384833570569754
96.0,0.002413442824035883
104.0,0.0016037707682698965
112.0,0.001646168646402657
120.0,0.002073087263852358
128.0,0.0019978703930974007
144.0,0.0013493170263245702
160.0,0.0015392735367640853
176.0,0.0010655606165528297
192.0,0.0015873442171141505
208.0,0.0015587909147143364
224.0,0.0019110069843009114
240.0,0.0014021691167727113
256.0,0.0007160645327530801
288.0,0.0010446476517245173
320.0,0.00031363239395432174
352.0,-0.0004160608514212072
384.0,-0.0014641694724559784
416.0,-0.0029683448374271393
448.0,-0.002139590447768569
480.0,-0.0005022902623750269
512.0,0.0005408794968388975
576.0,-0.0001754713011905551
640.0,-0.00023657521524000913
704.0,-0.0012856381945312023
768.0,-0.001243141246959567
832.0,-0.0006602387875318527
896.0,-0.000910739996470511
960.0,-0.0006957369041629136
1024.0,-0.0014487056760117412
1152.0,-0.0009361656266264617
1280.0,0.00019526669348124415
1408.0,-0.00030961912125349045
1536.0,0.0005735820741392672
1664.0,-8.672984404256567e-05
1792.0,0.0008809593273326755
1920.0,6.793794455006719e-05
2048.0,-0.00019387001520954072
2304.0,0.0002883259439840913
2560.0,0.00032957730581983924
2816.0,-0.0011921521509066224
3072.0,0.0003933065745513886
3328.0,-0.00021876698883716017
3584.0,0.0004068024572916329
3840.0,0.001285696984268725
4096.0,0.00018117915897164494
4608.0,-0.0009282910614274442
5120.0,0.0006386515451595187
5632.0,0.00022405611525755376
6144.0,-0.00043259424273855984
6656.0,-0.0003342010313645005
7168.0,1.2831411368097179e-05
7680.0,-0.00024181594199035317
8192.0,-0.0007276847027242184
9216.0,-0.00025866038049571216
10240.0,0.00020527928427327424
11264.0,-0.000467027653940022
12288.0,-8.49826610647142e-05
13312.0,-0.00020471007155720145
14336.0,0.0030670035630464554
end
