version,3.0
numOfCh,1
type,point
parent_name,40-cuts
ch_type,1_1
kcount,1
numberNandB,1
brightnessNandB,1
carpet pos,0
pc,0
Time (ms),CH1 Auto-Correlation
1.0,0.038498640060424805
2.0,0.03520520031452179
3.0,0.0323919840157032
4.0,0.029954392462968826
5.0,0.027862397953867912
6.0,0.025943100452423096
7.0,0.02429439313709736
8.0,0.022786516696214676
9.0,0.02142663486301899
10.0,0.020157182589173317
11.0,0.01903296448290348
12.0,0.017987603321671486
13.0,0.016959920525550842
14.0,0.016084710136055946
15.0,0.015236693434417248
16.0,0.01441491860896349
18.0,0.012996598146855831
20.0,0.011746077798306942
22.0,0.010682167485356331
24.0,0.009737410582602024
26.0,0.008728723973035812
28.0,0.00783882662653923
30.0,0.007057454437017441
32.0,0.006614248733967543
36.0,0.006044552195817232
40.0,0.0053678047843277454
44.0,0.005097290966659784
48.0,0.005108477547764778
52.0,0.005082822870463133
56.0,0.0046121953055262566
60.0,0.0041724918410182
64.0,0.003620787290856242
72.0,0.003047042293474078
80.0,0.0024846564047038555
88.0,0.0019597080536186695
96.0,0.0014685154892504215
104.0,0.0011602590093389153
112.0,0.0007729185745120049
120.0,0.00048545710160396993
128.0,-1.6399384549004026e-05
144.0,0.000662108650431037
160.0,0.0013275796081870794
176.0,0.0004608247836586088
192.0,-0.0005459082894958556
208.0,-0.0013228257885202765
224.0,-0.0006937182042747736
240.0,-0.00045147817581892014
256.0,-0.00044846005039289594
288.0,-0.0007133317412808537
320.0,0.0006570854457095265
352.0,0.00015677946794312447
384.0,0.0009914727415889502
416.0,0.0007998930523172021
448.0,4.197128873784095e-05
480.0,0.00013443516218103468
512.0,-0.0004847844538744539
576.0,0.0009491202654317021
640.0,-2.693759961402975e-05
704.0,0.00011957991227973253
768.0,0.0010251580970361829
832.0,0.0006694481708109379
896.0,0.0011089652543887496
960.0,0.00015736158820800483
1024.0,-0.0004826800723094493
1152.0,-0.0005872545880265534
1280.0,-0.0010188319720327854
1408.0,-0.0009079460287466645
1536.0,3.688404149215785e-06
1664.0,-4.177054142928682e-05
1792.0,0.00011511543561937287
1920.0,-0.0008899002568796277
2048.0,-0.0008531280909664929
2304.0,8.267963130492717e-05
2560.0,-0.00014949038450140506
2816.0,-0.0007873985450714827
3072.0,-0.0002606803027447313
3328.0,-0.00032880876096896827
3584.0,-0.0007370270905084908
3840.0,-0.0007561062229797244
4096.0,0.001070523401722312
4608.0,0.0011842636158689857
5120.0,0.0001194132782984525
5632.0,0.00016369546938221902
6144.0,-0.0004328571376390755
6656.0,0.0005786376423202455
7168.0,-0.0005808194982819259
7680.0,-0.0007368674268946052
8192.0,-0.0008758954936638474
9216.0,0.00042634233250282705
10240.0,-0.0009121409384533763
11264.0,0.0003445021284278482
12288.0,-0.0013486631214618683
13312.0,0.0011694952845573425
14336.0,-0.0001405716029694304
end
