version,3.0
numOfCh,1
type,point
parent_name,40-cuts
ch_type,1_1
kcount,1
numberNandB,1
brightnessNandB,1
carpet pos,0
pc,0
Time (ms),CH1 Auto-Correlation
1.0,0.027988919988274574
2.0,0.025797590613365173
3.0,0.023904668167233467
4.0,0.022239748388528824
5.0,0.020827682688832283
6.0,0.019532492384314537
7.0,0.01837167702615261
8.0,0.017398711293935776
9.0,0.016558855772018433
10.0,0.01580825261771679
11.0,0.015100087970495224
12.0,0.01448308676481247
13.0,0.013904519379138947
14.0,0.013377761468291283
15.0,0.01288723386824131
16.0,0.01240613218396902
18.0,0.011597869917750359
20.0,0.010836165398359299
22.0,0.01020394079387188
24.0,0.009618045762181282
26.0,0.009075748734176159
28.0,0.008520442061126232
30.0,0.008041027002036572
32.0,0.007655044086277485
36.0,0.006999030709266663
40.0,0.006227188277989626
44.0,0.005730660632252693
48.0,0.005330661777406931
52.0,0.0046868943609297276
56.0,0.004150277003645897
60.0,0.0036703008227050304
64.0,0.0033469428308308125
72.0,0.0031570778228342533
80.0,0.002878888975828886
88.0,0.0026881578378379345
96.0,0.002780316863209009
104.0,0.0023175289388746023
112.0,0.0015254219761118293
120.0,0.0009397037792950869
128.0,0.000555295730009675
144.0,0.0006599295884370804
160.0,0.0005451850593090057
176.0,0.0010521429358050227
192.0,0.0015768447192385793
208.0,0.0010275514796376228
224.0,0.0007481278153136373
240.0,0.00016979928477667272
256.0,1.6972080629784614e-05
288.0,-0.0008497718372382224
320.0,-0.0005177143029868603
352.0,0.00022020377218723297
384.0,0.00023092245100997388
416.0,-0.00016666087321937084
448.0,-0.0003322030825074762
480.0,-0.0018937233835458755
512.0,-0.0009091635583899915
576.0,-0.001729985000565648
640.0,-0.000742168806027621
704.0,0.00020400261564645916
768.0,0.00045449609751813114
832.0,0.0009028931381180882
896.0,0.0009615583694539964
960.0,-0.00039206977817229927
1024.0,-0.0006957894656807184
1152.0,-0.0008050823234952986
1280.0,-0.0020381102804094553
1408.0,-0.0008552477229386568
1536.0,-0.00046053645201027393
1664.0,-4.930154682369903e-05
1792.0,-0.0002259316242998466
1920.0,-0.00010620795364957303
2048.0,-0.0006237186607904732
2304.0,4.212785279378295e-05
2560.0,0.0007036077440716326
2816.0,0.000681164616253227
3072.0,-0.00028903945349156857
3328.0,0.00010732412192737684
3584.0,-0.0005692101549357176
3840.0,-0.0009855203097686172
4096.0,0.0012493475805968046
4608.0,-0.00038337931619025767
5120.0,0.0005363753880374134
5632.0,-0.0005580742727033794
6144.0,0.0008367964182980359
6656.0,-0.0006116048316471279
7168.0,0.0005264942883513868
7680.0,-0.0010952547891065478
8192.0,0.000989899504929781
9216.0,-0.0011785593815147877
10240.0,-0.0008509194012731314
11264.0,0.000667216198053211
12288.0,0.0009338760282844305
13312.0,-0.0009905806509777904
14336.0,-0.0005527420435100794
end
