version,3.0
numOfCh,1
type,point
parent_name,40-cuts
ch_type,1_1
kcount,1
numberNandB,1
brightnessNandB,1
carpet pos,0
pc,0
Time (ms),CH1 Auto-Correlation
1.0,0.02743692323565483
2.0,0.025321651250123978
3.0,0.02356407605111599
4.0,0.02202225849032402
5.0,0.020583445206284523
6.0,0.019326191395521164
7.0,0.01820301078259945
8.0,0.017235174775123596
9.0,0.016388822346925735
10.0,0.01556454785168171
11.0,0.014777089469134808
12.0,0.014109080657362938
13.0,0.013520633801817894
14.0,0.013022951781749725
15.0,0.012561398558318615
16.0,0.012069434858858585
18.0,0.011276698671281338
20.0,0.010512672364711761
22.0,0.009926218539476395
24.0,0.00948167871683836
26.0,0.009067380800843239
28.0,0.008725656196475029
30.0,0.008293574675917625
32.0,0.007870862260460854
36.0,0.007094129454344511
40.0,0.0066176061518490314
44.0,0.00637021055445075
48.0,0.006082472391426563
52.0,0.005846877116709948
56.0,0.0056756106205284595
60.0,0.005404406692832708
64.0,0.005114351864904165
72.0,0.0043111396953463554
80.0,0.0037060335744172335
88.0,0.0038162432610988617
96.0,0.0034847864881157875
104.0,0.002771510509774089
112.0,0.0025783467572182417
120.0,0.002014776226133108
128.0,0.0016813945258036256
144.0,0.001875298097729683
160.0,0.0017390785505995154
176.0,0.0014455009950324893
192.0,0.0014751694398000836
208.0,0.0012412751093506813
224.0,0.0005652153631672263
240.0,0.0006942035397514701
256.0,0.00044306687777861953
288.0,-3.671732702059671e-05
320.0,-0.0005334232118912041
352.0,-0.00077787198824808
384.0,-0.0010356446728110313
416.0,-0.001033452688716352
448.0,-0.0016270795604214072
480.0,-0.0008479469688609242
512.0,-0.00018929217185359448
576.0,-0.0005901660188101232
640.0,-0.0013631050242111087
704.0,-0.0004489250131882727
768.0,0.0012102082837373018
832.0,0.0011273480486124754
896.0,0.0004120780504308641
960.0,0.0007150095188990235
1024.0,-2.820973895723e-05
1152.0,-0.0010639871470630169
1280.0,-0.0011543402215465903
1408.0,-0.0013171305181458592
1536.0,-0.002631734125316143
1664.0,-0.002584697213023901
1792.0,-0.000698136689607054
1920.0,0.00027690251590684056
2048.0,1.6252375644398853e-05
2304.0,0.001138264313340187
2560.0,0.00032705088960938156
2816.0,-9.234952449332923e-05
3072.0,0.0011063030688092113
3328.0,0.000932467810343951
3584.0,-0.0006180120981298387
3840.0,-0.0017576124519109726
4096.0,0.0001984376140171662
4608.0,8.683487249072641e-05
5120.0,0.0003099404275417328
5632.0,0.0008770531276240945
6144.0,-0.00020466781279537827
6656.0,-0.0004720466095022857
7168.0,-0.0012957904255017638
7680.0,0.0004790644452441484
8192.0,0.0004499963251873851
9216.0,-0.0004025085363537073
10240.0,0.0004500651848502457
11264.0,-0.0012119761668145657
12288.0,-0.0006862944574095309
13312.0,0.001543546561151743
14336.0,-0.0006776638329029083
end
