version,3.0
numOfCh,1
type,point
parent_name,40-cuts
ch_type,1_1
kcount,1
numberNandB,1
brightnessNandB,1
carpet pos,0
pc,0
Time (ms),CH1 Auto-Correlation
1.0,0.04134923219680786
2.0,0.03808491677045822
3.0,0.03527773171663284
4.0,0.03289125859737396
5.0,0.030832601711153984
6.0,0.02895781397819519
7.0,0.027322543784976006
8.0,0.02568391151726246
9.0,0.024096328765153885
10.0,0.022636624053120613
11.0,0.021347977221012115
12.0,0.020236263051629066
13.0,0.019289296120405197
14.0,0.018435893580317497
15.0,0.0177040733397007
16.0,0.016926079988479614
18.0,0.01546296663582325
20.0,0.01410415768623352
22.0,0.012913781218230724
24.0,0.011667069047689438
26.0,0.010535388253629208
28.0,0.009543946012854576
30.0,0.008776677772402763
32.0,0.008191629312932491
36.0,0.0072097196243703365
40.0,0.0058883982710540295
44.0,0.0047974176704883575
48.0,0.0039357030764222145
52.0,0.0037528558168560266
56.0,0.0035735524725168943
60.0,0.003436979139223695
64.0,0.003200594335794449
72.0,0.0023046552669256926
80.0,0.0010892855934798717
88.0,0.0003334947978146374
96.0,0.0002301457425346598
104.0,0.00016009260434657335
112.0,0.0002708786923903972
120.0,0.0003856510447803885
128.0,0.00018517393618822098
144.0,0.001311055850237608
160.0,0.0005943214055150747
176.0,-0.0008318794425576925
192.0,-0.000984390964731574
208.0,-0.0001185975197586231
224.0,0.0012615191517397761
240.0,0.0005747720715589821
256.0,0.000956208270508796
288.0,0.0009558318415656686
320.0,0.0004167288716416806
352.0,0.0010370466625317931
384.0,0.0013685161247849464
416.0,-0.0004206578014418483
448.0,0.00080475042341277
480.0,0.0006463463651016355
512.0,-0.001179613871499896
576.0,-1.4315719454316422e-05
640.0,0.0012755088973790407
704.0,0.0016970294527709484
768.0,0.0009539363090880215
832.0,0.0013432800769805908
896.0,-0.00023033942852634937
960.0,-0.001172512536868453
1024.0,7.579982775496319e-05
1152.0,-0.0002573042584117502
1280.0,-0.00029644009191542864
1408.0,-0.00022381394228432328
1536.0,-0.00022234729840420187
1664.0,-0.0010428475216031075
1792.0,-0.0007023417274467647
1920.0,0.00016625555872451514
2048.0,0.0003455586265772581
2304.0,-0.0011885275598615408
2560.0,-0.0005115754902362823
2816.0,-0.0012036680709570646
3072.0,-0.0006314741913229227
3328.0,-0.001169539405964315
3584.0,7.066209946060553e-05
3840.0,-0.0012712624156847596
4096.0,-7.534762698924169e-05
4608.0,0.0007767470669932663
5120.0,0.0006001687725074589
5632.0,0.0005910537438467145
6144.0,0.00037786472239531577
6656.0,0.00030735766631551087
7168.0,-0.0013158525107428432
7680.0,-1.8459393686498515e-05
8192.0,-0.0006909039220772684
9216.0,-0.0006619219202548265
10240.0,0.0008659010054543614
11264.0,-0.0005038780509494245
12288.0,9.886405314318836e-05
13312.0,-0.0002873061166610569
14336.0,0.0008650563540868461
end
