version,3.0
numOfCh,1
type,point
parent_name,40-cuts
ch_type,1_1
kcount,1
numberNandB,1
brightnessNandB,1
carpet pos,0
pc,0
Time (ms),CH1 Auto-Correlation
1.0,0.04179702326655388
2.0,0.038446005433797836
3.0,0.035568706691265106
4.0,0.03303523361682892
5.0,0.03082110732793808
6.0,0.028838763013482094
7.0,0.027045805007219315
8.0,0.025372765958309174
9.0,0.023884234949946404
10.0,0.022535957396030426
11.0,0.021343030035495758
12.0,0.020306739956140518
13.0,0.019401174038648605
14.0,0.018589943647384644
15.0,0.017890434712171555
16.0,0.017222344875335693
18.0,0.016161153092980385
20.0,0.015222535468637943
22.0,0.014207633212208748
24.0,0.01312481053173542
26.0,0.011992044746875763
28.0,0.011081263422966003
30.0,0.010244766250252724
32.0,0.009443175047636032
36.0,0.008104672655463219
40.0,0.006948255002498627
44.0,0.0059324041940271854
48.0,0.005244779400527477
52.0,0.004841186106204987
56.0,0.004439251497387886
60.0,0.00390807306393981
64.0,0.003761519445106387
72.0,0.00320284441113472
80.0,0.003052463987842202
88.0,0.0026073239278048277
96.0,0.002622661180794239
104.0,0.0026385020464658737
112.0,0.002633802592754364
120.0,0.0028717692475765944
128.0,0.0037580966018140316
144.0,0.003815472824499011
160.0,0.0027866121381521225
176.0,0.0016881224000826478
192.0,0.0007822583429515362
208.0,0.0015376339433714747
224.0,0.002900446532294154
240.0,0.003100129310041666
256.0,0.0035922143142670393
288.0,0.0023437885101884604
320.0,0.002251329366117716
352.0,0.001316878478974104
384.0,0.0008537314715795219
416.0,-0.0004900748608633876
448.0,0.0017432955792173743
480.0,0.0008604899630881846
512.0,-0.0010750646470114589
576.0,-0.001228099106810987
640.0,-0.002705412684008479
704.0,-0.002256599720567465
768.0,-0.001211310736835003
832.0,-0.00040545486262999475
896.0,-0.0005276247393339872
960.0,-0.002556055085733533
1024.0,-0.0012999868486076593
1152.0,-0.0010219232644885778
1280.0,-0.00024594904971309006
1408.0,0.00020476987992879003
1536.0,0.0001848926767706871
1664.0,0.00023645651526749134
1792.0,0.0011849935399368405
1920.0,0.000304429471725598
2048.0,0.00193178525660187
2304.0,0.0004646846791729331
2560.0,-0.0006497558788396418
2816.0,-0.001265159691683948
3072.0,-0.002201963448897004
3328.0,-0.0011694830609485507
3584.0,0.0012931847013533115
3840.0,-0.00027980332379229367
4096.0,-0.00033947426709346473
4608.0,-0.0012062509777024388
5120.0,-6.478215800598264e-05
5632.0,0.0022553354501724243
6144.0,-0.0008886738796718419
6656.0,-0.0010670811170712113
7168.0,0.0005863829865120351
7680.0,0.0005557749536819756
8192.0,0.0011358130723237991
9216.0,-0.00040588356205262244
10240.0,4.265061943442561e-05
11264.0,-0.001118368818424642
12288.0,-0.0010864661308005452
13312.0,0.000128340077935718
14336.0,0.0014193865936249495
end
