version,3.0
numOfCh,1
type,point
parent_name,40-cuts
ch_type,1_1
kcount,1
numberNandB,1
brightnessNandB,1
carpet pos,0
pc,0
Time (ms),CH1 Auto-Correlation
1.0,0.046312760561704636
2.0,0.042923618108034134
3.0,0.0399172380566597
4.0,0.03726169466972351
5.0,0.035063959658145905
6.0,0.033104490488767624
7.0,0.03136710077524185
8.0,0.029807742685079575
9.0,0.028359774500131607
10.0,0.02710874006152153
11.0,0.026085391640663147
12.0,0.024998104199767113
13.0,0.024136750027537346
14.0,0.023208672180771828
15.0,0.022419974207878113
16.0,0.021693015471100807
18.0,0.020234890282154083
20.0,0.018828488886356354
22.0,0.01758469082415104
24.0,0.016454007476568222
26.0,0.015416071750223637
28.0,0.01456601731479168
30.0,0.013791247271001339
32.0,0.01300444919615984
36.0,0.011589841917157173
40.0,0.010592982172966003
44.0,0.009812986478209496
48.0,0.008949635550379753
52.0,0.00817972794175148
56.0,0.007575190160423517
60.0,0.006701919250190258
64.0,0.0062535288743674755
72.0,0.006669007241725922
80.0,0.007418244611471891
88.0,0.007749771699309349
96.0,0.007055273745208979
104.0,0.0064330752938985825
112.0,0.006762287579476833
120.0,0.006310767959803343
128.0,0.00607259338721633
144.0,0.005686259362846613
160.0,0.004249299876391888
176.0,0.003415139624848962
192.0,0.003267680760473013
208.0,0.0023480907548218966
224.0,0.0026150646153837442
240.0,0.003092353232204914
256.0,0.002868306590244174
288.0,0.0021392814815044403
320.0,0.000779672060161829
352.0,-0.0008285841322503984
384.0,0.0005997989210300148
416.0,-0.00012290579616092145
448.0,-0.0012944013578817248
480.0,-0.0029145958833396435
512.0,-0.0009445003815926611
576.0,-0.0024538468569517136
640.0,-0.0025734147056937218
704.0,-9.212893201038241e-05
768.0,-0.00014074183127377182
832.0,0.0010586208663880825
896.0,0.001631499151699245
960.0,0.0012230881256982684
1024.0,0.00032087438739836216
1152.0,-9.48880915530026e-05
1280.0,0.0011452812468633056
1408.0,0.000759093789383769
1536.0,-0.0016546089900657535
1664.0,-0.0011193425161764026
1792.0,-0.0013164884876459837
1920.0,-0.0011569514172151685
2048.0,-0.002553593832999468
2304.0,-0.0006432245718315244
2560.0,-0.000696502102073282
2816.0,0.0009510829695500433
3072.0,0.002237541601061821
3328.0,0.0008833864121697843
3584.0,0.00036759808426722884
3840.0,0.0020832247100770473
4096.0,0.0021897433325648308
4608.0,0.00013298097474034876
5120.0,-0.001615823362953961
5632.0,-0.0002677383308764547
6144.0,-0.0005757173057645559
6656.0,-0.001520846039056778
7168.0,0.0011894324561581016
7680.0,0.0015755281783640385
8192.0,-0.0003605722449719906
9216.0,-0.0006049162475392222
10240.0,-0.0012477831915020943
11264.0,-0.0009727287688292563
12288.0,-0.0009725139825604856
13312.0,-0.0026881324592977762
14336.0,-0.002067385707050562
end
