version,3.0
numOfCh,1
type,point
parent_name,40-cuts
ch_type,1_1
kcount,1
numberNandB,1
brightnessNandB,1
carpet pos,0
pc,0
Time (ms),CH1 Auto-Correlation
1.0,0.09071077406406403
2.0,0.08384627103805542
3.0,0.07794150710105896
4.0,0.07281258702278137
5.0,0.06830954551696777
6.0,0.06445866078138351
7.0,0.06100877746939659
8.0,0.058185212314128876
9.0,0.05569605156779289
10.0,0.05326308310031891
11.0,0.05100385472178459
12.0,0.0489453561604023
13.0,0.04699733480811119
14.0,0.0454266220331192
15.0,0.04377923160791397
16.0,0.042235177010297775
18.0,0.039023417979478836
20.0,0.03629491850733757
22.0,0.03416993468999863
24.0,0.03278966620564461
26.0,0.0318099670112133
28.0,0.030922189354896545
30.0,0.02975369058549404
32.0,0.028543954715132713
36.0,0.027128780260682106
40.0,0.025698194280266762
44.0,0.024568550288677216
48.0,0.023467635735869408
52.0,0.022660791873931885
56.0,0.02163352631032467
60.0,0.020463459193706512
64.0,0.018743447959423065
72.0,0.01738452911376953
80.0,0.015163210220634937
88.0,0.013598085381090641
96.0,0.012013181112706661
104.0,0.011282376945018768
112.0,0.011072764173150063
120.0,0.010788565501570702
128.0,0.010317347943782806
144.0,0.008088215254247189
160.0,0.0059290193021297455
176.0,0.0064452458173036575
192.0,0.006974766030907631
208.0,0.007393220905214548
224.0,0.006644339766353369
240.0,0.0033747057896107435
256.0,0.0038492658641189337
288.0,0.0018861780408769846
320.0,-0.00012226183025632054
352.0,-0.002221254166215658
384.0,-0.004547733347862959
416.0,-0.004800769034773111
448.0,-0.006620027124881744
480.0,-0.005741494242101908
512.0,-0.005105474032461643
576.0,-0.001931346021592617
640.0,0.0026238663122057915
704.0,0.002455138135701418
768.0,0.004786456469446421
832.0,0.0040376256220042706
896.0,0.0033258062321692705
960.0,0.0029918416403234005
1024.0,0.006309362128376961
1152.0,0.0019037286983802915
1280.0,0.0015941195888444781
1408.0,0.0048484038561582565
1536.0,-0.0028142232913523912
1664.0,-0.004322179593145847
1792.0,-0.005222854670137167
1920.0,-0.0014108605682849884
2048.0,0.005949483253061771
2304.0,0.0021811542101204395
2560.0,-0.006296228151768446
2816.0,0.00060900958487764
3072.0,0.0033459835685789585
3328.0,-0.0006132950657047331
3584.0,0.0027614464052021503
3840.0,0.00012337748194113374
4096.0,0.0003271709429100156
4608.0,3.4541732020443305e-05
5120.0,0.00044696658733300865
5632.0,-0.000554743455722928
6144.0,0.0002752503496594727
6656.0,0.0004280894936528057
7168.0,-0.000570183212403208
7680.0,-0.0007568348082713783
8192.0,-0.004366201348602772
9216.0,0.0006410120986402035
10240.0,0.0009427578770555556
11264.0,-0.005003036465495825
12288.0,-0.00548696331679821
13312.0,-0.003928327467292547
14336.0,-0.005174585618078709
end
