version,3.0
numOfCh,1
type,point
parent_name,40-cuts
ch_type,1_1
kcount,1
numberNandB,1
brightnessNandB,1
carpet pos,0
pc,0
Time (ms),CH1 Auto-Correlation
1.0,0.037112776190042496
2.0,0.033828847110271454
3.0,0.031027724966406822
4.0,0.028599511831998825
5.0,0.02649414725601673
6.0,0.024655554443597794
7.0,0.023068265989422798
8.0,0.021743373945355415
9.0,0.020470090210437775
10.0,0.019407901912927628
11.0,0.018385736271739006
12.0,0.017474675551056862
13.0,0.016730235889554024
14.0,0.015887999907135963
15.0,0.015133361332118511
16.0,0.0143636679276824
18.0,0.013127947226166725
20.0,0.012137009762227535
22.0,0.01135961338877678
24.0,0.010856294073164463
26.0,0.010202769190073013
28.0,0.009523813612759113
30.0,0.008815133012831211
32.0,0.008331600576639175
36.0,0.007439105771481991
40.0,0.006579747889190912
44.0,0.005800546612590551
48.0,0.0053834556601941586
52.0,0.004905380308628082
56.0,0.004871489480137825
60.0,0.004681628197431564
64.0,0.00427995715290308
72.0,0.003694921964779496
80.0,0.0029443115927278996
88.0,0.002268001204356551
96.0,0.0019938647747039795
104.0,0.0018339605303481221
112.0,0.0019399782177060843
120.0,0.0020754949655383825
128.0,0.002214312320575118
144.0,0.002432681154459715
160.0,0.0022743043955415487
176.0,0.0018032760126516223
192.0,0.0010282510193064809
208.0,0.0010301857255399227
224.0,0.0004085288674104959
240.0,0.0003982025373261422
256.0,0.0021712039597332478
288.0,0.0022576311603188515
320.0,0.002555985003709793
352.0,0.001717549399472773
384.0,0.0010981687810271978
416.0,0.000973685528151691
448.0,0.0006674056057818234
480.0,0.0007751664379611611
512.0,0.00016431948461104184
576.0,0.0007489359122700989
640.0,0.002328430535271764
704.0,0.0016930202255025506
768.0,0.00067226926330477
832.0,0.0007782401517033577
896.0,0.0005500346887856722
960.0,0.0005794602329842746
1024.0,-0.0007463687798008323
1152.0,-0.0008765658130869269
1280.0,-0.0010609404416754842
1408.0,-0.00023854112077970058
1536.0,0.0006021676235832274
1664.0,-0.0004116218478884548
1792.0,2.0442721506697126e-05
1920.0,0.0008106359746307135
2048.0,-0.0010339523432776332
2304.0,6.533146370202303e-05
2560.0,-0.0003849953936878592
2816.0,-0.0004359321319498122
3072.0,-0.0011255681747570634
3328.0,-0.00021064828615635633
3584.0,6.675569602521136e-05
3840.0,-0.0007392095285467803
4096.0,-0.0014888662844896317
4608.0,-0.0010581956012174487
5120.0,9.012237569550052e-05
5632.0,0.0004725415783468634
6144.0,0.0006792133790440857
6656.0,4.498558701016009e-05
7168.0,0.0004523655225057155
7680.0,-0.0005793340969830751
8192.0,-0.0005412769387476146
9216.0,-0.0005129008204676211
10240.0,-0.0011495485669001937
11264.0,-0.0010208551539108157
12288.0,0.00028412454412318766
13312.0,0.0014491328038275242
14336.0,0.0008258146699517965
end
