version,3.0
numOfCh,1
type,point
parent_name,40-cuts
ch_type,1_1
kcount,1
numberNandB,1
brightnessNandB,1
carpet pos,0
pc,0
Time (ms),CH1 Auto-Correlation
1.0,0.02740354835987091
2.0,0.02513732947409153
3.0,0.023177726194262505
4.0,0.021555982530117035
5.0,0.020105069503188133
6.0,0.018824880942702293
7.0,0.01770860329270363
8.0,0.01665503904223442
9.0,0.01570885069668293
10.0,0.014877736568450928
11.0,0.01407220121473074
12.0,0.013429892249405384
13.0,0.012808878906071186
14.0,0.01220807246863842
15.0,0.011571216396987438
16.0,0.011075307615101337
18.0,0.010143988765776157
20.0,0.009236196056008339
22.0,0.008374328725039959
24.0,0.007610614411532879
26.0,0.007021340541541576
28.0,0.006396363954991102
30.0,0.005890361033380032
32.0,0.0055192564614117146
36.0,0.004851009696722031
40.0,0.004313069395720959
44.0,0.003597456030547619
48.0,0.002727113664150238
52.0,0.0021208946127444506
56.0,0.0020047614816576242
60.0,0.0019112132722511888
64.0,0.001815170980989933
72.0,0.0011526062153279781
80.0,0.00045172235695645213
88.0,-0.0003280059027019888
96.0,-0.00029757735319435596
104.0,-0.0001624680298846215
112.0,5.442357360152528e-05
120.0,0.00032772935810498893
128.0,0.00046124798245728016
144.0,0.0007093080785125494
160.0,0.0009469283395446837
176.0,0.0008915798971429467
192.0,0.0008691559778526425
208.0,0.0004707391490228474
224.0,3.112600097665563e-05
240.0,-0.0005004292470403016
256.0,-0.0005702221533283591
288.0,-0.0009478043648414314
320.0,-0.0009543676278553903
352.0,-0.0005734022124670446
384.0,-0.001013249158859253
416.0,-0.0010749606881290674
448.0,-0.00017719916650094092
480.0,-0.0001548680738778785
512.0,-0.0010479999473318458
576.0,-0.0016517314361408353
640.0,-0.0015846817987039685
704.0,-8.843939212965779e-06
768.0,0.0002762743679340929
832.0,-0.000136806775117293
896.0,-1.0165244020754471e-05
960.0,0.00026301550678908825
1024.0,0.001519801327958703
1152.0,0.0003851395158562809
1280.0,0.00028703673160634935
1408.0,-0.0002496365050319582
1536.0,-0.0009608200052753091
1664.0,-0.001275358023121953
1792.0,-0.0006076646968722343
1920.0,0.0005417686770670116
2048.0,0.0005486559239216149
2304.0,0.00016209374007303268
2560.0,-0.0009088783990591764
2816.0,-0.00021541269961744547
3072.0,0.00017210615624208003
3328.0,0.00013870821567252278
3584.0,-0.00020288422820158303
3840.0,0.00024376616056542844
4096.0,0.0004784664197359234
4608.0,-0.0004017817263957113
5120.0,0.0002146786719094962
5632.0,-0.00043867729254998267
6144.0,0.00036993512185290456
6656.0,-0.00010158836812479421
7168.0,9.129739919444546e-05
7680.0,-0.000273040757747367
8192.0,0.0004445954691618681
9216.0,0.00014212587848305702
10240.0,-0.00018923202878795564
11264.0,-0.0004668602778110653
12288.0,0.00012749758025165647
13312.0,8.054628779063933e-06
14336.0,1.1723780517058913e-05
end
