version,3.0
numOfCh,1
type,point
parent_name,40-cuts
ch_type,1_1
kcount,1
numberNandB,1
brightnessNandB,1
carpet pos,0
pc,0
Time (ms),CH1 Auto-Correlation
1.0,0.04018058627843857
2.0,0.036899905651807785
3.0,0.034081824123859406
4.0,0.031726859509944916
5.0,0.029674392193555832
6.0,0.027768192812800407
7.0,0.026159241795539856
8.0,0.024727709591388702
9.0,0.02342531457543373
10.0,0.022344794124364853
11.0,0.021351855248212814
12.0,0.020465107634663582
13.0,0.019679401069879532
14.0,0.018909674137830734
15.0,0.018177764490246773
16.0,0.017440184950828552
18.0,0.0161807369440794
20.0,0.015117757022380829
22.0,0.014246266335248947
24.0,0.013389522209763527
26.0,0.012472138740122318
28.0,0.011662762612104416
30.0,0.010876825079321861
32.0,0.010365363210439682
36.0,0.00947421882301569
40.0,0.008308726362884045
44.0,0.007444940973073244
48.0,0.0067421142011880875
52.0,0.0060749053955078125
56.0,0.005665400996804237
60.0,0.005233805626630783
64.0,0.0051719206385314465
72.0,0.005281610414385796
80.0,0.00512748584151268
88.0,0.004370043054223061
96.0,0.003958375658839941
104.0,0.0033389567397534847
112.0,0.0027704241219908
120.0,0.002153724431991577
128.0,0.0020347407553344965
144.0,0.001628266996704042
160.0,0.0007634115754626691
176.0,-4.469246505323099e-06
192.0,9.317980584455654e-06
208.0,1.611742118257098e-05
224.0,0.00015905157488305122
240.0,-0.0004019307962153107
256.0,-0.000824744813144207
288.0,-0.0008472958579659462
320.0,-0.0007815606077201664
352.0,-0.0005051133339293301
384.0,-0.0008818852948024869
416.0,-7.16146532795392e-05
448.0,-0.0005230834358371794
480.0,-0.0006644681561738253
512.0,-0.0003353024076204747
576.0,0.0002586395712569356
640.0,-0.0010478685144335032
704.0,-0.001133559737354517
768.0,-0.0005733787547796965
832.0,-0.0013346790801733732
896.0,-0.0004384508647490293
960.0,0.0013476806925609708
1024.0,0.0012480183504521847
1152.0,-0.0006032356177456677
1280.0,-0.0015230670105665922
1408.0,-0.001471701543778181
1536.0,-0.0007225368754006922
1664.0,-0.0008829562575556338
1792.0,-0.0009764831629581749
1920.0,0.0005497149541042745
2048.0,0.0003279675729572773
2304.0,-0.000725013785995543
2560.0,0.0010038635227829218
2816.0,-0.0004957877681590617
3072.0,-0.0007213883800432086
3328.0,-0.0019322389271110296
3584.0,-0.0008936576778069139
3840.0,0.0009604088845662773
4096.0,0.0006950819515623152
4608.0,-0.00027841038536280394
5120.0,0.0006065333727747202
5632.0,-0.0005593214300461113
6144.0,0.001012776861898601
6656.0,0.0015855788951739669
7168.0,-0.0009489625226706266
7680.0,-0.0006425539031624794
8192.0,-0.0010426612570881844
9216.0,-0.0009236085461452603
10240.0,0.0010644396534189582
11264.0,-1.5668749711039709e-06
12288.0,-0.00038078115903772414
13312.0,-2.298918161613983e-06
14336.0,-9.444072202313691e-05
end
