version,3.0
numOfCh,1
type,point
parent_name,40-cuts
ch_type,1_1
kcount,1
numberNandB,1
brightnessNandB,1
carpet pos,0
pc,0
Time (ms),CH1 Auto-Correlation
1.0,0.040652453899383545
2.0,0.03747301548719406
3.0,0.03473987802863121
4.0,0.03242083266377449
5.0,0.030319543555378914
6.0,0.028482943773269653
7.0,0.026882639154791832
8.0,0.025450842455029488
9.0,0.024202419444918633
10.0,0.023039232939481735
11.0,0.02202918566763401
12.0,0.021071814000606537
13.0,0.02020392008125782
14.0,0.019409984350204468
15.0,0.018633829429745674
16.0,0.017908848822116852
18.0,0.01667681336402893
20.0,0.015557872131466866
22.0,0.014408287592232227
24.0,0.01349792443215847
26.0,0.012522464618086815
28.0,0.011596281081438065
30.0,0.010672989301383495
32.0,0.009852847084403038
36.0,0.009183166548609734
40.0,0.0090078916400671
44.0,0.008906649425625801
48.0,0.008501505479216576
52.0,0.0081782890483737
56.0,0.0073456368409097195
60.0,0.006744507234543562
64.0,0.0063461363315582275
72.0,0.005797647871077061
80.0,0.005038156174123287
88.0,0.0035760647151619196
96.0,0.0028649151790887117
104.0,0.0016066242242231965
112.0,0.001199010876007378
120.0,0.0010727463522925973
128.0,0.0005642643664032221
144.0,0.0006470733205787838
160.0,0.0003419532731641084
176.0,0.00022279952827375382
192.0,-0.00022238853853195906
208.0,-0.0010137850185856223
224.0,-0.001700504682958126
240.0,-0.0020077049266546965
256.0,-0.0017150943167507648
288.0,0.00037422263994812965
320.0,0.001650166348554194
352.0,0.0026506187859922647
384.0,0.0007264106534421444
416.0,8.320673077832907e-05
448.0,-0.00045974820386618376
480.0,-1.0344880138291046e-05
512.0,0.0009812000207602978
576.0,7.669805927434936e-05
640.0,0.0006285338313318789
704.0,0.00026854194584302604
768.0,-0.0004304656758904457
832.0,0.000981227494776249
896.0,0.0008349724812433124
960.0,0.0009574653231538832
1024.0,0.001942584989592433
1152.0,-0.001552489004097879
1280.0,0.000226813557674177
1408.0,-0.0007243736181408167
1536.0,0.0017150958301499486
1664.0,0.0001418984029442072
1792.0,-0.0031751941423863173
1920.0,0.0004129928711336106
2048.0,0.0005060936673544347
2304.0,-8.16580286482349e-05
2560.0,-0.001877125003375113
2816.0,-0.0008396314224228263
3072.0,-0.0009502062457613647
3328.0,0.0005907391896471381
3584.0,0.0007154468330554664
3840.0,-0.001510307309217751
4096.0,0.00042731178109534085
4608.0,0.0010006364900618792
5120.0,-0.00023661102750338614
5632.0,-0.0012444441672414541
6144.0,0.00012402632273733616
6656.0,8.121343853417784e-05
7168.0,-0.0001343349285889417
7680.0,0.0008883813279680908
8192.0,0.0012177772587165236
9216.0,-0.0006843480514362454
10240.0,-0.0022078247275203466
11264.0,-0.00024696101900190115
12288.0,0.0002930337213911116
13312.0,0.0019408994121477008
14336.0,0.0006601325003430247
end
