version,3.0
numOfCh,1
type,point
parent_name,40-cuts
ch_type,1_1
kcount,1
numberNandB,1
brightnessNandB,1
carpet pos,0
pc,0
Time (ms),CH1 Auto-Correlation
1.0,0.09460606426000595
2.0,0.08757855743169785
3.0,0.08156594634056091
4.0,0.0760074257850647
5.0,0.07104632258415222
6.0,0.06680852919816971
7.0,0.06303825229406357
8.0,0.05961836129426956
9.0,0.05659162253141403
10.0,0.05378299206495285
11.0,0.051081977784633636
12.0,0.04856107756495476
13.0,0.04606320708990097
14.0,0.043891046196222305
15.0,0.04183630272746086
16.0,0.0398673415184021
18.0,0.03619790077209473
20.0,0.03251948207616806
22.0,0.029448222368955612
24.0,0.02684587799012661
26.0,0.024497954174876213
28.0,0.022382497787475586
30.0,0.020384885370731354
32.0,0.018908841535449028
36.0,0.01698903739452362
40.0,0.01510667521506548
44.0,0.013176936656236649
48.0,0.011319786310195923
52.0,0.010125498287379742
56.0,0.009799969382584095
60.0,0.008979127742350101
64.0,0.007630928419530392
72.0,0.006257810164242983
80.0,0.005439840257167816
88.0,0.005918922368437052
96.0,0.007053266279399395
104.0,0.0071065085940063
112.0,0.006677704863250256
120.0,0.005302165634930134
128.0,0.004296963103115559
144.0,0.005582981742918491
160.0,0.005728371441364288
176.0,0.0030060280114412308
192.0,0.0019394392147660255
208.0,0.002520703710615635
224.0,0.002506485441699624
240.0,0.002598538063466549
256.0,0.0017298564780503511
288.0,0.0007315988768823445
320.0,0.001014085952192545
352.0,0.0006052769022062421
384.0,0.0004426444647833705
416.0,0.003213553922250867
448.0,0.0015583898639306426
480.0,-0.0059677669778466225
512.0,-0.006559811998158693
576.0,-0.003125400049611926
640.0,-0.003548254957422614
704.0,0.0014662998728454113
768.0,-0.0015418450348079205
832.0,-0.0015173227293416858
896.0,-0.0009781095432117581
960.0,-0.005714080296456814
1024.0,-0.0024455077946186066
1152.0,-9.30562091525644e-05
1280.0,-9.776547085493803e-05
1408.0,-0.0022195372730493546
1536.0,-0.00260994047857821
1664.0,-0.003030249383300543
1792.0,-0.0020108940079808235
1920.0,-0.0012922523310407996
2048.0,-0.0009582869824953377
2304.0,-0.0035369533579796553
2560.0,0.0015773685881868005
2816.0,0.006380386650562286
3072.0,0.0014627421041950583
3328.0,-0.000731911975890398
3584.0,-0.0018803615821525455
3840.0,-0.0023095773067325354
4096.0,-0.0015699603827670217
4608.0,0.0001838409953052178
5120.0,-0.0015369176398962736
5632.0,0.004619878251105547
6144.0,0.0009628335828892887
6656.0,-0.001814354327507317
7168.0,-0.0013965057441964746
7680.0,-0.0012658840278163552
8192.0,0.0013620484387502074
9216.0,0.0013066214742138982
10240.0,-0.0003670603036880493
11264.0,-0.0001693551748758182
12288.0,0.0010464158840477467
13312.0,-0.0017824330134317279
14336.0,0.0009943126933649182
end
