version,3.0
numOfCh,1
type,point
parent_name,40-cuts
ch_type,1_1
kcount,1
numberNandB,1
brightnessNandB,1
carpet pos,0
pc,0
Time (ms),CH1 Auto-Correlation
1.0,0.02907164767384529
2.0,0.026854436844587326
3.0,0.024912336841225624
4.0,0.023252665996551514
5.0,0.021779263392090797
6.0,0.020456397905945778
7.0,0.01933448761701584
8.0,0.01830759458243847
9.0,0.017356688156723976
10.0,0.01649302802979946
11.0,0.01566634699702263
12.0,0.014859226532280445
13.0,0.01413420494645834
14.0,0.013435598462820053
15.0,0.012837066315114498
16.0,0.012260643765330315
18.0,0.011203776113688946
20.0,0.010309475474059582
22.0,0.009475436061620712
24.0,0.008764740079641342
26.0,0.008147358894348145
28.0,0.007523054722696543
30.0,0.006883825641125441
32.0,0.006317812018096447
36.0,0.005447784438729286
40.0,0.004982390906661749
44.0,0.004721864592283964
48.0,0.004695101175457239
52.0,0.0046163382939994335
56.0,0.004487005062401295
60.0,0.004324539564549923
64.0,0.003966869320720434
72.0,0.003566477447748184
80.0,0.0032662146259099245
88.0,0.00305197830311954
96.0,0.002598801627755165
104.0,0.0018925884505733848
112.0,0.001840578275732696
120.0,0.0013613123446702957
128.0,0.0009801555424928665
144.0,0.0008854352636262774
160.0,0.0012869994388893247
176.0,0.0015449796337634325
192.0,0.0008325754897668958
208.0,0.0004457391914911568
224.0,-5.25987779838033e-05
240.0,0.00014827230188529938
256.0,0.0004174898494966328
288.0,0.000995646812953055
320.0,0.0014270838582888246
352.0,0.00017796856991481036
384.0,0.00022825488122180104
416.0,0.0004048870177939534
448.0,0.0006353796343319118
480.0,0.0010291609214618802
512.0,0.0010125028202310205
576.0,0.0014776790048927069
640.0,0.0005934693617746234
704.0,-0.00022978185734245926
768.0,0.0001176472578663379
832.0,0.0002519672561902553
896.0,-0.0005497931269928813
960.0,-0.0013560205698013306
1024.0,9.09410446183756e-05
1152.0,-0.0008164619794115424
1280.0,-0.0008119432022795081
1408.0,-0.001140115549787879
1536.0,-0.0012069940567016602
1664.0,0.0008482806733809412
1792.0,6.301313987933099e-05
1920.0,-0.000502280774526298
2048.0,-0.00045098739792592824
2304.0,0.0008739428594708443
2560.0,-0.0005809893482364714
2816.0,0.00037611843436025083
3072.0,-0.0007728500058874488
3328.0,-0.001283668098039925
3584.0,-0.0025178531650453806
3840.0,-0.0017583773005753756
4096.0,-0.0007863898645155132
4608.0,-0.00039656495209783316
5120.0,0.0008901329711079597
5632.0,-0.00011953907232964411
6144.0,0.00030885671731084585
6656.0,0.0009335522772744298
7168.0,0.0014243741752579808
7680.0,6.594125443371013e-05
8192.0,-5.271353802527301e-05
9216.0,0.0003964053757954389
10240.0,-0.001370266079902649
11264.0,-0.0016616203356534243
12288.0,0.0019688077736645937
13312.0,0.00018656198517419398
14336.0,0.0019106288673356175
end
