version,3.0
numOfCh,1
type,point
parent_name,40-cuts
ch_type,1_1
kcount,1
numberNandB,1
brightnessNandB,1
carpet pos,0
pc,0
Time (ms),CH1 Auto-Correlation
1.0,0.02747545763850212
2.0,0.025329239666461945
3.0,0.02351261116564274
4.0,0.02192729525268078
5.0,0.020598167553544044
6.0,0.019422242417931557
7.0,0.018355023115873337
8.0,0.01742807775735855
9.0,0.01659652777016163
10.0,0.015774250030517578
11.0,0.014997395686805248
12.0,0.014269616454839706
13.0,0.013552357442677021
14.0,0.012948368676006794
15.0,0.012409694492816925
16.0,0.011912627145648003
18.0,0.01077747531235218
20.0,0.009850768372416496
22.0,0.009018385782837868
24.0,0.008367220871150494
26.0,0.007834626361727715
28.0,0.007213952019810677
30.0,0.006665836088359356
32.0,0.006190028507262468
36.0,0.005453360732644796
40.0,0.005075469613075256
44.0,0.00454722810536623
48.0,0.00393384275957942
52.0,0.003643321804702282
56.0,0.003419200424104929
60.0,0.003159375861287117
64.0,0.002777818590402603
72.0,0.0024474284145981073
80.0,0.00229741632938385
88.0,0.0022300677374005318
96.0,0.0025451977271586657
104.0,0.00272255577147007
112.0,0.0028939256444573402
120.0,0.002739543095231056
128.0,0.002033289521932602
144.0,0.001188483671285212
160.0,0.0006108335801400244
176.0,0.0004404444189276546
192.0,0.00014122104039415717
208.0,5.262967897579074e-05
224.0,-0.00024831006885506213
240.0,0.0002664285711944103
256.0,0.0005181386368349195
288.0,-0.0008805185207165778
320.0,-0.00047087532584555447
352.0,-0.0007443685899488628
384.0,-0.0015721525996923447
416.0,-0.0014883449766784906
448.0,-0.0006546280346810818
480.0,-0.0005633455002680421
512.0,-0.0010424238862469792
576.0,-0.0011874322080984712
640.0,-0.0002122699370374903
704.0,0.00042956724064424634
768.0,-0.00010780007141875103
832.0,-0.0005325230886228383
896.0,0.0001635836233617738
960.0,0.0010120917577296495
1024.0,0.0009501142194494605
1152.0,0.0006458380958065391
1280.0,-0.0005896479124203324
1408.0,-0.0009260572260245681
1536.0,-0.0013634748756885529
1664.0,-0.0011346841929480433
1792.0,0.00040755289955995977
1920.0,0.0015381292905658484
2048.0,0.001018580049276352
2304.0,0.00045793617027811706
2560.0,-0.0009751315810717642
2816.0,0.00018802691192831844
3072.0,0.00023889561998657882
3328.0,-6.226260302355513e-05
3584.0,-0.0004064371751155704
3840.0,0.00018140544125344604
4096.0,-0.0004778820148203522
4608.0,-0.00011206024646526203
5120.0,0.000213253078982234
5632.0,-0.0002211337850894779
6144.0,-0.00041409017285332084
6656.0,-0.0003861643490381539
7168.0,-0.0002172591775888577
7680.0,0.00010866529191844165
8192.0,6.228015990927815e-05
9216.0,-0.00026515647186897695
10240.0,-2.1236864995444193e-06
11264.0,0.000144644029205665
12288.0,0.00035470922011882067
13312.0,0.00030974813853390515
14336.0,0.00026984847499988973
end
