version,3.0
numOfCh,1
type,point
parent_name,40-cuts
ch_type,1_1
kcount,1
numberNandB,1
brightnessNandB,1
carpet pos,0
pc,0
Time (ms),CH1 Auto-Correlation
1.0,0.09416663646697998
2.0,0.08675982803106308
3.0,0.08030474185943604
4.0,0.07468154281377792
5.0,0.06958142668008804
6.0,0.06527818739414215
7.0,0.06141064316034317
8.0,0.057741910219192505
9.0,0.05441269278526306
10.0,0.05154912918806076
11.0,0.04892246425151825
12.0,0.04649342596530914
13.0,0.044371169060468674
14.0,0.04215376079082489
15.0,0.04005003347992897
16.0,0.03825096786022186
18.0,0.03508354723453522
20.0,0.032337043434381485
22.0,0.02991175837814808
24.0,0.027730626985430717
26.0,0.02542850747704506
28.0,0.022864382714033127
30.0,0.020472466945648193
32.0,0.01871875859797001
36.0,0.016716888174414635
40.0,0.01592220552265644
44.0,0.015271071344614029
48.0,0.01358048990368843
52.0,0.01152876392006874
56.0,0.009680267423391342
60.0,0.008603368885815144
64.0,0.0076830447651445866
72.0,0.006175766233354807
80.0,0.005529467016458511
88.0,0.004901866894215345
96.0,0.005450680386275053
104.0,0.007195955608040094
112.0,0.008621234446763992
120.0,0.008643750101327896
128.0,0.008352776058018208
144.0,0.006038008723407984
160.0,0.006105019245296717
176.0,0.004078021738678217
192.0,-0.0004300889850128442
208.0,-0.002217635978013277
224.0,-0.0007510955329053104
240.0,-0.001980770844966173
256.0,-0.0038379274774342775
288.0,-0.0026012533344328403
320.0,-0.00033272404107265174
352.0,0.0030247659888118505
384.0,0.0003464329638518393
416.0,-0.001459555933251977
448.0,0.0019735239911824465
480.0,0.002226313343271613
512.0,0.0004804821510333568
576.0,-0.000960544915869832
640.0,-0.0024884475860744715
704.0,0.001190474140457809
768.0,-0.0013555355835705996
832.0,-0.0021319370716810226
896.0,-0.0027182691264897585
960.0,0.0014726818772032857
1024.0,9.398801921634004e-05
1152.0,0.0047671180218458176
1280.0,0.00467917462810874
1408.0,0.0009185093804262578
1536.0,0.002848867094144225
1664.0,0.005011572502553463
1792.0,0.0031253474298864603
1920.0,0.0007326547056436539
2048.0,-3.524577914504334e-05
2304.0,0.00029506784630939364
2560.0,-1.6835887436172925e-05
2816.0,0.003800468984991312
3072.0,0.003483059350401163
3328.0,0.0020755145233124495
3584.0,0.003168655326589942
3840.0,-0.0013884709915146232
4096.0,-0.00014359646593220532
4608.0,-0.0009099629824049771
5120.0,0.0010071792639791965
5632.0,0.000709600280970335
6144.0,-0.0007024038350209594
6656.0,0.0008868753211572766
7168.0,-0.0009326738072559237
7680.0,-0.004257748369127512
8192.0,0.0013757847482338548
9216.0,-0.00310493097640574
10240.0,-0.0036127835046499968
11264.0,-0.0018759950762614608
12288.0,-0.0036318236961960793
13312.0,-0.005044862627983093
14336.0,-0.0018067114287987351
end
