version,3.0
numOfCh,1
type,point
parent_name,40-cuts
ch_type,1_1
kcount,1
numberNandB,1
brightnessNandB,1
carpet pos,0
pc,0
Time (ms),CH1 Auto-Correlation
1.0,0.040337175130844116
2.0,0.03722262382507324
3.0,0.034604620188474655
4.0,0.0323273129761219
5.0,0.03025318682193756
6.0,0.028441311791539192
7.0,0.026803836226463318
8.0,0.025340337306261063
9.0,0.02396884746849537
10.0,0.02274145744740963
11.0,0.02165146730840206
12.0,0.020664319396018982
13.0,0.019754642620682716
14.0,0.018974997103214264
15.0,0.018176263198256493
16.0,0.017439909279346466
18.0,0.01612793281674385
20.0,0.014838860370218754
22.0,0.01356741413474083
24.0,0.012382850050926208
26.0,0.011238649487495422
28.0,0.010187703184783459
30.0,0.009157771244645119
32.0,0.008101632818579674
36.0,0.006531428545713425
40.0,0.0052403719164431095
44.0,0.004137641284614801
48.0,0.0034579485654830933
52.0,0.0031276282388716936
56.0,0.0030312351882457733
60.0,0.00285915844142437
64.0,0.0025556867476552725
72.0,0.0025656844954937696
80.0,0.0029925189446657896
88.0,0.002532452344894409
96.0,0.0022119597997516394
104.0,0.002046226290985942
112.0,0.001294427434913814
120.0,0.0007636124501004815
128.0,0.000755262328311801
144.0,0.0012868281919509172
160.0,0.001305798883549869
176.0,0.0003618217306211591
192.0,-0.0004643549909815192
208.0,-1.936665512403124e-06
224.0,0.0003448415664024651
240.0,-0.0006319784442894161
256.0,-0.0008807450067251921
288.0,0.0005088609759695828
320.0,0.00040756151429377496
352.0,-0.0007077092886902392
384.0,0.00025163532700389624
416.0,0.001045598299242556
448.0,0.0006575376610271633
480.0,-0.0021748056169599295
512.0,-0.0022259154357016087
576.0,0.0003704792761709541
640.0,0.0007464680238626897
704.0,-0.0008756118477322161
768.0,-0.0009790410986170173
832.0,0.0008669325616210699
896.0,0.000645641703158617
960.0,0.0013010780094191432
1024.0,0.001014362322166562
1152.0,-0.00024044321617111564
1280.0,0.0010342263849452138
1408.0,-0.0013716892572119832
1536.0,0.0004147411964368075
1664.0,0.0015780595131218433
1792.0,-0.0012929029762744904
1920.0,0.0011248288210481405
2048.0,0.00021555388229899108
2304.0,0.001935908803716302
2560.0,-0.0003661691152956337
2816.0,-0.00020560456323437393
3072.0,0.0008920812397263944
3328.0,0.001150383846834302
3584.0,0.0007598993834108114
3840.0,-0.0005135725368745625
4096.0,-0.001024268800392747
4608.0,-0.0002990910434164107
5120.0,-0.000925591157283634
5632.0,0.0001975074119400233
6144.0,-0.001192673109471798
6656.0,6.178938201628625e-05
7168.0,-0.0012906636111438274
7680.0,-0.0003640680806711316
8192.0,-0.0012014319654554129
9216.0,-0.00045392406173050404
10240.0,7.565100531792268e-05
11264.0,-0.0001130496893892996
12288.0,-9.567126835463569e-05
13312.0,0.00038117979420349
14336.0,0.00029556461959145963
end
