version,3.0
numOfCh,1
type,point
parent_name,40-cuts
ch_type,1_1
kcount,1
numberNandB,1
brightnessNandB,1
carpet pos,0
pc,0
Time (ms),CH1 Auto-Correlation
1.0,0.042424242943525314
2.0,0.038966767489910126
3.0,0.0360480360686779
4.0,0.033526379615068436
5.0,0.03145295009016991
6.0,0.029552588239312172
7.0,0.027685873210430145
8.0,0.02599525824189186
9.0,0.024481013417243958
10.0,0.0232034083455801
11.0,0.022140908986330032
12.0,0.021103544160723686
13.0,0.02016851305961609
14.0,0.019241783767938614
15.0,0.01838664524257183
16.0,0.017662471160292625
18.0,0.016345813870429993
20.0,0.015131545253098011
22.0,0.014086449518799782
24.0,0.012870962731540203
26.0,0.011665103025734425
28.0,0.0104918722063303
30.0,0.009671654552221298
32.0,0.008989245630800724
36.0,0.008337552659213543
40.0,0.00766334030777216
44.0,0.006819548550993204
48.0,0.0059309471398591995
52.0,0.005085876677185297
56.0,0.0046083880588412285
60.0,0.0040268502198159695
64.0,0.003420104505494237
72.0,0.003251740476116538
80.0,0.003754765260964632
88.0,0.003770830575376749
96.0,0.0033653227146714926
104.0,0.0031314215157181025
112.0,0.0025118496268987656
120.0,0.002031630137935281
128.0,0.0015560825122520328
144.0,0.0015144255012273788
160.0,0.001325872726738453
176.0,0.0009343060664832592
192.0,0.00022935304150450975
208.0,-0.0003102098999079317
224.0,-0.0018304744735360146
240.0,-0.0009628035477362573
256.0,0.0005877639050595462
288.0,0.0013191243633627892
320.0,-0.0002462443371769041
352.0,-0.0013250294141471386
384.0,-0.0008095401572063565
416.0,0.0015663946978747845
448.0,0.0029784489888697863
480.0,0.0013247638707980514
512.0,-0.001175813958980143
576.0,-0.0016771634109318256
640.0,-0.0009512736578471959
704.0,-0.0021915582474321127
768.0,-0.0002209546510130167
832.0,-0.000575612299144268
896.0,-7.194412319222465e-05
960.0,-0.0015068869106471539
1024.0,-0.0015480448491871357
1152.0,0.0005164331523701549
1280.0,0.001032913220115006
1408.0,0.0014629719080403447
1536.0,0.0006114030256867409
1664.0,0.0019766404293477535
1792.0,0.0016244793077930808
1920.0,-0.0020878904033452272
2048.0,-0.0008027516305446625
2304.0,-0.0011922362027689815
2560.0,-0.0008030905155465007
2816.0,-0.0004072739102412015
3072.0,0.0017033704789355397
3328.0,0.0007898855837993324
3584.0,-0.0022228907328099012
3840.0,-0.0001231491332873702
4096.0,-0.001489548827521503
4608.0,0.0010657201055437326
5120.0,-0.0010983278043568134
5632.0,-4.5940018026158214e-05
6144.0,0.0013924282975494862
6656.0,-0.0012481983285397291
7168.0,-0.0006280597881413996
7680.0,0.000641309074126184
8192.0,-0.001153217046521604
9216.0,0.000406226929044351
10240.0,-0.0016346594784408808
11264.0,0.0010571221355348825
12288.0,0.0012001978466287255
13312.0,-0.0007419525645673275
14336.0,0.0004891669959761202
end
