version,3.0
numOfCh,1
type,point
parent_name,40-cuts
ch_type,1_1
kcount,1
numberNandB,1
brightnessNandB,1
carpet pos,0
pc,0
Time (ms),CH1 Auto-Correlation
1.0,0.030867308378219604
2.0,0.02866305597126484
3.0,0.026760604232549667
4.0,0.025064053013920784
5.0,0.023567531257867813
6.0,0.02218284271657467
7.0,0.020922210067510605
8.0,0.019818605855107307
9.0,0.01879703253507614
10.0,0.017866328358650208
11.0,0.01699003204703331
12.0,0.016203206032514572
13.0,0.015534940175712109
14.0,0.014983872883021832
15.0,0.014458137564361095
16.0,0.013891350477933884
18.0,0.013052311725914478
20.0,0.012392038479447365
22.0,0.011707681231200695
24.0,0.011044141836464405
26.0,0.010395877063274384
28.0,0.009785989299416542
30.0,0.009288174100220203
32.0,0.008833928033709526
36.0,0.008288555778563023
40.0,0.007848894223570824
44.0,0.007370308507233858
48.0,0.006976141128689051
52.0,0.006363353691995144
56.0,0.005689658224582672
60.0,0.00518285995349288
64.0,0.004473329987376928
72.0,0.003533151000738144
80.0,0.002604876412078738
88.0,0.0021412109490484
96.0,0.002198017667979002
104.0,0.002230130834504962
112.0,0.0020734237041324377
120.0,0.002199111506342888
128.0,0.0022735162638127804
144.0,0.001651447149924934
160.0,0.0018479389837011695
176.0,0.001961665228009224
192.0,0.0017122069839388132
208.0,0.001932658487930894
224.0,0.0013554671313613653
240.0,-3.0037457690923475e-05
256.0,-0.0007667778409086168
288.0,-0.0007987142889760435
320.0,-0.0010342331370338798
352.0,-0.0020884673576802015
384.0,-0.0025913373101502657
416.0,-0.002504579955711961
448.0,-0.0020560775883495808
480.0,-0.0017831563018262386
512.0,-0.0013235061196610332
576.0,-0.0004650187911465764
640.0,7.018735777819529e-05
704.0,0.0012047002092003822
768.0,0.0018181223422288895
832.0,0.002127370098605752
896.0,0.0013263056753203273
960.0,-9.64342416409636e-06
1024.0,-0.00021387591550592333
1152.0,-0.0010091729927808046
1280.0,-0.0011928348103538156
1408.0,-0.0009534437558613718
1536.0,0.001539079356007278
1664.0,0.0027326729614287615
1792.0,0.0009649058920331299
1920.0,0.0007742071757093072
2048.0,-0.0010596091160550714
2304.0,-0.0006852671504020691
2560.0,-0.00022828462533652782
2816.0,0.00023917783983051777
3072.0,-0.0005471338517963886
3328.0,0.0018618666799739003
3584.0,0.0006067492067813873
3840.0,2.4188528186641634e-05
4096.0,-0.00022664440621156245
4608.0,-0.0005089511396363378
5120.0,0.00046548855607397854
5632.0,-0.0005212128744460642
6144.0,-0.00033512755180709064
6656.0,0.0006337457452900708
7168.0,-0.0006360592087730765
7680.0,0.0002723792567849159
8192.0,-0.000744861550629139
9216.0,-0.0004534138133749366
10240.0,-0.00013704417506232858
11264.0,-0.001274451962672174
12288.0,-0.0005206384812481701
13312.0,-0.000705724349245429
14336.0,-0.00034953709109686315
end
