version,3.0
numOfCh,1
type,point
parent_name,40-cuts
ch_type,1_1
kcount,1
numberNandB,1
brightnessNandB,1
carpet pos,0
pc,0
Time (ms),CH1 Auto-Correlation
1.0,0.041807468980550766
2.0,0.03867173567414284
3.0,0.035955898463726044
4.0,0.033535804599523544
5.0,0.03141942247748375
6.0,0.029480164870619774
7.0,0.027750162407755852
8.0,0.026225507259368896
9.0,0.02480948343873024
10.0,0.023546718060970306
11.0,0.022325698286294937
12.0,0.021200697869062424
13.0,0.02031264826655388
14.0,0.019511722028255463
15.0,0.018725037574768066
16.0,0.018107866868376732
18.0,0.016756625846028328
20.0,0.015613069757819176
22.0,0.014558657072484493
24.0,0.013576414436101913
26.0,0.01271834596991539
28.0,0.011951782740652561
30.0,0.011113054119050503
32.0,0.010430041700601578
36.0,0.009101697243750095
40.0,0.007693628780543804
44.0,0.006777475588023663
48.0,0.00597287155687809
52.0,0.005442088935524225
56.0,0.0048126354813575745
60.0,0.004283008631318808
64.0,0.00366228842176497
72.0,0.0027886289171874523
80.0,0.002222213428467512
88.0,0.00155416049528867
96.0,0.001685859402641654
104.0,0.0015817437088117003
112.0,0.0012356365332379937
120.0,0.0006519474554806948
128.0,-0.000847887247800827
144.0,-0.002190581290051341
160.0,-0.002554801758378744
176.0,-0.0027630676049739122
192.0,-0.0016045557567849755
208.0,-0.0007461762870661914
224.0,-0.0007280225399881601
240.0,-0.00036372384056448936
256.0,0.0001294840913033113
288.0,0.000510562036652118
320.0,0.0015371991321444511
352.0,0.001333578722551465
384.0,0.002031198237091303
416.0,0.0017661515157669783
448.0,-0.0004767951322719455
480.0,-0.0007536023040302098
512.0,-2.4766798105702037e-06
576.0,-0.0006458524148911238
640.0,-0.0011293820571154356
704.0,-0.0012001142604276538
768.0,-0.0013869247632101178
832.0,-0.00019241435802541673
896.0,-0.00028565202956087887
960.0,-0.003301007440313697
1024.0,-0.0031369735952466726
1152.0,-0.0017011688323691487
1280.0,-0.0005736256716772914
1408.0,-0.0002906491281464696
1536.0,-0.0006996020092628896
1664.0,0.0017512042541056871
1792.0,0.0002920728293247521
1920.0,0.001004601246677339
2048.0,0.002512480365112424
2304.0,-0.0003443823370616883
2560.0,-0.0010646076407283545
2816.0,-0.001008440158329904
3072.0,-0.0022952035069465637
3328.0,-0.00046882685273885727
3584.0,0.0009670547442510724
3840.0,0.0013153221225365996
4096.0,0.0021805805154144764
4608.0,-3.6251763958716765e-05
5120.0,0.0003362086717970669
5632.0,0.00011762640497181565
6144.0,-0.0005539676058106124
6656.0,-0.0007792338728904724
7168.0,0.00014316783926915377
7680.0,0.000918119796551764
8192.0,-0.00014428731810767204
9216.0,0.0017583636799827218
10240.0,-0.0018067237688228488
11264.0,0.0005711799021810293
12288.0,-0.001074984553270042
13312.0,0.00214677513577044
14336.0,-0.0003541136684361845
end
