version,3.0
numOfCh,1
type,point
parent_name,40-cuts
ch_type,1_1
kcount,1
numberNandB,1
brightnessNandB,1
carpet pos,0
pc,0
Time (ms),CH1 Auto-Correlation
1.0,0.08032543957233429
2.0,0.07322483509778976
3.0,0.06724783033132553
4.0,0.06231004744768143
5.0,0.058054644614458084
6.0,0.05447579175233841
7.0,0.05110756307840347
8.0,0.04777386412024498
9.0,0.04482969269156456
10.0,0.042262785136699677
11.0,0.04001167044043541
12.0,0.03801245614886284
13.0,0.03604502230882645
14.0,0.03441774472594261
15.0,0.03293200582265854
16.0,0.03134939819574356
18.0,0.0287228561937809
20.0,0.026409178972244263
22.0,0.024506062269210815
24.0,0.02318166382610798
26.0,0.021578632295131683
28.0,0.020140161737799644
30.0,0.019158873707056046
32.0,0.017966685816645622
36.0,0.015587104484438896
40.0,0.01325278077274561
44.0,0.011400301940739155
48.0,0.010742881335318089
52.0,0.010327965021133423
56.0,0.010447178967297077
60.0,0.011056799441576004
64.0,0.011266130022704601
72.0,0.01056091208010912
80.0,0.010318879038095474
88.0,0.01060385163873434
96.0,0.009543150663375854
104.0,0.007709703873842955
112.0,0.006962364073842764
120.0,0.007344994228333235
128.0,0.007154562976211309
144.0,0.006116973236203194
160.0,0.005712082609534264
176.0,0.004163447767496109
192.0,0.0022102375514805317
208.0,0.0009440360590815544
224.0,0.0033871219493448734
240.0,0.003860673401504755
256.0,0.0050691766664385796
288.0,0.0034138013143092394
320.0,-0.00030626330408267677
352.0,-0.002310080686584115
384.0,-0.003907852806150913
416.0,-0.002410010201856494
448.0,-0.003720240667462349
480.0,-0.005041686352342367
512.0,-0.0036405734717845917
576.0,-0.002469657687470317
640.0,-0.002442541066557169
704.0,0.0009186366223730147
768.0,0.0015226337127387524
832.0,0.0009543312480673194
896.0,0.00112189631909132
960.0,-0.001736457459628582
1024.0,0.002206035889685154
1152.0,0.00044195502414368093
1280.0,-0.0007439410546794534
1408.0,-0.0018752121832221746
1536.0,-0.003907990641891956
1664.0,-0.0023424432147294283
1792.0,-0.00032922864193096757
1920.0,0.004733651410788298
2048.0,0.000871636439114809
2304.0,0.0022461048793047667
2560.0,0.0006876651314087212
2816.0,-0.003069540485739708
3072.0,-0.0006320268730632961
3328.0,-0.0005642818287014961
3584.0,-0.0037739260587841272
3840.0,-0.00103719811886549
4096.0,-0.00373253645375371
4608.0,0.0020743163768202066
5120.0,-0.001136471750214696
5632.0,0.002028170507401228
6144.0,-0.003323501441627741
6656.0,0.0033811908215284348
7168.0,-0.0026829696726053953
7680.0,0.0017966381274163723
8192.0,-0.004153331276029348
9216.0,-0.000545587798114866
10240.0,4.839270332013257e-05
11264.0,0.0016269116895273328
12288.0,-0.0005747944815084338
13312.0,0.003025332000106573
14336.0,-0.0029550744220614433
end
