version,3.0
numOfCh,1
type,point
parent_name,40-cuts
ch_type,1_1
kcount,1
numberNandB,1
brightnessNandB,1
carpet pos,0
pc,0
Time (ms),CH1 Auto-Correlation
1.0,0.09197783470153809
2.0,0.08491294085979462
3.0,0.07897582650184631
4.0,0.07373452186584473
5.0,0.06919681280851364
6.0,0.06497190147638321
7.0,0.061221491545438766
8.0,0.057865750044584274
9.0,0.05460718274116516
10.0,0.0515483096241951
11.0,0.048884157091379166
12.0,0.04647877439856529
13.0,0.0441533662378788
14.0,0.042204372584819794
15.0,0.04040201008319855
16.0,0.03856823593378067
18.0,0.03557361289858818
20.0,0.033018629997968674
22.0,0.030807089060544968
24.0,0.02873465046286583
26.0,0.026843968778848648
28.0,0.025364026427268982
30.0,0.024102939292788506
32.0,0.022638915106654167
36.0,0.020520927384495735
40.0,0.018479375168681145
44.0,0.016017381101846695
48.0,0.014020157046616077
52.0,0.011824936605989933
56.0,0.009832631796598434
60.0,0.008767673745751381
64.0,0.008222413249313831
72.0,0.009122039191424847
80.0,0.009202858433127403
88.0,0.00992593728005886
96.0,0.01080491952598095
104.0,0.009162445552647114
112.0,0.008549370802938938
120.0,0.0073316339403390884
128.0,0.0075447168201208115
144.0,0.00868454109877348
160.0,0.008557801134884357
176.0,0.008140209130942822
192.0,0.004580299369990826
208.0,0.00046417611883953214
224.0,0.0005267428350634873
240.0,0.0020219215657562017
256.0,0.004337244667112827
288.0,0.0019334228709340096
320.0,0.0016622206894680858
352.0,0.002172181149944663
384.0,-0.0005814498290419579
416.0,0.0008789837011136115
448.0,0.0009960486786440015
480.0,-0.000856010417919606
512.0,0.0003920624731108546
576.0,-0.00505134416744113
640.0,-0.0006661956431344151
704.0,-0.0017343785148113966
768.0,-0.0028679303359240294
832.0,-0.0038350545801222324
896.0,-0.006164136808365583
960.0,-0.004618796985596418
1024.0,-0.0037539054173976183
1152.0,-0.003910002298653126
1280.0,-0.0005677234148606658
1408.0,-0.0022110934369266033
1536.0,0.0010937306797131896
1664.0,0.004697241820394993
1792.0,-0.002076775999739766
1920.0,-0.0029341287445276976
2048.0,-0.0014724524226039648
2304.0,-0.0048078675754368305
2560.0,-0.003142682369798422
2816.0,-0.00034624707768671215
3072.0,0.0023951923940330744
3328.0,0.004405421204864979
3584.0,0.006932220421731472
3840.0,0.0031008413061499596
4096.0,-0.0022210341412574053
4608.0,-0.002295308979228139
5120.0,-0.0010599943343549967
5632.0,0.002074270276352763
6144.0,-0.0029486701823771
6656.0,-0.0013645918807014823
7168.0,0.005872589536011219
7680.0,-0.004445429891347885
8192.0,0.0006779900868423283
9216.0,-0.00046471014502458274
10240.0,-0.0005057917442172766
11264.0,0.0002954424126073718
12288.0,-3.069764352403581e-05
13312.0,-4.6685654524480924e-05
14336.0,-0.0005378256319090724
end
