version,3.0
numOfCh,1
type,point
parent_name,40-cuts
ch_type,1_1
kcount,1
numberNandB,1
brightnessNandB,1
carpet pos,0
pc,0
Time (ms),CH1 Auto-Correlation
1.0,0.08739681541919708
2.0,0.08047008514404297
3.0,0.07428174465894699
4.0,0.06884585320949554
5.0,0.06402801722288132
6.0,0.059782724827528
7.0,0.055942513048648834
8.0,0.05254010111093521
9.0,0.04954170063138008
10.0,0.04677349701523781
11.0,0.04412413388490677
12.0,0.04185152053833008
13.0,0.03981945291161537
14.0,0.037793271243572235
15.0,0.035920217633247375
16.0,0.03434157371520996
18.0,0.031425442546606064
20.0,0.02948765642940998
22.0,0.02762383595108986
24.0,0.02604020945727825
26.0,0.024796491488814354
28.0,0.02409614808857441
30.0,0.023309314623475075
32.0,0.022083686664700508
36.0,0.020004089921712875
40.0,0.01816084422171116
44.0,0.017278246581554413
48.0,0.015876082703471184
52.0,0.015180351212620735
56.0,0.0135832903906703
60.0,0.012547818012535572
64.0,0.011533933691680431
72.0,0.010762102901935577
80.0,0.00987788662314415
88.0,0.00865867082029581
96.0,0.008210582658648491
104.0,0.005880025681108236
112.0,0.003503819927573204
120.0,0.001407272880896926
128.0,-0.00017417823255527765
144.0,0.0006601941422559321
160.0,0.0004537463828455657
176.0,-0.00036369613371789455
192.0,0.003814351512119174
208.0,0.00412649754434824
224.0,0.0032399268820881844
240.0,0.0029499607626348734
256.0,0.003703425172716379
288.0,0.0026528756134212017
320.0,0.001979754539206624
352.0,0.002052136231213808
384.0,0.0015896669356152415
416.0,0.001651390572078526
448.0,-0.0007794991252012551
480.0,-0.0010381166357547045
512.0,-0.0018305041594430804
576.0,0.00010026047675637528
640.0,-0.0010244949953630567
704.0,0.0020457517821341753
768.0,0.004508896265178919
832.0,-0.001330399652943015
896.0,0.0022690955083817244
960.0,0.003634190186858177
1024.0,8.66729678818956e-05
1152.0,-0.0027750947047024965
1280.0,-0.0024205842055380344
1408.0,0.0005745628732256591
1536.0,-7.681792340008542e-05
1664.0,0.002787543460726738
1792.0,0.00031154105090536177
1920.0,-0.0016281467396765947
2048.0,0.002308720489963889
2304.0,0.0025544180534780025
2560.0,-0.0020946431905031204
2816.0,0.0006413875380530953
3072.0,0.00011786858522100374
3328.0,-0.0012252758024260402
3584.0,-0.0022857030853629112
3840.0,-0.0008979777339845896
4096.0,-0.0019064306979998946
4608.0,-0.0036422957200556993
5120.0,-0.0026107134763151407
5632.0,-0.0023425014223903418
6144.0,-0.0023399607744067907
6656.0,0.0005711168050765991
7168.0,-0.00019388376676943153
7680.0,-0.0009251476731151342
8192.0,0.0018230065470561385
9216.0,0.0016292039072141051
10240.0,0.003996115643531084
11264.0,-0.001571745378896594
12288.0,0.0018082356546074152
13312.0,-0.0022712512873113155
14336.0,-0.004072331823408604
end
