version,3.0
numOfCh,1
type,point
parent_name,40-cuts
ch_type,1_1
kcount,1
numberNandB,1
brightnessNandB,1
carpet pos,0
pc,0
Time (ms),CH1 Auto-Correlation
1.0,0.042468197643756866
2.0,0.03926467150449753
3.0,0.03647461533546448
4.0,0.0340622179210186
5.0,0.031913354992866516
6.0,0.030005134642124176
7.0,0.028288107365369797
8.0,0.02676467038691044
9.0,0.02536548115313053
10.0,0.024087682366371155
11.0,0.022891225293278694
12.0,0.02180282026529312
13.0,0.020825926214456558
14.0,0.01994820311665535
15.0,0.019154196605086327
16.0,0.018518175929784775
18.0,0.017298825085163116
20.0,0.016345404088497162
22.0,0.015409333631396294
24.0,0.014361240901052952
26.0,0.013346312567591667
28.0,0.012500235810875893
30.0,0.011862016282975674
32.0,0.011182136833667755
36.0,0.010142996907234192
40.0,0.009309574961662292
44.0,0.008519144728779793
48.0,0.007722858339548111
52.0,0.00707785040140152
56.0,0.00676437932997942
60.0,0.006599350366741419
64.0,0.006323748268187046
72.0,0.005486864596605301
80.0,0.005323129240423441
88.0,0.005643272306770086
96.0,0.004225378390401602
104.0,0.0032403133809566498
112.0,0.002853512531146407
120.0,0.002478482201695442
128.0,0.002386990701779723
144.0,0.0023404783569276333
160.0,0.0015838691033422947
176.0,0.0005980927380733192
192.0,-0.00016297792899422348
208.0,-0.0005022954428568482
224.0,-0.0007161504472605884
240.0,-0.0012134097050875425
256.0,-0.0014290792169049382
288.0,0.00019199721282348037
320.0,0.001048294478096068
352.0,0.0004764710320159793
384.0,0.0010513998568058014
416.0,0.0006622553919441998
448.0,0.0008641764870844781
480.0,0.002229648642241955
512.0,0.001469982322305441
576.0,0.0013445907970890403
640.0,0.001608916325494647
704.0,-7.493964221794158e-05
768.0,-0.0009951991960406303
832.0,-0.002127036452293396
896.0,-0.0026969630271196365
960.0,-0.0005249020177870989
1024.0,-0.0004090646398253739
1152.0,0.0015843233559280634
1280.0,0.0014322407077997923
1408.0,0.001268734224140644
1536.0,-0.0010003969073295593
1664.0,-0.001476521254517138
1792.0,-0.0014766849344596267
1920.0,-0.0003946410433854908
2048.0,-0.001250885776244104
2304.0,-0.0007030835258774459
2560.0,-1.3628442502522375e-05
2816.0,0.0006160314660519361
3072.0,-0.00042084293090738356
3328.0,-0.0010298059787601233
3584.0,-0.0012959700543433428
3840.0,-0.0001488790294388309
4096.0,0.001025806413963437
4608.0,-0.0007965887198224664
5120.0,-0.0001135021448135376
5632.0,0.000180201226612553
6144.0,-0.001128604868426919
6656.0,0.0011019546072930098
7168.0,-0.0002671134425327182
7680.0,-0.000948466535191983
8192.0,0.0009950591484084725
9216.0,0.0006019762367941439
10240.0,0.0003524401399772614
11264.0,-0.0008977007819339633
12288.0,-0.0035642399452626705
13312.0,0.002146951388567686
14336.0,-0.0019804928451776505
end
