version,3.0
numOfCh,1
type,point
parent_name,40-cuts
ch_type,1_1
kcount,1
numberNandB,1
brightnessNandB,1
carpet pos,0
pc,0
Time (ms),CH1 Auto-Correlation
1.0,0.04117031395435333
2.0,0.0379301942884922
3.0,0.03522321209311485
4.0,0.0328456312417984
5.0,0.03076544590294361
6.0,0.028878508135676384
7.0,0.027209650725126266
8.0,0.025799598544836044
9.0,0.024490635842084885
10.0,0.02330998331308365
11.0,0.022169003263115883
12.0,0.021076302975416183
13.0,0.020079558715224266
14.0,0.019183438271284103
15.0,0.018372226506471634
16.0,0.017648445442318916
18.0,0.0165032297372818
20.0,0.015469597652554512
22.0,0.014495601877570152
24.0,0.0136678172275424
26.0,0.0127435103058815
28.0,0.011984680779278278
30.0,0.011270356364548206
32.0,0.010731280781328678
36.0,0.010182083584368229
40.0,0.00981100369244814
44.0,0.00964502152055502
48.0,0.009388170205056667
52.0,0.009094597771763802
56.0,0.008903896436095238
60.0,0.00876730214804411
64.0,0.008451559580862522
72.0,0.00783038605004549
80.0,0.007315282244235277
88.0,0.007002345751971006
96.0,0.006577374879270792
104.0,0.005228528752923012
112.0,0.0046546743251383305
120.0,0.0041846963576972485
128.0,0.003503125626593828
144.0,0.003939184360206127
160.0,0.003172887722030282
176.0,0.003080076305195689
192.0,0.0023451894521713257
208.0,0.0023824761155992746
224.0,0.0015272574964910746
240.0,0.0005512037314474583
256.0,0.00013065474922768772
288.0,-0.00039336137706413865
320.0,0.0005859177326783538
352.0,0.0008865077397786081
384.0,0.001695173210464418
416.0,0.002806459553539753
448.0,0.00263452110812068
480.0,0.0029264437034726143
512.0,0.0025735541712492704
576.0,0.0013716163812205195
640.0,-8.995907410280779e-05
704.0,-0.0023543413262814283
768.0,-0.0019205543212592602
832.0,-0.0028635277412831783
896.0,-0.002357691992074251
960.0,-0.0007635561632923782
1024.0,-0.000903773820027709
1152.0,-0.000995194655843079
1280.0,-0.002393003087490797
1408.0,-0.0009342922130599618
1536.0,0.0001611797051737085
1664.0,-8.31346696941182e-05
1792.0,-0.0002359312929911539
1920.0,-0.0005949822370894253
2048.0,0.0016050180420279503
2304.0,-0.0021720726508647203
2560.0,-6.788842438254505e-05
2816.0,-0.0009776537772268057
3072.0,0.0008322189096361399
3328.0,-0.0008121341816149652
3584.0,0.0006172431167215109
3840.0,-0.0009548789239488542
4096.0,-0.00020595814567059278
4608.0,-0.0002926674496848136
5120.0,-0.0008521306444890797
5632.0,0.0006904402398504317
6144.0,0.00228400737978518
6656.0,-0.00010426147491671145
7168.0,-0.002079941565170884
7680.0,-0.0011237830622121692
8192.0,-0.0008116450626403093
9216.0,-0.0014457515208050609
10240.0,0.0012666321126744151
11264.0,0.00042488754843361676
12288.0,0.001925383578054607
13312.0,-0.0024700122885406017
14336.0,0.0009871070506051183
end
