version,3.0
numOfCh,1
type,point
parent_name,40-cuts
ch_type,1_1
kcount,1
numberNandB,1
brightnessNandB,1
carpet pos,0
pc,0
Time (ms),CH1 Auto-Correlation
1.0,0.09502124041318893
2.0,0.08831758052110672
3.0,0.08257594704627991
4.0,0.07746075838804245
5.0,0.07276809215545654
6.0,0.0685918778181076
7.0,0.06490083038806915
8.0,0.06150941550731659
9.0,0.058518871665000916
10.0,0.05579109862446785
11.0,0.05306187644600868
12.0,0.050583139061927795
13.0,0.048302628099918365
14.0,0.0463252067565918
15.0,0.04437302425503731
16.0,0.04246014729142189
18.0,0.039049893617630005
20.0,0.03605996072292328
22.0,0.03365546092391014
24.0,0.03171417489647865
26.0,0.02986880950629711
28.0,0.02808203361928463
30.0,0.02666986733675003
32.0,0.025213520973920822
36.0,0.022786013782024384
40.0,0.020333053544163704
44.0,0.018252789974212646
48.0,0.01706816628575325
52.0,0.0168035589158535
56.0,0.016302498057484627
60.0,0.015686774626374245
64.0,0.015441595576703548
72.0,0.014414974488317966
80.0,0.012621565721929073
88.0,0.010785779915750027
96.0,0.009767856448888779
104.0,0.009873206727206707
112.0,0.008913828991353512
120.0,0.00618426688015461
128.0,0.00461944006383419
144.0,0.0017325060907751322
160.0,0.003306006547063589
176.0,0.006396069657057524
192.0,0.004448233637958765
208.0,0.0032605635933578014
224.0,0.0016433561686426401
240.0,0.0025356237310916185
256.0,0.0028374618850648403
288.0,0.0014015856431797147
320.0,0.002215823857113719
352.0,-0.0015005174791440368
384.0,-0.002160577569156885
416.0,0.0017836395418271422
448.0,0.0006056978018023074
480.0,4.1162187699228525e-05
512.0,0.0006578834727406502
576.0,-0.0016846588114276528
640.0,0.0017366391839459538
704.0,0.002080588834360242
768.0,0.0017033793264999986
832.0,-0.0029629969503730536
896.0,-0.001703915768302977
960.0,0.00043233466567471623
1024.0,0.002385913161560893
1152.0,-0.00310007412917912
1280.0,-0.0025343054439872503
1408.0,0.0008921084809117019
1536.0,-0.0006926671485416591
1664.0,0.0010575228370726109
1792.0,0.001224638894200325
1920.0,-0.0007548171561211348
2048.0,0.0015665966784581542
2304.0,-0.0028246769215911627
2560.0,-0.00428191339597106
2816.0,-0.003926911856979132
3072.0,-0.00032302591716870666
3328.0,-0.00042281983769498765
3584.0,-0.00468245567753911
3840.0,-0.0027677405159920454
4096.0,-0.0006681422237306833
4608.0,0.0024343887344002724
5120.0,-0.0018363897688686848
5632.0,0.0008864111732691526
6144.0,0.004447737708687782
6656.0,0.003970972262322903
7168.0,-0.006817853078246117
7680.0,0.001968596363440156
8192.0,0.0014470870373770595
9216.0,-0.00047188231837935746
10240.0,-0.0020847932901233435
11264.0,-0.0008441847749054432
12288.0,0.003016934497281909
13312.0,-0.004287215881049633
14336.0,0.0027830498293042183
end
