version,3.0
numOfCh,1
type,point
parent_name,40-cuts
ch_type,1_1
kcount,1
numberNandB,1
brightnessNandB,1
carpet pos,0
pc,0
Time (ms),CH1 Auto-Correlation
1.0,0.09171520173549652
2.0,0.08417010307312012
3.0,0.07768867909908295
4.0,0.07188782095909119
5.0,0.06694857031106949
6.0,0.06279124319553375
7.0,0.05904928967356682
8.0,0.05580606684088707
9.0,0.05298112705349922
10.0,0.05030159652233124
11.0,0.04803698882460594
12.0,0.04587734490633011
13.0,0.04390989989042282
14.0,0.041965361684560776
15.0,0.04038409888744354
16.0,0.03901182487607002
18.0,0.03666708990931511
20.0,0.03472955897450447
22.0,0.03278343379497528
24.0,0.030747102573513985
26.0,0.02945169247686863
28.0,0.028185542672872543
30.0,0.02655060589313507
32.0,0.024782869964838028
36.0,0.020353037863969803
40.0,0.017185408622026443
44.0,0.014889617450535297
48.0,0.013390394859015942
52.0,0.01247425377368927
56.0,0.01166562270373106
60.0,0.010961784981191158
64.0,0.009492066688835621
72.0,0.0052789063192903996
80.0,0.0029934511985629797
88.0,0.0012194996234029531
96.0,-0.0005838648066855967
104.0,-0.0018734449986368418
112.0,-0.0023299511522054672
120.0,-0.0029553186614066362
128.0,-0.0020515474025160074
144.0,0.0001233640796272084
160.0,0.002195181557908654
176.0,0.004692673217505217
192.0,0.006263009738177061
208.0,0.006369769107550383
224.0,0.005834659561514854
240.0,0.005370987579226494
256.0,0.0029254977125674486
288.0,-0.0017674429109320045
320.0,-0.0017845060210675001
352.0,0.0023855858016759157
384.0,0.0011343982769176364
416.0,0.0017283385386690497
448.0,-1.331034491158789e-05
480.0,-0.0004924634122289717
512.0,-0.0013225432485342026
576.0,-0.0014538191026076674
640.0,-0.002556783612817526
704.0,0.0023977388627827168
768.0,0.0014615050749853253
832.0,-0.0009438219713047147
896.0,0.002219930524006486
960.0,0.0021606602240353823
1024.0,0.00019351698574610054
1152.0,-0.0001348034420516342
1280.0,0.004757089540362358
1408.0,0.003760359948500991
1536.0,0.0021145029459148645
1664.0,0.005079750902950764
1792.0,-0.001040194882079959
1920.0,0.0043604676611721516
2048.0,-0.0017912284238263965
2304.0,0.0019114287570118904
2560.0,0.0034209841396659613
2816.0,0.0010390238603577018
3072.0,0.0003827672335319221
3328.0,-0.00015143697964958847
3584.0,0.0006277376669459045
3840.0,0.0007272627553902566
4096.0,0.0013796054990962148
4608.0,-0.0017740982584655285
5120.0,0.0014107294846326113
5632.0,-0.0018068780191242695
6144.0,-0.0036715588066726923
6656.0,0.004740381147712469
7168.0,-0.006036184262484312
7680.0,-0.0016518071061000228
8192.0,0.00025118477060459554
9216.0,-0.0023741431068629026
10240.0,-0.0024805020075291395
11264.0,-0.0036810855381190777
12288.0,-0.003196840640157461
13312.0,-0.0008768159314058721
14336.0,-0.0006447582272812724
end
