version,3.0
numOfCh,1
type,point
parent_name,40-cuts
ch_type,1_1
kcount,1
numberNandB,1
brightnessNandB,1
carpet pos,0
pc,0
Time (ms),CH1 Auto-Correlation
1.0,0.028007550165057182
2.0,0.02575843781232834
3.0,0.02381838485598564
4.0,0.022127825766801834
5.0,0.020674722269177437
6.0,0.019398706033825874
7.0,0.01827320083975792
8.0,0.017245911061763763
9.0,0.016283174976706505
10.0,0.015339460223913193
11.0,0.014401410706341267
12.0,0.013524807058274746
13.0,0.012720807455480099
14.0,0.011994171887636185
15.0,0.011315103620290756
16.0,0.010684004984796047
18.0,0.009552896954119205
20.0,0.00857734214514494
22.0,0.007826686836779118
24.0,0.007066244725137949
26.0,0.006558998487889767
28.0,0.006103581748902798
30.0,0.005629797466099262
32.0,0.005312723573297262
36.0,0.004753863904625177
40.0,0.004269021097570658
44.0,0.003913487307727337
48.0,0.003781093517318368
52.0,0.0036007771268486977
56.0,0.0033137977588921785
60.0,0.0028759611304849386
64.0,0.0026502972468733788
72.0,0.002767984988167882
80.0,0.002475124318152666
88.0,0.0020182256121188402
96.0,0.0015626030508428812
104.0,0.001198138459585607
112.0,0.000683323887642473
120.0,0.0005504107684828341
128.0,0.0007254690281115472
144.0,0.0007209480390883982
160.0,0.0006591081037186086
176.0,0.001007217331789434
192.0,0.0006104925996623933
208.0,-0.00025915750302374363
224.0,-0.0013256837846711278
240.0,-0.0014744964428246021
256.0,-0.000618570193182677
288.0,-0.0006079177255742252
320.0,-0.001264273887500167
352.0,-4.5968059566803277e-05
384.0,0.001220185775309801
416.0,0.0009511163807474077
448.0,0.0006266058189794421
480.0,-0.00013482559006661177
512.0,-0.00036435553920455277
576.0,-0.0005414094193838537
640.0,-0.0003249915025662631
704.0,-0.00018504854233469814
768.0,0.0004128144064452499
832.0,0.0010408834787085652
896.0,-0.0005329988780431449
960.0,0.001588443643413484
1024.0,0.0006575562874786556
1152.0,-2.3472857719752938e-05
1280.0,1.136311129812384e-05
1408.0,0.0007028824766166508
1536.0,-0.0005210440722294152
1664.0,-0.0013112437445670366
1792.0,-0.0001614017819520086
1920.0,0.00025943611399270594
2048.0,-0.0002394913462921977
2304.0,0.00039238037425093353
2560.0,-0.0015365537256002426
2816.0,-0.0008252063416875899
3072.0,0.0004781946772709489
3328.0,0.00019026277004741132
3584.0,-0.00015124466153793037
3840.0,-0.0007570954039692879
4096.0,0.00018952012760564685
4608.0,-0.0003745499125216156
5120.0,-0.0006838736007921398
5632.0,-0.0006759082898497581
6144.0,-4.9805148591985926e-05
6656.0,-8.279054600279778e-05
7168.0,0.0005940129631198943
7680.0,0.0006142628844827414
8192.0,0.0006381635903380811
9216.0,-0.0001465405075578019
10240.0,-0.00013973470777273178
11264.0,-9.643998782848939e-05
12288.0,-7.937285408843309e-05
13312.0,-0.0007494321325793862
14336.0,0.0003410817007534206
end
