version,3.0
numOfCh,1
type,point
parent_name,40-cuts
ch_type,1_1
kcount,1
numberNandB,1
brightnessNandB,1
carpet pos,0
pc,0
Time (ms),CH1 Auto-Correlation
1.0,0.0877399891614914
2.0,0.08057717978954315
3.0,0.07449179887771606
4.0,0.06904838979244232
5.0,0.06422960013151169
6.0,0.06003792583942413
7.0,0.056344542652368546
8.0,0.053041938692331314
9.0,0.05017133429646492
10.0,0.047561150044202805
11.0,0.045320119708776474
12.0,0.04321003332734108
13.0,0.04129986837506294
14.0,0.03929569199681282
15.0,0.0375971645116806
16.0,0.036011431366205215
18.0,0.03326454758644104
20.0,0.030824486166238785
22.0,0.028374796733260155
24.0,0.026042912155389786
26.0,0.023940661922097206
28.0,0.02233603410422802
30.0,0.021215548738837242
32.0,0.020216314122080803
36.0,0.017865212634205818
40.0,0.015542946755886078
44.0,0.01348812784999609
48.0,0.011623581871390343
52.0,0.010281011462211609
56.0,0.009816849604249
60.0,0.009839524514973164
64.0,0.009750628843903542
72.0,0.008675110526382923
80.0,0.008146664127707481
88.0,0.008875628933310509
96.0,0.009707782417535782
104.0,0.009571476839482784
112.0,0.008973971009254456
120.0,0.006620229221880436
128.0,0.004164325539022684
144.0,0.001815660623833537
160.0,-0.0006422374281100929
176.0,0.0021906481124460697
192.0,0.0032261644955724478
208.0,0.0029661846347153187
224.0,0.00370386173017323
240.0,0.0037152525037527084
256.0,0.0018253801390528679
288.0,0.005300591234117746
320.0,0.003383757546544075
352.0,0.0009434870444238186
384.0,0.00027896303799934685
416.0,0.0026831915602087975
448.0,0.002765658777207136
480.0,-0.0017266968498006463
512.0,-0.0006207966944202781
576.0,0.0010775092523545027
640.0,0.0005302876234054565
704.0,-0.0013807439245283604
768.0,-0.0006617505569010973
832.0,-0.0003196443722117692
896.0,-0.002249254612252116
960.0,-0.0015606299275532365
1024.0,-0.00629971269518137
1152.0,-0.001980589237064123
1280.0,-0.0003487306530587375
1408.0,-0.000716113019734621
1536.0,0.002595194848254323
1664.0,0.0006230250000953674
1792.0,-0.001514366245828569
1920.0,-0.0004961119266226888
2048.0,0.002201240975409746
2304.0,0.0029643219895660877
2560.0,0.0019089921843260527
2816.0,0.0017929644091054797
3072.0,0.00036767206620424986
3328.0,-3.9991446101339534e-05
3584.0,0.002611727686598897
3840.0,0.0002819586079567671
4096.0,0.0004778908332809806
4608.0,-0.001772216521203518
5120.0,-0.003565521677955985
5632.0,0.0017672355752438307
6144.0,0.003183969296514988
6656.0,-0.0025514315348118544
7168.0,-0.005269315559417009
7680.0,-0.0026928759180009365
8192.0,-0.0014895382337272167
9216.0,-0.0007022939971648157
10240.0,-0.0014434977201744914
11264.0,-0.0008145950268954039
12288.0,0.0022869284730404615
13312.0,-0.0021488331258296967
14336.0,0.001217432552948594
end
