version,3.0
numOfCh,1
type,point
parent_name,40-cuts
ch_type,1_1
kcount,1
numberNandB,1
brightnessNandB,1
carpet pos,0
pc,0
Time (ms),CH1 Auto-Correlation
1.0,0.04193446412682533
2.0,0.0386335514485836
3.0,0.03583410754799843
4.0,0.03337377682328224
5.0,0.03125806525349617
6.0,0.029343293979763985
7.0,0.027761520817875862
8.0,0.026281673461198807
9.0,0.02495831996202469
10.0,0.023847080767154694
11.0,0.022850949317216873
12.0,0.021929137408733368
13.0,0.021046902984380722
14.0,0.020301269367337227
15.0,0.019482679665088654
16.0,0.018671728670597076
18.0,0.017027292400598526
20.0,0.015466732904314995
22.0,0.014349079690873623
24.0,0.013468571938574314
26.0,0.012610558420419693
28.0,0.011715440079569817
30.0,0.010925913229584694
32.0,0.010165701620280743
36.0,0.008780891075730324
40.0,0.00781390629708767
44.0,0.007033022120594978
48.0,0.0058659459464251995
52.0,0.0044972761534154415
56.0,0.003048208076506853
60.0,0.0017173804808408022
64.0,0.0010145155247300863
72.0,0.000971393077634275
80.0,0.0007054929155856371
88.0,0.0011578905396163464
96.0,0.0011714363936334848
104.0,0.0011581182479858398
112.0,0.000395818380638957
120.0,0.00033131983946077526
128.0,0.0003774225478991866
144.0,-0.0001955078769242391
160.0,-0.0002450481697451323
176.0,-0.0004181569966021925
192.0,0.0003168753464706242
208.0,0.0008647771901451051
224.0,0.0016387631185352802
240.0,0.00221927254460752
256.0,0.002927192719653249
288.0,0.0021858662366867065
320.0,0.0002130109496647492
352.0,-0.0003954374697059393
384.0,0.0012900644214823842
416.0,0.0013477879110723734
448.0,0.0023335814476013184
480.0,0.002255030907690525
512.0,0.0022408724762499332
576.0,0.001262106467038393
640.0,-1.8888309568865225e-05
704.0,-0.002697319258004427
768.0,-0.0007804533815942705
832.0,-0.0016885757213458419
896.0,-0.0016783139435574412
960.0,-0.0013522400986403227
1024.0,5.767344555351883e-05
1152.0,-0.001368461293168366
1280.0,-0.00205080839805305
1408.0,-0.0023768923711031675
1536.0,-0.0016302983276546001
1664.0,-0.0010582567192614079
1792.0,-0.0011360932840034366
1920.0,-0.001612490857951343
2048.0,-0.0003203975211363286
2304.0,0.001046026824042201
2560.0,0.0017085231374949217
2816.0,0.0009210401913151145
3072.0,0.0009798227110877633
3328.0,0.001365741714835167
3584.0,-0.0003317197260912508
3840.0,-0.0015155230648815632
4096.0,-0.0021916127298027277
4608.0,-0.0008749124244786799
5120.0,0.0007131536840461195
5632.0,0.001453173579648137
6144.0,0.0018601281335577369
6656.0,-0.0006021751323714852
7168.0,-0.0021261763758957386
7680.0,-0.0019423796329647303
8192.0,0.00039887268212623894
9216.0,0.0005709878751076758
10240.0,-0.00012144052743678913
11264.0,0.0004316958657000214
12288.0,-0.0004840521141886711
13312.0,-0.001351326354779303
14336.0,3.064102929783985e-05
end
