version,3.0
numOfCh,1
type,point
parent_name,40-cuts
ch_type,1_1
kcount,1
numberNandB,1
brightnessNandB,1
carpet pos,0
pc,0
Time (ms),CH1 Auto-Correlation
1.0,0.04122506454586983
2.0,0.03778684511780739
3.0,0.0347781777381897
4.0,0.03214576840400696
5.0,0.029972614720463753
6.0,0.028031164780259132
7.0,0.02625446580350399
8.0,0.024655615910887718
9.0,0.023242119699716568
10.0,0.02188875526189804
11.0,0.020757999271154404
12.0,0.019733212888240814
13.0,0.018806297332048416
14.0,0.017884675413370132
15.0,0.017025452107191086
16.0,0.016267189756035805
18.0,0.01498884242027998
20.0,0.01387275755405426
22.0,0.012885686941444874
24.0,0.012071680277585983
26.0,0.011283802799880505
28.0,0.010538474656641483
30.0,0.00995570607483387
32.0,0.009484590962529182
36.0,0.00895718764513731
40.0,0.008451300673186779
44.0,0.007890447974205017
48.0,0.007534927688539028
52.0,0.007250627037137747
56.0,0.006884271278977394
60.0,0.005915206391364336
64.0,0.004904717206954956
72.0,0.0036392896436154842
80.0,0.002650404116138816
88.0,0.0027857236564159393
96.0,0.0029144608415663242
104.0,0.002875041915103793
112.0,0.0027626536320894957
120.0,0.0029869936406612396
128.0,0.002835232764482498
144.0,0.002146973507478833
160.0,0.0021821327973157167
176.0,0.002735394285991788
192.0,0.0019247113959863782
208.0,0.0020442067179828882
224.0,0.0026012705639004707
240.0,0.0024059757124632597
256.0,0.0013893021969124675
288.0,-0.00011607555643422529
320.0,-0.0003074726846534759
352.0,-0.0005643087206408381
384.0,-0.00034553385921753943
416.0,-0.001119442516937852
448.0,-0.0005447119474411011
480.0,-0.00031866037170402706
512.0,-0.0015508962096646428
576.0,5.657872316078283e-05
640.0,0.0001639821712160483
704.0,-0.0008742870995774865
768.0,-0.000457107147667557
832.0,0.0005959321279078722
896.0,0.0005168130737729371
960.0,0.0014273591805249453
1024.0,9.443533781450242e-05
1152.0,-0.00043551388080231845
1280.0,-1.6318921552738175e-05
1408.0,0.0009633840527385473
1536.0,0.0010494280140846968
1664.0,-0.0010313286911696196
1792.0,-0.0006027552299201488
1920.0,0.00016294652596116066
2048.0,0.0011457378277555108
2304.0,-0.0002103472506860271
2560.0,-0.0026061339303851128
2816.0,-0.0007357651484198868
3072.0,0.0006562814232893288
3328.0,-0.001784120686352253
3584.0,-0.00014438664948102087
3840.0,0.0015147682279348373
4096.0,-0.000580304826144129
4608.0,-0.0014536369126290083
5120.0,0.001452803728170693
5632.0,-0.0009090043022297323
6144.0,0.0015829680487513542
6656.0,-0.00181829824578017
7168.0,-0.0004555232299026102
7680.0,-0.0015494896797463298
8192.0,-0.0007810214883647859
9216.0,0.0001165791109087877
10240.0,0.00041500330553390086
11264.0,0.0009023341117426753
12288.0,0.0002809001598507166
13312.0,-2.9823222575942054e-05
14336.0,-0.0004114057228434831
end
