version,3.0
numOfCh,1
type,point
parent_name,40-cuts
ch_type,1_1
kcount,1
numberNandB,1
brightnessNandB,1
carpet pos,0
pc,0
Time (ms),CH1 Auto-Correlation
1.0,0.027104880660772324
2.0,0.024930210784077644
3.0,0.0230700820684433
4.0,0.02148251049220562
5.0,0.020031103864312172
6.0,0.018833328038454056
7.0,0.017776530236005783
8.0,0.016793319955468178
9.0,0.015871623530983925
10.0,0.014988228678703308
11.0,0.014163725078105927
12.0,0.013431387953460217
13.0,0.012729711830615997
14.0,0.012119882740080357
15.0,0.011544437147676945
16.0,0.011013194918632507
18.0,0.010103907436132431
20.0,0.009256447665393353
22.0,0.008444174192845821
24.0,0.007703352719545364
26.0,0.006979533936828375
28.0,0.006348148453980684
30.0,0.005879680160433054
32.0,0.005381524097174406
36.0,0.004510355647653341
40.0,0.0037797114346176386
44.0,0.0034033528063446283
48.0,0.0030723456293344498
52.0,0.0025549985002726316
56.0,0.002019335748627782
60.0,0.0016060873167589307
64.0,0.0010496065951883793
72.0,0.0005879251402802765
80.0,0.0006093403790146112
88.0,0.0008531290804967284
96.0,0.001157957362011075
104.0,0.0015123828779906034
112.0,0.0016011102125048637
120.0,0.001311972038820386
128.0,0.0012858767295256257
144.0,0.0008243178017437458
160.0,0.0004983557155355811
176.0,0.0004652599454857409
192.0,0.000502646085806191
208.0,0.0003966317744925618
224.0,0.0006648910348303616
240.0,0.000508608587551862
256.0,0.0002644604828674346
288.0,-0.00022292979701887816
320.0,-0.0007653081556782126
352.0,-0.0008941267151385546
384.0,-6.257989298319444e-05
416.0,-0.0008481218828819692
448.0,0.00013704084267374128
480.0,0.000210956422961317
512.0,0.0010339670116081834
576.0,0.0009592464193701744
640.0,0.0020439396612346172
704.0,0.0007442836067639291
768.0,0.00012057804269716144
832.0,-0.0003409753553569317
896.0,0.00034729440812952816
960.0,5.928155951551162e-05
1024.0,0.0006284969276748598
1152.0,0.0006344727007672191
1280.0,0.0004956244374625385
1408.0,0.0002404374972684309
1536.0,0.00036427832674235106
1664.0,0.001132630044594407
1792.0,6.185552047099918e-05
1920.0,-0.00034652563044801354
2048.0,0.0004226221644785255
2304.0,0.0007230909541249275
2560.0,0.0006790751940570772
2816.0,0.00018856818496715277
3072.0,0.00022582225210499018
3328.0,0.00019419151067268103
3584.0,-4.037928010802716e-05
3840.0,-0.0014504928840324283
4096.0,0.00025109649868682027
4608.0,-8.302932837978005e-05
5120.0,0.0005983627052046359
5632.0,-0.00038916507037356496
6144.0,-0.0010324422037228942
6656.0,-0.0003173501754645258
7168.0,-0.000704114674590528
7680.0,0.00020886359561700374
8192.0,-0.001079451641999185
9216.0,-0.0010192429181188345
10240.0,-0.0006338724051602185
11264.0,-0.0005262577324174345
12288.0,0.0006344707799144089
13312.0,0.0006409765919670463
14336.0,0.0004125341074541211
end
