version,3.0
numOfCh,1
type,point
parent_name,40-cuts
ch_type,1_1
kcount,1
numberNandB,1
brightnessNandB,1
carpet pos,0
pc,0
Time (ms),CH1 Auto-Correlation
1.0,0.08500566333532333
2.0,0.07796568423509598
3.0,0.0718955248594284
4.0,0.06659532338380814
5.0,0.06217265874147415
6.0,0.058019284158945084
7.0,0.05412376672029495
8.0,0.05075708404183388
9.0,0.04763943701982498
10.0,0.04493018612265587
11.0,0.04250732809305191
12.0,0.04023681581020355
13.0,0.03812924772500992
14.0,0.03630483150482178
15.0,0.034604765474796295
16.0,0.03301975131034851
18.0,0.03057289496064186
20.0,0.028415901586413383
22.0,0.026707114651799202
24.0,0.025338541716337204
26.0,0.024188213050365448
28.0,0.02324850857257843
30.0,0.022348089143633842
32.0,0.021624598652124405
36.0,0.02023891732096672
40.0,0.01907212659716606
44.0,0.017929138615727425
48.0,0.016906294971704483
52.0,0.014689511619508266
56.0,0.012303968891501427
60.0,0.010190820321440697
64.0,0.009753595106303692
72.0,0.0077484045177698135
80.0,0.005171670112758875
88.0,0.003088291035965085
96.0,0.0021115485578775406
104.0,0.002442604163661599
112.0,0.002721937373280525
120.0,0.0016117522027343512
128.0,0.002752182073891163
144.0,0.003459242172539234
160.0,0.0027173233684152365
176.0,0.0014029707526788116
192.0,0.0017806334653869271
208.0,0.0007357335998676717
224.0,-0.0010674858931452036
240.0,0.0001290550862904638
256.0,0.0018094006227329373
288.0,0.0005862845573574305
320.0,0.0008550549391657114
352.0,-0.0014409282011911273
384.0,-0.004892652854323387
416.0,-0.003889332991093397
448.0,-0.0018990137614309788
480.0,0.0013992575695738196
512.0,0.0004904336528852582
576.0,-0.0009264004183933139
640.0,-0.003549556015059352
704.0,-0.002612888114526868
768.0,-0.0013636751100420952
832.0,0.0006003169110044837
896.0,-0.0001896559406304732
960.0,0.0023482332471758127
1024.0,0.0021236040629446507
1152.0,-0.001043287804350257
1280.0,-0.0011483628768473864
1408.0,-0.002027359325438738
1536.0,-0.001832102076150477
1664.0,-0.0016189356101676822
1792.0,-0.003508364548906684
1920.0,-0.001807130523957312
2048.0,0.0010968624847009778
2304.0,-0.0010417252779006958
2560.0,0.0011617214186117053
2816.0,-0.0024553153198212385
3072.0,-0.0016418587183579803
3328.0,-0.0022457309532910585
3584.0,0.0023285364732146263
3840.0,0.0012047761119902134
4096.0,0.0036064099986106157
4608.0,-0.0007905838428996503
5120.0,-0.0006808660109527409
5632.0,-0.0006898810970596969
6144.0,0.000817402673419565
6656.0,-0.0012773525668308139
7168.0,0.000580485095269978
7680.0,-0.001050019753165543
8192.0,0.0015943674370646477
9216.0,0.0010340575827285647
10240.0,-0.000690065324306488
11264.0,-0.0005550449131987989
12288.0,-3.792519055423327e-05
13312.0,-0.0010969745926558971
14336.0,-0.0005869533051736653
end
