version,3.0
numOfCh,1
type,point
parent_name,40-cuts
ch_type,1_1
kcount,1
numberNandB,1
brightnessNandB,1
carpet pos,0
pc,0
Time (ms),CH1 Auto-Correlation
1.0,0.09243955463171005
2.0,0.08561290055513382
3.0,0.07965380698442459
4.0,0.07448996603488922
5.0,0.07004445046186447
6.0,0.06626244634389877
7.0,0.06277734786272049
8.0,0.05961860716342926
9.0,0.05664877966046333
10.0,0.05403439328074455
11.0,0.051854927092790604
12.0,0.04960368573665619
13.0,0.04747987166047096
14.0,0.04541347920894623
15.0,0.04360781982541084
16.0,0.042109742760658264
18.0,0.03955836221575737
20.0,0.036940257996320724
22.0,0.03443658724427223
24.0,0.032357607036828995
26.0,0.030035214498639107
28.0,0.027956420555710793
30.0,0.026069818064570427
32.0,0.02454627864062786
36.0,0.02146773226559162
40.0,0.019060876220464706
44.0,0.0186428464949131
48.0,0.018108395859599113
52.0,0.017930418252944946
56.0,0.01729913242161274
60.0,0.015440368093550205
64.0,0.014587905257940292
72.0,0.013819520361721516
80.0,0.011171693913638592
88.0,0.008402465842664242
96.0,0.005834201350808144
104.0,0.0035895206965506077
112.0,0.0035897952038794756
120.0,0.0049394057132303715
128.0,0.006168963387608528
144.0,0.0060358187183737755
160.0,0.0031185674015432596
176.0,0.001534279785118997
192.0,0.0019227142911404371
208.0,0.0025358828715980053
224.0,0.003634688211604953
240.0,0.004423667211085558
256.0,0.004546901676803827
288.0,0.0038273984100669622
320.0,0.001731490483507514
352.0,0.0007761806482449174
384.0,0.0009477905696257949
416.0,0.0003710314631462097
448.0,0.0005199795705266297
480.0,-0.001545836217701435
512.0,-0.002355071948841214
576.0,-0.0037444946356117725
640.0,-0.006271970923990011
704.0,-0.005131626967340708
768.0,-0.004205535631626844
832.0,-0.004009660799056292
896.0,-0.003967783413827419
960.0,-0.001383620547130704
1024.0,0.003241149475798011
1152.0,0.0017897392390295863
1280.0,-0.0019631688483059406
1408.0,0.0012515697162598372
1536.0,0.0004360343446023762
1664.0,-0.0036794974002987146
1792.0,-0.007923419587314129
1920.0,-0.0036301184445619583
2048.0,-0.0020991035271435976
2304.0,0.0037925890646874905
2560.0,0.002472606487572193
2816.0,-0.003002154640853405
3072.0,-0.0040806992910802364
3328.0,-0.0033810436725616455
3584.0,6.508109800051898e-05
3840.0,0.005998081993311644
4096.0,0.0015970964450389147
4608.0,0.002648855559527874
5120.0,0.0007367919315584004
5632.0,-0.004740724340081215
6144.0,-0.0020615579560399055
6656.0,-0.0019808330107480288
7168.0,0.0006890911608934402
7680.0,0.00013466751261148602
8192.0,0.00024383686832152307
9216.0,0.002273185644298792
10240.0,-0.0029399795457720757
11264.0,2.4371091058128513e-05
12288.0,0.0005847802967764437
13312.0,0.0034152851440012455
14336.0,-0.0011508470633998513
end
