version,3.0
numOfCh,1
type,point
parent_name,40-cuts
ch_type,1_1
kcount,1
numberNandB,1
brightnessNandB,1
carpet pos,0
pc,0
Time (ms),CH1 Auto-Correlation
1.0,0.024903198704123497
2.0,0.022672202438116074
3.0,0.020755602046847343
4.0,0.01906701922416687
5.0,0.017500856891274452
6.0,0.016173413023352623
7.0,0.014946573413908482
8.0,0.013847574591636658
9.0,0.012906281277537346
10.0,0.012028212659060955
11.0,0.011233048513531685
12.0,0.010503710247576237
13.0,0.009854564443230629
14.0,0.009280512109398842
15.0,0.00878088641911745
16.0,0.008381394669413567
18.0,0.007682297844439745
20.0,0.007063399069011211
22.0,0.006582139991223812
24.0,0.00610906770452857
26.0,0.005743132438510656
28.0,0.005416860803961754
30.0,0.00511790020391345
32.0,0.004820314235985279
36.0,0.00442231772467494
40.0,0.003806040156632662
44.0,0.003113785292953253
48.0,0.0026209410279989243
52.0,0.002094768453389406
56.0,0.0016518025659024715
60.0,0.0012984804343432188
64.0,0.0012245801044628024
72.0,0.0014923315029591322
80.0,0.0014538874384015799
88.0,0.0014329104451462626
96.0,0.0008617883431725204
104.0,0.0003236336342524737
112.0,0.000545937567949295
120.0,0.0002790901926346123
128.0,0.0001296240370720625
144.0,-9.369302460981999e-06
160.0,-0.00048189988592639565
176.0,-0.0006962742190808058
192.0,-0.0008691474795341492
208.0,-0.0005641246680170298
224.0,-0.0007303146412596107
240.0,-0.0007974920445121825
256.0,-0.0005508883041329682
288.0,-0.000633621122688055
320.0,-0.00068562978412956
352.0,-0.00020707234216388315
384.0,-0.00028547176043502986
416.0,0.0004116127674933523
448.0,0.0012666152324527502
480.0,0.001894356682896614
512.0,0.0017771648708730936
576.0,0.001254567177966237
640.0,0.0006627694820053875
704.0,0.000565822992939502
768.0,2.021778709604405e-05
832.0,-0.0013242282439023256
896.0,-4.079538121004589e-05
960.0,-0.0008749106200411916
1024.0,-0.0009328502928838134
1152.0,0.00012252383749000728
1280.0,0.00021704858227167279
1408.0,9.963774937205017e-05
1536.0,0.0003452584205660969
1664.0,-0.0002598087303340435
1792.0,-0.0003022974997293204
1920.0,-0.0001060214126482606
2048.0,-0.00025632078177295625
2304.0,-0.0004268084594514221
2560.0,-0.0010011327685788274
2816.0,-0.0003192047297488898
3072.0,-0.0005617012502625585
3328.0,-0.00092394306557253
3584.0,0.0006579853943549097
3840.0,-0.0008425396517850459
4096.0,0.00046998963807709515
4608.0,-0.00024826344451867044
5120.0,0.00017818782362155616
5632.0,0.0008253222913481295
6144.0,0.00027545494958758354
6656.0,-0.0006249299040064216
7168.0,-0.0007818848243914545
7680.0,-0.00029254035325720906
8192.0,-0.00023758529277984053
9216.0,0.0005474730860441923
10240.0,0.0005034639616496861
11264.0,0.000283997185761109
12288.0,-0.0007129969308152795
13312.0,-0.0003155581362079829
14336.0,4.629355316865258e-05
end
