version,3.0
numOfCh,1
type,point
parent_name,40-cuts
ch_type,1_1
kcount,1
numberNandB,1
brightnessNandB,1
carpet pos,0
pc,0
Time (ms),CH1 Auto-Correlation
1.0,0.08765743672847748
2.0,0.08082267642021179
3.0,0.07496485114097595
4.0,0.06984937936067581
5.0,0.06551538407802582
6.0,0.06161125749349594
7.0,0.05799572169780731
8.0,0.054919712245464325
9.0,0.05230782926082611
10.0,0.05000691115856171
11.0,0.04818357527256012
12.0,0.04646310955286026
13.0,0.04461105540394783
14.0,0.04296327009797096
15.0,0.04130201414227486
16.0,0.03978702053427696
18.0,0.03710857406258583
20.0,0.03487186133861542
22.0,0.032909851521253586
24.0,0.031092824414372444
26.0,0.029655899852514267
28.0,0.02827373705804348
30.0,0.02746252901852131
32.0,0.026490885764360428
36.0,0.02468729577958584
40.0,0.022342624142766
44.0,0.02080048806965351
48.0,0.01957795023918152
52.0,0.018472500145435333
56.0,0.017156999558210373
60.0,0.015738027170300484
64.0,0.014715642668306828
72.0,0.011878304183483124
80.0,0.009844767861068249
88.0,0.008189581334590912
96.0,0.006477161776274443
104.0,0.005986904725432396
112.0,0.005100331734865904
120.0,0.003984208218753338
128.0,0.0011483372654765844
144.0,-0.0003777152160182595
160.0,-0.00041295166010968387
176.0,-0.0022266795858740807
192.0,-0.0009948201477527618
208.0,-4.793045445694588e-05
224.0,0.0005452394252642989
240.0,-0.0006052026292309165
256.0,0.0006237439811229706
288.0,0.004322961904108524
320.0,0.00623832643032074
352.0,0.004711976274847984
384.0,0.0032008392736315727
416.0,0.0029339634347707033
448.0,0.003093482693657279
480.0,0.002110495697706938
512.0,0.0014588640769943595
576.0,-0.0007619078969582915
640.0,-0.0017323429929092526
704.0,-0.0006797970272600651
768.0,-0.0029051306191831827
832.0,-0.0014021476963534951
896.0,-0.0042690737172961235
960.0,-0.0031945938244462013
1024.0,0.0016329153440892696
1152.0,-6.947137444512919e-05
1280.0,-0.0011949656764045358
1408.0,-0.0038419708143919706
1536.0,-0.00022741820430383086
1664.0,-0.0031657929066568613
1792.0,-0.0022847470827400684
1920.0,-0.007009865716099739
2048.0,-0.002434168243780732
2304.0,-0.003065677359700203
2560.0,-0.00040727268788032234
2816.0,0.005591052118688822
3072.0,0.003931811545044184
3328.0,0.00199345825240016
3584.0,0.0002616553974803537
3840.0,0.0036067694891244173
4096.0,-0.0009694197797216475
4608.0,-0.0001401640911353752
5120.0,-0.002611244563013315
5632.0,0.00018773393821902573
6144.0,0.001931436825543642
6656.0,-0.0024977396242320538
7168.0,-0.00017880767700262368
7680.0,0.006189295090734959
8192.0,-0.0036040639970451593
9216.0,-0.004118099808692932
10240.0,0.0031202028039842844
11264.0,0.0005971925565972924
12288.0,-0.007378248032182455
13312.0,-0.0005246304208412766
14336.0,0.004317089449614286
end
