version,3.0
numOfCh,1
type,point
parent_name,40-cuts
ch_type,1_1
kcount,1
numberNandB,1
brightnessNandB,1
carpet pos,0
pc,0
Time (ms),CH1 Auto-Correlation
1.0,0.025968551635742188
2.0,0.02380206808447838
3.0,0.02198009379208088
4.0,0.020396223291754723
5.0,0.018989842385053635
6.0,0.017791371792554855
7.0,0.016727440059185028
8.0,0.015766646713018417
9.0,0.014885456301271915
10.0,0.014074799604713917
11.0,0.013355184346437454
12.0,0.012673710472881794
13.0,0.012037526816129684
14.0,0.011558584868907928
15.0,0.01104656606912613
16.0,0.010514886118471622
18.0,0.009490108117461205
20.0,0.008602800779044628
22.0,0.007855833508074284
24.0,0.007282689679414034
26.0,0.006883557420223951
28.0,0.00649188831448555
30.0,0.006194200832396746
32.0,0.005958381108939648
36.0,0.005447559989988804
40.0,0.0049880449660122395
44.0,0.004571205470710993
48.0,0.004449486266821623
52.0,0.004390517715364695
56.0,0.0042463247664272785
60.0,0.004045937210321426
64.0,0.0035871367435902357
72.0,0.003134401747956872
80.0,0.0028005933854728937
88.0,0.002601440530270338
96.0,0.003164455061778426
104.0,0.00298073492012918
112.0,0.002352123148739338
120.0,0.002061617560684681
128.0,0.0019331685034558177
144.0,0.0012425897875800729
160.0,0.0014652201207354665
176.0,0.0011274064891040325
192.0,0.0007977715576998889
208.0,0.0005982967559248209
224.0,0.0005891889450140297
240.0,0.000503645627759397
256.0,0.00042223065975122154
288.0,-0.0004820178437512368
320.0,0.0001085101903299801
352.0,0.0003456374688539654
384.0,5.399646033765748e-05
416.0,0.00018507456115912646
448.0,-0.0004162154800724238
480.0,-0.001088268356397748
512.0,-0.0009369511972181499
576.0,-0.0002148677158402279
640.0,0.0006953041884116828
704.0,0.0007468946860171854
768.0,0.00024118566943798214
832.0,0.0005221317987889051
896.0,0.0012224606471136212
960.0,0.0011029673041775823
1024.0,0.0011320441262796521
1152.0,-0.0002368922287132591
1280.0,-0.0005647962680086493
1408.0,-0.0009665786637924612
1536.0,-0.0015164822107180953
1664.0,-0.0007969551952555776
1792.0,0.0005105448071844876
1920.0,0.0007866141386330128
2048.0,9.087187936529517e-05
2304.0,-0.0004381990875117481
2560.0,-0.0004250238707754761
2816.0,0.0012514202389866114
3072.0,-0.00011724401701940224
3328.0,-0.00022274717048276216
3584.0,0.0004116683849133551
3840.0,-0.0005280692130327225
4096.0,-0.000368603621609509
4608.0,-0.00026002072263509035
5120.0,0.0008851856109686196
5632.0,0.0005756172467954457
6144.0,-0.0005600376753136516
6656.0,-0.0018284033285453916
7168.0,-0.0014953120844438672
7680.0,-0.0004802097682841122
8192.0,-0.0002168027131119743
9216.0,5.129430428496562e-05
10240.0,-0.00036846945295110345
11264.0,0.0003176746831741184
12288.0,-0.0008987518376670778
13312.0,0.001283986959606409
14336.0,0.0018139351159334183
end
