version,3.0
numOfCh,1
type,point
parent_name,40-cuts
ch_type,1_1
kcount,1
numberNandB,1
brightnessNandB,1
carpet pos,0
pc,0
Time (ms),CH1 Auto-Correlation
1.0,0.04264764487743378
2.0,0.03942543640732765
3.0,0.03664034232497215
4.0,0.03428495302796364
5.0,0.03226547688245773
6.0,0.0304518211632967
7.0,0.028866834938526154
8.0,0.027346724644303322
9.0,0.025779735296964645
10.0,0.024427372962236404
11.0,0.023212239146232605
12.0,0.02213374525308609
13.0,0.021184422075748444
14.0,0.020353198051452637
15.0,0.019540460780262947
16.0,0.018674036487936974
18.0,0.017209267243742943
20.0,0.015824807807803154
22.0,0.014667444862425327
24.0,0.013624312356114388
26.0,0.012507796287536621
28.0,0.011652234941720963
30.0,0.010872877202928066
32.0,0.01023438572883606
36.0,0.009227166883647442
40.0,0.008436865173280239
44.0,0.007654106244444847
48.0,0.007072119507938623
52.0,0.006889114622026682
56.0,0.0066027953289449215
60.0,0.006015307269990444
64.0,0.005379004403948784
72.0,0.004644110798835754
80.0,0.003658195724710822
88.0,0.003237687284126878
96.0,0.002314465120434761
104.0,0.0016050052363425493
112.0,0.001389288459904492
120.0,0.0006302830297499895
128.0,0.00038431884604506195
144.0,0.000522342452313751
160.0,0.0008162694284692407
176.0,0.0017234475817531347
192.0,0.00243761925958097
208.0,0.0028881672769784927
224.0,0.001730152522213757
240.0,0.0008814571774564683
256.0,1.2028130186081398e-05
288.0,0.0009988402016460896
320.0,0.0006993595161475241
352.0,0.0014412372838705778
384.0,0.0009399847476743162
416.0,-5.538783079828136e-05
448.0,0.0003111293772235513
480.0,0.0022533489391207695
512.0,0.001754325465299189
576.0,-0.0002981568977702409
640.0,-0.0010922042420133948
704.0,0.0002938722027465701
768.0,-0.0002556744439061731
832.0,-0.0012469034409150481
896.0,-0.0004914391320198774
960.0,0.0010422082850709558
1024.0,0.0007071263971738517
1152.0,-0.0009824674343690276
1280.0,-0.001591357751749456
1408.0,-0.0015359548851847649
1536.0,0.00039926409954205155
1664.0,0.0012616451131179929
1792.0,0.0007050696876831353
1920.0,-0.00021108039072714746
2048.0,-0.0003379742265678942
2304.0,0.0002903315471485257
2560.0,0.0003901330637745559
2816.0,-0.001995987957343459
3072.0,-0.001970323733985424
3328.0,0.00019206901197321713
3584.0,-0.0005912457127124071
3840.0,-0.0016780747100710869
4096.0,-0.0003858916461467743
4608.0,0.0006565836956724524
5120.0,0.0006566960364580154
5632.0,-0.0012435036478564143
6144.0,-0.0003639458736870438
6656.0,-0.00027475113165564835
7168.0,0.0006812496576458216
7680.0,5.64986294193659e-05
8192.0,-0.002331111580133438
9216.0,-7.300002471311018e-05
10240.0,-0.001314615597948432
11264.0,0.0030640154145658016
12288.0,0.0003955240536015481
13312.0,0.0002578875282779336
14336.0,0.0014954382786527276
end
