version,3.0
numOfCh,1
type,point
parent_name,40-cuts
ch_type,1_1
kcount,1
numberNandB,1
brightnessNandB,1
carpet pos,0
pc,0
Time (ms),CH1 Auto-Correlation
1.0,0.04324079304933548
2.0,0.039797890931367874
3.0,0.03678423911333084
4.0,0.03408054634928703
5.0,0.03176731616258621
6.0,0.02976975217461586
7.0,0.027924183756113052
8.0,0.026305681094527245
9.0,0.02487533539533615
10.0,0.02361440099775791
11.0,0.022408006712794304
12.0,0.02129783108830452
13.0,0.020342690870165825
14.0,0.01949196122586727
15.0,0.01867774873971939
16.0,0.017801349982619286
18.0,0.016395343467593193
20.0,0.015176829881966114
22.0,0.01398889534175396
24.0,0.01312801893800497
26.0,0.01234031468629837
28.0,0.011397933587431908
30.0,0.010555708780884743
32.0,0.009781959466636181
36.0,0.008751818910241127
40.0,0.007891980931162834
44.0,0.007068964187055826
48.0,0.006120880600064993
52.0,0.005517108365893364
56.0,0.004982590209692717
60.0,0.00454167602583766
64.0,0.004196283407509327
72.0,0.0037449500523507595
80.0,0.003727102419361472
88.0,0.004388319328427315
96.0,0.0042999605648219585
104.0,0.003913614433258772
112.0,0.0032765313517302275
120.0,0.003377944463863969
128.0,0.003801618004217744
144.0,0.003921201918274164
160.0,0.0038615516386926174
176.0,0.002557048574090004
192.0,0.002431911416351795
208.0,0.0011905011488124728
224.0,0.001218129531480372
240.0,0.00018669698329176754
256.0,-0.0008210361702367663
288.0,0.0005854000919498503
320.0,-0.0015516887651756406
352.0,-0.0015546106733381748
384.0,-0.0009177458705380559
416.0,-0.0013323042076081038
448.0,-0.0005621755262836814
480.0,-0.0017730584368109703
512.0,-0.0015516453422605991
576.0,-0.002417633542791009
640.0,-0.0029460121877491474
704.0,-0.002200306160375476
768.0,-0.0009437502594664693
832.0,0.0005713060381822288
896.0,0.0008575183455832303
960.0,-0.0005761339562013745
1024.0,-0.00022170158626977354
1152.0,-0.0011604208266362548
1280.0,0.0005364293465390801
1408.0,3.519011806929484e-05
1536.0,0.0001475427852710709
1664.0,-0.00017151114298030734
1792.0,0.00043379556154832244
1920.0,0.00023752888955641538
2048.0,0.00020733961719088256
2304.0,0.001080173533409834
2560.0,0.0013760686852037907
2816.0,-0.00013197441876400262
3072.0,-0.0005145447794348001
3328.0,-0.0009840765269473195
3584.0,-0.0008456609793938696
3840.0,0.0012884571915492415
4096.0,-9.945569763658568e-05
4608.0,3.506341818138026e-05
5120.0,0.0007376472349278629
5632.0,-0.0010252294596284628
6144.0,-0.0013121373485773802
6656.0,0.0005190819501876831
7168.0,-0.00025152694433927536
7680.0,-0.0004465243546292186
8192.0,-1.4797557014389895e-05
9216.0,-0.0006230161525309086
10240.0,-0.00022307854669634253
11264.0,0.0005867818254046142
12288.0,-0.0005999520653858781
13312.0,6.513600965263322e-05
14336.0,-3.802918581641279e-05
end
