version,3.0
numOfCh,1
type,point
parent_name,40-cuts
ch_type,1_1
kcount,1
numberNandB,1
brightnessNandB,1
carpet pos,0
pc,0
Time (ms),CH1 Auto-Correlation
1.0,0.09910786151885986
2.0,0.09151694178581238
3.0,0.08477269858121872
4.0,0.07908942550420761
5.0,0.07437615841627121
6.0,0.07032857090234756
7.0,0.06647801399230957
8.0,0.06287775933742523
9.0,0.05973013862967491
10.0,0.057060956954956055
11.0,0.05455346405506134
12.0,0.05241803452372551
13.0,0.05005793645977974
14.0,0.0477430634200573
15.0,0.04558897018432617
16.0,0.04367845878005028
18.0,0.040730446577072144
20.0,0.03828492388129234
22.0,0.035865992307662964
24.0,0.03404681757092476
26.0,0.0328003466129303
28.0,0.031908731907606125
30.0,0.03120286948978901
32.0,0.030765948817133904
36.0,0.029636727645993233
40.0,0.028761355206370354
44.0,0.028288213536143303
48.0,0.02723972499370575
52.0,0.027267981320619583
56.0,0.027995403856039047
60.0,0.028370579704642296
64.0,0.02718527801334858
72.0,0.02408890426158905
80.0,0.0216164980083704
88.0,0.01836973987519741
96.0,0.01634194143116474
104.0,0.016282452270388603
112.0,0.015864059329032898
120.0,0.016031770035624504
128.0,0.014400914311408997
144.0,0.011814511381089687
160.0,0.00959464255720377
176.0,0.008169696666300297
192.0,0.006744042504578829
208.0,0.003758078208193183
224.0,0.0018306411802768707
240.0,-0.0007163346162997186
256.0,0.00010832423868123442
288.0,-0.003442533779889345
320.0,-0.005514202173799276
352.0,-0.005623199976980686
384.0,-0.004597538150846958
416.0,-0.006044646259397268
448.0,-0.0025810282677412033
480.0,-0.002903222106397152
512.0,-0.0017886138521134853
576.0,0.0007727510528638959
640.0,0.0020124437287449837
704.0,0.003768357913941145
768.0,-4.867918323725462e-05
832.0,-0.0058701252564787865
896.0,-0.006161607336252928
960.0,-0.007734239567071199
1024.0,-0.006131061818450689
1152.0,-0.0010031310375779867
1280.0,0.004099271260201931
1408.0,0.0009846289176493883
1536.0,-0.0009470119257457554
1664.0,0.00041418138425797224
1792.0,0.004073801916092634
1920.0,0.00027925334870815277
2048.0,-0.0015934836119413376
2304.0,0.008248810656368732
2560.0,0.0023997733369469643
2816.0,-0.0002942836144939065
3072.0,-0.0010185653809458017
3328.0,-0.009715404361486435
3584.0,-0.001649734447710216
3840.0,0.0003359193215146661
4096.0,-0.005125129595398903
4608.0,0.0004650042683351785
5120.0,4.2886706069111824e-05
5632.0,-0.003412033664062619
6144.0,-0.0031211774330586195
6656.0,-0.002918375190347433
7168.0,1.5604433428961784e-05
7680.0,0.002058552112430334
8192.0,0.0023000536020845175
9216.0,-0.003907457925379276
10240.0,0.004309672396630049
11264.0,-0.0023453005123883486
12288.0,0.0013609604211524129
13312.0,0.0012672324664890766
14336.0,-2.250648321933113e-05
end
