version,3.0
numOfCh,1
type,point
parent_name,40-cuts
ch_type,1_1
kcount,1
numberNandB,1
brightnessNandB,1
carpet pos,0
pc,0
Time (ms),CH1 Auto-Correlation
1.0,0.08581748604774475
2.0,0.07883457094430923
3.0,0.07275863736867905
4.0,0.0675065740942955
5.0,0.06288047879934311
6.0,0.05873507633805275
7.0,0.05506336688995361
8.0,0.05158005654811859
9.0,0.04863114282488823
10.0,0.0460769385099411
11.0,0.043840907514095306
12.0,0.04189248010516167
13.0,0.03997069597244263
14.0,0.038094665855169296
15.0,0.03646618127822876
16.0,0.03515743464231491
18.0,0.03283799812197685
20.0,0.03078467585146427
22.0,0.028713935986161232
24.0,0.026787787675857544
26.0,0.025157777592539787
28.0,0.023681044578552246
30.0,0.022313861176371574
32.0,0.021153543144464493
36.0,0.018418435007333755
40.0,0.015879588201642036
44.0,0.013949093408882618
48.0,0.013101703487336636
52.0,0.011996434070169926
56.0,0.010850823484361172
60.0,0.009516156278550625
64.0,0.0085978452116251
72.0,0.008204649202525616
80.0,0.008242501877248287
88.0,0.006643833592534065
96.0,0.0055197919718921185
104.0,0.0041878060437738895
112.0,0.003458430990576744
120.0,0.00286640552803874
128.0,0.002006032969802618
144.0,-5.42088343991054e-07
160.0,0.0029143630526959896
176.0,0.0065376777201890945
192.0,0.004503816831856966
208.0,0.0026619085110723972
224.0,0.0007121512899175286
240.0,0.0021986274514347315
256.0,0.003578863339498639
288.0,-0.002495448337867856
320.0,-0.002205886645242572
352.0,-0.0006502284668385983
384.0,0.00030006843735463917
416.0,0.000505203555803746
448.0,-0.0003289806190878153
480.0,-0.00044413935393095016
512.0,1.966517447726801e-05
576.0,-0.002296667080372572
640.0,0.0027276964392513037
704.0,0.0024697815533727407
768.0,0.0009797882521525025
832.0,0.0008102431311272085
896.0,-0.0014532692730426788
960.0,-0.006166220176964998
1024.0,-0.0024259521160274744
1152.0,-0.0026969928294420242
1280.0,-0.0013787242351099849
1408.0,0.0016719505656510592
1536.0,-0.0016423253109678626
1664.0,-0.0052353437058627605
1792.0,-0.00021091879170853645
1920.0,-0.0010719523997977376
2048.0,0.0027263667434453964
2304.0,0.0012594261206686497
2560.0,-0.0005899069947190583
2816.0,-0.0008208034560084343
3072.0,-0.0015011354116722941
3328.0,-0.00048399195657111704
3584.0,-0.0006501498282887042
3840.0,-0.00031499125179834664
4096.0,0.00013423450582195073
4608.0,-0.0018668530974537134
5120.0,-0.00052229332504794
5632.0,0.0020690197125077248
6144.0,-0.0004368942172732204
6656.0,-0.0004004388756584376
7168.0,0.0034492001868784428
7680.0,0.0006148229585960507
8192.0,-0.002177160233259201
9216.0,0.0015549600357189775
10240.0,-0.0012609754921868443
11264.0,-0.0005467510782182217
12288.0,4.935872129863128e-05
13312.0,-0.0013041481142863631
14336.0,0.001634472981095314
end
