version,3.0
numOfCh,1
type,point
parent_name,40-cuts
ch_type,1_1
kcount,1
numberNandB,1
brightnessNandB,1
carpet pos,0
pc,0
Time (ms),CH1 Auto-Correlation
1.0,0.029225891456007957
2.0,0.027016859501600266
3.0,0.02512313425540924
4.0,0.02346823364496231
5.0,0.021966511383652687
6.0,0.020661957561969757
7.0,0.01956557296216488
8.0,0.018625734373927116
9.0,0.017767541110515594
10.0,0.017015406861901283
11.0,0.016399748623371124
12.0,0.01582140289247036
13.0,0.015289419330656528
14.0,0.014768402092158794
15.0,0.014267833903431892
16.0,0.01375335268676281
18.0,0.012773001566529274
20.0,0.011830738745629787
22.0,0.010971919633448124
24.0,0.010240686126053333
26.0,0.009606780484318733
28.0,0.009029896929860115
30.0,0.008475027978420258
32.0,0.008030222728848457
36.0,0.007388267666101456
40.0,0.007070854771882296
44.0,0.006506306119263172
48.0,0.005942313000559807
52.0,0.005508726462721825
56.0,0.004869821947067976
60.0,0.004397055134177208
64.0,0.00409449078142643
72.0,0.0030850358307361603
80.0,0.002818905282765627
88.0,0.002520829439163208
96.0,0.0023287746589630842
104.0,0.0020402700174599886
112.0,0.0019638168159872293
120.0,0.0020467545837163925
128.0,0.0014874330954626203
144.0,0.0013826866634190083
160.0,0.0011315462179481983
176.0,0.001256080693565309
192.0,0.0018335854401811957
208.0,0.0011525350855663419
224.0,0.00022799763246439397
240.0,0.00018149864627048373
256.0,0.00012198324839118868
288.0,0.0002274958387715742
320.0,0.00011764475493691862
352.0,4.124711631448008e-05
384.0,0.0005992757505737245
416.0,0.0004340631712693721
448.0,0.0006069524679332972
480.0,0.00010848574311239645
512.0,0.0004354453121777624
576.0,0.00035798081080429256
640.0,-0.0012182029895484447
704.0,-0.0007527472334913909
768.0,-0.0008178730495274067
832.0,-0.0007447358220815659
896.0,0.00014430985902436078
960.0,0.00025727468892000616
1024.0,-0.0013272542273625731
1152.0,-0.0007069206330925226
1280.0,-0.0012556234141811728
1408.0,0.0003649662248790264
1536.0,1.5468923493244802e-06
1664.0,-0.0006273827748373151
1792.0,-0.00045558804413303733
1920.0,-0.0002809256548061967
2048.0,-0.0013194662751629949
2304.0,-0.0006533486302942038
2560.0,-0.0002762830990832299
2816.0,0.0002258761232951656
3072.0,-0.0003659358771983534
3328.0,0.0004198310780338943
3584.0,-3.866585757350549e-05
3840.0,-0.00013719892012886703
4096.0,0.0011017429642379284
4608.0,-0.0005781192448921502
5120.0,-7.68812678870745e-05
5632.0,-0.00032844889210537076
6144.0,0.0005107976030558348
6656.0,0.00010982901585521176
7168.0,0.0002762331278063357
7680.0,0.000176954927155748
8192.0,0.0007412338745780289
9216.0,-0.0004747863276861608
10240.0,-0.0005995722021907568
11264.0,7.195228681666777e-05
12288.0,0.00021891867800150067
13312.0,-0.00017255189595744014
14336.0,0.00032254550023935735
end
