version,3.0
numOfCh,1
type,point
parent_name,40-cuts
ch_type,1_1
kcount,1
numberNandB,1
brightnessNandB,1
carpet pos,0
pc,0
Time (ms),CH1 Auto-Correlation
1.0,0.08975973725318909
2.0,0.08244792371988297
3.0,0.0759347602725029
4.0,0.0702667385339737
5.0,0.06531672924757004
6.0,0.06090806424617767
7.0,0.05703061446547508
8.0,0.05352356284856796
9.0,0.05027511715888977
10.0,0.04742434620857239
11.0,0.04477762058377266
12.0,0.042187295854091644
13.0,0.039925966411828995
14.0,0.037873391062021255
15.0,0.035809557884931564
16.0,0.03398371487855911
18.0,0.031074801459908485
20.0,0.0289215799421072
22.0,0.027179054915905
24.0,0.025424087420105934
26.0,0.023502008989453316
28.0,0.02204112708568573
30.0,0.020689502358436584
32.0,0.019808098673820496
36.0,0.01912650465965271
40.0,0.01840895414352417
44.0,0.017196297645568848
48.0,0.016139807179570198
52.0,0.015440422110259533
56.0,0.014748074114322662
60.0,0.013743617571890354
64.0,0.012261210940778255
72.0,0.010782305151224136
80.0,0.009749026969075203
88.0,0.00863671489059925
96.0,0.008436222560703754
104.0,0.007742635440081358
112.0,0.008210944011807442
120.0,0.00856732577085495
128.0,0.0067090680822730064
144.0,0.004945539403706789
160.0,0.005811319686472416
176.0,0.0047565060667693615
192.0,0.0019414378330111504
208.0,-1.1758216714952141e-05
224.0,-0.0006434841197915375
240.0,-0.003180496394634247
256.0,-0.0031629959121346474
288.0,0.001006509643048048
320.0,0.0030142907053232193
352.0,0.003796810284256935
384.0,0.001782042090781033
416.0,-0.0010918139014393091
448.0,-0.0012529212981462479
480.0,0.0007174842176027596
512.0,-0.001129623269662261
576.0,-0.0025665664579719305
640.0,-0.0014186740154400468
704.0,-0.001027846708893776
768.0,-0.0027462313883006573
832.0,-0.00038899495848454535
896.0,-0.002509616082534194
960.0,-0.00628381734713912
1024.0,-0.004521503578871489
1152.0,-0.005005850922316313
1280.0,-0.005302253179252148
1408.0,-0.0047002797946333885
1536.0,0.000743545067962259
1664.0,0.003866052022203803
1792.0,0.00022416152933146805
1920.0,-0.002679544733837247
2048.0,0.00385904754512012
2304.0,0.002831586403772235
2560.0,0.0015768513549119234
2816.0,0.0007559826481156051
3072.0,-0.0004764386103488505
3328.0,-0.0020009379368275404
3584.0,-0.0021259624045342207
3840.0,-0.0021770880557596684
4096.0,-0.005119019187986851
4608.0,0.004138318356126547
5120.0,0.002643371932208538
5632.0,-0.0036426656879484653
6144.0,-0.0006962925544939935
6656.0,0.002676714211702347
7168.0,-0.0005288065876811743
7680.0,-0.004029796924442053
8192.0,0.003981089219450951
9216.0,0.0018671189900487661
10240.0,-0.0021836834494024515
11264.0,0.00039684370858594775
12288.0,-0.002602257998660207
13312.0,0.0002615846460685134
14336.0,-0.0005201454623602331
end
