version,3.0
numOfCh,1
type,point
parent_name,40-cuts
ch_type,1_1
kcount,1
numberNandB,1
brightnessNandB,1
carpet pos,0
pc,0
Time (ms),CH1 Auto-Correlation
1.0,0.027349619194865227
2.0,0.02511417306959629
3.0,0.023183884099125862
4.0,0.02149694785475731
5.0,0.02000593952834606
6.0,0.018747486174106598
7.0,0.017681775614619255
8.0,0.01673613116145134
9.0,0.015887565910816193
10.0,0.015118787065148354
11.0,0.014431526884436607
12.0,0.013766358606517315
13.0,0.013133100233972073
14.0,0.012577945366501808
15.0,0.01208601426333189
16.0,0.011594395153224468
18.0,0.010630274191498756
20.0,0.009751218371093273
22.0,0.009125983342528343
24.0,0.008545953780412674
26.0,0.008199813775718212
28.0,0.00793711468577385
30.0,0.007714944891631603
32.0,0.007432035636156797
36.0,0.006744025275111198
40.0,0.006392364855855703
44.0,0.006059291772544384
48.0,0.0056745028123259544
52.0,0.005297165829688311
56.0,0.005004499573260546
60.0,0.004881514701992273
64.0,0.004686569329351187
72.0,0.004282105714082718
80.0,0.00383754656650126
88.0,0.003162327455356717
96.0,0.002443111501634121
104.0,0.0019924785010516644
112.0,0.0015844617737457156
120.0,0.0013520169304683805
128.0,0.001386407995596528
144.0,0.0018505587941035628
160.0,0.0022236239165067673
176.0,0.0019549094140529633
192.0,0.002059109043329954
208.0,0.0019578379578888416
224.0,0.002280044136568904
240.0,0.002241843845695257
256.0,0.002095566364005208
288.0,0.0017738102469593287
320.0,0.0009268243447877467
352.0,1.7186894183396362e-05
384.0,-0.0005829693400301039
416.0,0.0003457856073509902
448.0,-0.00033553698449395597
480.0,-0.00016901540220715106
512.0,-8.389581489609554e-05
576.0,-0.001124044880270958
640.0,-0.0002459201496094465
704.0,-0.0006359536200761795
768.0,-0.000747988058719784
832.0,-0.0002691408444661647
896.0,-0.00011963368160650134
960.0,-4.002436617156491e-05
1024.0,-9.11015595193021e-05
1152.0,9.118981324718334e-06
1280.0,-0.00010260607086820528
1408.0,0.0012253798777237535
1536.0,-0.0006464194157160819
1664.0,-0.00017245062917936593
1792.0,-0.0005844826810061932
1920.0,-0.0003709417360369116
2048.0,-0.00035016523906961083
2304.0,8.760944911045954e-05
2560.0,-0.0008124083979055285
2816.0,-0.0009674149914644659
3072.0,-0.0008372496231459081
3328.0,-0.0008434241754002869
3584.0,0.0009229519055224955
3840.0,0.0004530868900474161
4096.0,0.00047535335761494935
4608.0,-0.0009125561336986721
5120.0,0.0001964118127943948
5632.0,-0.001444173278287053
6144.0,-0.00024736541672609746
6656.0,0.0010810972889885306
7168.0,0.0016067404067143798
7680.0,0.00020006518752779812
8192.0,4.4832508137915283e-05
9216.0,-0.0010647574672475457
10240.0,-0.0003891907399520278
11264.0,-0.0005157308769412339
12288.0,-0.00040914813871495426
13312.0,0.001220989623107016
14336.0,-0.00024077379202935845
end
