version,3.0
numOfCh,1
type,point
parent_name,40-cuts
ch_type,1_1
kcount,1
numberNandB,1
brightnessNandB,1
carpet pos,0
pc,0
Time (ms),CH1 Auto-Correlation
1.0,0.09309051930904388
2.0,0.08617746829986572
3.0,0.08024541288614273
4.0,0.07500384747982025
5.0,0.07053566724061966
6.0,0.06658649444580078
7.0,0.06321533769369125
8.0,0.06002865731716156
9.0,0.057086702436208725
10.0,0.05439691245555878
11.0,0.05196504294872284
12.0,0.049697842448949814
13.0,0.04769805818796158
14.0,0.04579656198620796
15.0,0.044240619987249374
16.0,0.04268055781722069
18.0,0.04020889475941658
20.0,0.038271259516477585
22.0,0.03657973185181618
24.0,0.03483764827251434
26.0,0.03307844698429108
28.0,0.03136976435780525
30.0,0.0295184925198555
32.0,0.02802082896232605
36.0,0.025755804032087326
40.0,0.023716486990451813
44.0,0.02107756771147251
48.0,0.018852289766073227
52.0,0.016854560002684593
56.0,0.014737104997038841
60.0,0.013623957522213459
64.0,0.011996420100331306
72.0,0.009311549365520477
80.0,0.008005457930266857
88.0,0.007050782907754183
96.0,0.007205386646091938
104.0,0.008942553773522377
112.0,0.010179314762353897
120.0,0.010055316612124443
128.0,0.009635301306843758
144.0,0.00829662848263979
160.0,0.007353867869824171
176.0,0.007801869884133339
192.0,0.004997758660465479
208.0,0.002854524878785014
224.0,0.0022621601819992065
240.0,0.002512941136956215
256.0,0.0018564825877547264
288.0,0.0002786572731565684
320.0,-0.0028836727142333984
352.0,-0.004582464694976807
384.0,-0.002850379329174757
416.0,0.002825061557814479
448.0,0.005498060956597328
480.0,0.003453353885561228
512.0,0.0031759049743413925
576.0,0.006056010257452726
640.0,0.008955963887274265
704.0,0.008735117502510548
768.0,0.0033751833252608776
832.0,0.0008740704506635666
896.0,-0.003440155880525708
960.0,-0.002661324106156826
1024.0,-0.002466125413775444
1152.0,0.003494093893095851
1280.0,0.004779001232236624
1408.0,0.002602678956463933
1536.0,-0.0025510494597256184
1664.0,-0.002855959814041853
1792.0,9.192985453410074e-05
1920.0,0.0019036123994737864
2048.0,0.00033808837179094553
2304.0,-0.0010158150689676404
2560.0,7.426604861393571e-05
2816.0,-0.0032068341970443726
3072.0,0.002382474485784769
3328.0,-0.0021194922737777233
3584.0,-0.00047755762352608144
3840.0,0.0010550185106694698
4096.0,-0.0032555614598095417
4608.0,2.7687183319358155e-06
5120.0,-0.0012749731540679932
5632.0,-0.0035028811544179916
6144.0,-0.0013987899292260408
6656.0,-0.0014423397369682789
7168.0,0.0023211524821817875
7680.0,-0.0014591595390811563
8192.0,0.0024719901848584414
9216.0,0.002507975557819009
10240.0,0.0009567503002472222
11264.0,-0.0013585466658696532
12288.0,-0.006619179621338844
13312.0,-0.0040229009464383125
14336.0,-0.01535775326192379
end
