version,3.0
numOfCh,1
type,point
parent_name,484af_0dot1-0dot1
ch_type,1_1
kcount,1
numberNandB,1
brightnessNandB,1
carpet pos,0
pc,0
Time (ms),CH1 Auto-Correlation
1.0,0.05128813907504082
2.0,0.05066552385687828
3.0,0.050091467797756195
4.0,0.04953499138355255
5.0,0.048967886716127396
6.0,0.04838767275214195
7.0,0.04779146984219551
8.0,0.047208022326231
9.0,0.04663209244608879
10.0,0.046069059520959854
11.0,0.045513805001974106
12.0,0.04498874023556709
13.0,0.044485822319984436
14.0,0.04400429129600525
15.0,0.04354200139641762
16.0,0.04308179393410683
18.0,0.042158011347055435
20.0,0.04126569628715515
22.0,0.040378011763095856
24.0,0.039498742669820786
26.0,0.03863914683461189
28.0,0.03782501071691513
30.0,0.037058211863040924
32.0,0.03634350374341011
36.0,0.034983016550540924
40.0,0.0337781086564064
44.0,0.03265979513525963
48.0,0.031619638204574585
52.0,0.030601974576711655
56.0,0.02959834598004818
60.0,0.02862241491675377
64.0,0.027711626142263412
72.0,0.0260057020932436
80.0,0.02443659119307995
88.0,0.022844607010483742
96.0,0.021351957693696022
104.0,0.020014597102999687
112.0,0.019003072753548622
120.0,0.018226174637675285
128.0,0.017614200711250305
144.0,0.017131417989730835
160.0,0.016546407714486122
176.0,0.015912191942334175
192.0,0.014623085036873817
208.0,0.01279380265623331
224.0,0.011215218342840672
240.0,0.009466863237321377
256.0,0.00829045008867979
288.0,0.006023909896612167
320.0,0.005433535203337669
352.0,0.005269087851047516
384.0,0.004259781446307898
416.0,0.0030074615497142076
448.0,0.0005088188918307424
480.0,-0.001386177958920598
512.0,-0.001538179931230843
576.0,9.415091426490108e-07
640.0,0.001221231184899807
704.0,0.003569953143596649
768.0,0.0037521289195865393
832.0,0.005136764142662287
896.0,0.0057291192933917046
960.0,0.006471019703894854
1024.0,0.00813938956707716
1152.0,0.0047917477786540985
1280.0,0.004705117084085941
1408.0,-0.0007631842163391411
1536.0,-0.002973940223455429
1664.0,-0.0008865290437825024
1792.0,-0.0014808058040216565
1920.0,-0.0038491517771035433
2048.0,-0.0031089528929442167
2304.0,-0.001124883652664721
2560.0,-0.0023455468472093344
2816.0,-0.0050042723305523396
3072.0,-0.00022614779300056398
3328.0,0.005936320871114731
3584.0,-0.0022062796633690596
3840.0,-0.004459492862224579
4096.0,-0.001377781038172543
4608.0,0.005270353984087706
5120.0,-0.0009128231322392821
5632.0,0.0010696592507883906
6144.0,-0.00628242501989007
6656.0,-0.010349450632929802
7168.0,-0.009937619790434837
7680.0,-0.0006697236094623804
8192.0,-0.005530366208404303
end
