version,3.0
numOfCh,1
type,point
parent_name,484af_0dot1-0dot1
ch_type,1_1
kcount,1
numberNandB,1
brightnessNandB,1
carpet pos,0
pc,0
Time (ms),CH1 Auto-Correlation
1.0,0.053196828812360764
2.0,0.052641358226537704
3.0,0.05209480598568916
4.0,0.05155125632882118
5.0,0.051028646528720856
6.0,0.050513461232185364
7.0,0.050011567771434784
8.0,0.04952237010002136
9.0,0.049043454229831696
10.0,0.04856690391898155
11.0,0.04809967800974846
12.0,0.047639649361371994
13.0,0.04718910530209541
14.0,0.04673963785171509
15.0,0.04630985110998154
16.0,0.045892134308815
18.0,0.04508574306964874
20.0,0.044283002614974976
22.0,0.04349420592188835
24.0,0.04273560270667076
26.0,0.04198938235640526
28.0,0.041247934103012085
30.0,0.04053737595677376
32.0,0.03984879329800606
36.0,0.03859435394406319
40.0,0.03740512207150459
44.0,0.036218032240867615
48.0,0.03504594415426254
52.0,0.033951181918382645
56.0,0.03288191556930542
60.0,0.03183482587337494
64.0,0.030813971534371376
72.0,0.028963780030608177
80.0,0.027380144223570824
88.0,0.025835849344730377
96.0,0.02448325604200363
104.0,0.023473134264349937
112.0,0.022517025470733643
120.0,0.021393969655036926
128.0,0.020253241062164307
144.0,0.01788453944027424
160.0,0.015303150750696659
176.0,0.012887319549918175
192.0,0.010602454654872417
208.0,0.008619123138487339
224.0,0.007705387193709612
240.0,0.007689141668379307
256.0,0.007580295205116272
288.0,0.006144602783024311
320.0,0.005886589642614126
352.0,0.006688093766570091
384.0,0.007410930469632149
416.0,0.006098337937146425
448.0,0.0030642403289675713
480.0,0.0004342981555964798
512.0,-0.0007389787933789194
576.0,-0.003007003339007497
640.0,-0.00285330880433321
704.0,0.0004237112880218774
768.0,0.002200830029323697
832.0,0.0033403465058654547
896.0,0.0036545598413795233
960.0,0.005199849605560303
1024.0,0.004441836383193731
1152.0,0.00046982552157714963
1280.0,-0.0016521288780495524
1408.0,-0.0010220784461125731
1536.0,0.002747248625382781
1664.0,0.006303144618868828
1792.0,0.009487364441156387
1920.0,0.010237603448331356
2048.0,0.005744763184338808
2304.0,1.957993663381785e-05
2560.0,-0.009020050056278706
2816.0,-0.005160816945135593
3072.0,-0.0030806544236838818
3328.0,-0.002692375099286437
3584.0,0.006180494092404842
3840.0,0.0051378048956394196
4096.0,4.998443546355702e-05
4608.0,-0.007522306405007839
5120.0,-0.0029662461020052433
5632.0,-0.0005626867059618235
6144.0,-0.007390170823782682
6656.0,-0.009319882839918137
7168.0,-0.006436738185584545
7680.0,0.0002979202545247972
8192.0,-0.014876236207783222
end
