version,3.0
numOfCh,1
type,point
parent_name,484af_0dot1-0dot1
ch_type,1_1
kcount,1
numberNandB,1
brightnessNandB,1
carpet pos,0
pc,0
Time (ms),CH1 Auto-Correlation
1.0,0.05907074734568596
2.0,0.05847121402621269
3.0,0.05790572613477707
4.0,0.057371243834495544
5.0,0.05685743689537048
6.0,0.05634713172912598
7.0,0.05586719512939453
8.0,0.05539034679532051
9.0,0.05492231249809265
10.0,0.05446874722838402
11.0,0.05402560904622078
12.0,0.05358801782131195
13.0,0.053163085132837296
14.0,0.05275462195277214
15.0,0.05233745649456978
16.0,0.051914140582084656
18.0,0.05109606310725212
20.0,0.050285130739212036
22.0,0.04949682950973511
24.0,0.04874031990766525
26.0,0.04802997410297394
28.0,0.04739324375987053
30.0,0.046802353113889694
32.0,0.04624101147055626
36.0,0.04515063017606735
40.0,0.04405514895915985
44.0,0.04298783838748932
48.0,0.04190932214260101
52.0,0.040887556970119476
56.0,0.039901308715343475
60.0,0.03895220905542374
64.0,0.038068562746047974
72.0,0.036340925842523575
80.0,0.034698158502578735
88.0,0.03322921320796013
96.0,0.03175783529877663
104.0,0.030303383246064186
112.0,0.02897346392273903
120.0,0.027725324034690857
128.0,0.026750564575195312
144.0,0.025112390518188477
160.0,0.023489264771342278
176.0,0.022199679166078568
192.0,0.021064922213554382
208.0,0.0199265219271183
224.0,0.018980812281370163
240.0,0.018105054274201393
256.0,0.017307600006461143
288.0,0.015230778604745865
320.0,0.013275663368403912
352.0,0.01227183360606432
384.0,0.011624651961028576
416.0,0.011659475974738598
448.0,0.011194591410458088
480.0,0.011428420431911945
512.0,0.011001834645867348
576.0,0.0093639325350523
640.0,0.008006656542420387
704.0,0.005120480433106422
768.0,0.003505105385556817
832.0,0.0051500387489795685
896.0,0.0030290228314697742
960.0,0.001714322599582374
1024.0,0.00208755349740386
1152.0,0.005208055954426527
1280.0,0.004586418624967337
1408.0,0.0038278992287814617
1536.0,0.0038305288180708885
1664.0,0.005854205694049597
1792.0,0.0017945126164704561
1920.0,-0.0011045141145586967
2048.0,0.0010235558729618788
2304.0,-0.0013734254753217101
2560.0,-0.004582942463457584
2816.0,-0.0037179780192673206
3072.0,-0.010272618383169174
3328.0,-0.010770129039883614
3584.0,-0.010664242319762707
3840.0,-0.00873491633683443
4096.0,-0.004228940233588219
4608.0,-0.0021445308811962605
5120.0,-0.013768737204372883
5632.0,-0.011819801293313503
6144.0,-0.003669979050755501
6656.0,-0.0056083910167217255
7168.0,-0.0031488435342907906
7680.0,0.002071187598630786
8192.0,0.007347727660089731
end
