version,3.0
numOfCh,1
type,point
parent_name,484af_0dot1-0dot1
ch_type,1_1
kcount,1
numberNandB,1
brightnessNandB,1
carpet pos,0
pc,0
Time (ms),CH1 Auto-Correlation
1.0,0.05207038298249245
2.0,0.05152937024831772
3.0,0.051017746329307556
4.0,0.050512976944446564
5.0,0.04999302327632904
6.0,0.04947897419333458
7.0,0.04897775128483772
8.0,0.04848704859614372
9.0,0.04800684005022049
10.0,0.04754916951060295
11.0,0.04709189757704735
12.0,0.046661823987960815
13.0,0.046254292130470276
14.0,0.0458478108048439
15.0,0.0454423725605011
16.0,0.045037269592285156
18.0,0.04423533380031586
20.0,0.0434514582157135
22.0,0.04268801212310791
24.0,0.04194629192352295
26.0,0.04120367020368576
28.0,0.04048038274049759
30.0,0.03972316160798073
32.0,0.038982685655355453
36.0,0.037619296461343765
40.0,0.03639553487300873
44.0,0.03526957333087921
48.0,0.034104492515325546
52.0,0.032964710146188736
56.0,0.03188483417034149
60.0,0.030928732827305794
64.0,0.030052363872528076
72.0,0.02843901887536049
80.0,0.027090929448604584
88.0,0.025918060913681984
96.0,0.02487318031489849
104.0,0.024041185155510902
112.0,0.02312641590833664
120.0,0.02224087528884411
128.0,0.021456904709339142
144.0,0.019921481609344482
160.0,0.018930036574602127
176.0,0.018467847257852554
192.0,0.017979644238948822
208.0,0.017354439944028854
224.0,0.016814058646559715
240.0,0.01596476510167122
256.0,0.015362026169896126
288.0,0.014203283004462719
320.0,0.011836790479719639
352.0,0.008841357193887234
384.0,0.00615864060819149
416.0,0.003280987497419119
448.0,0.00039831374306231737
480.0,-0.001097671571187675
512.0,-0.0008373666205443442
576.0,0.0013761150185018778
640.0,0.004672192968428135
704.0,0.004397535230964422
768.0,0.0042571015655994415
832.0,0.006706967018544674
896.0,0.010809382423758507
960.0,0.011379229836165905
1024.0,0.009548349305987358
1152.0,0.006070583593100309
1280.0,0.0022987492848187685
1408.0,-0.0003273284528404474
1536.0,-0.0006004079477861524
1664.0,0.0011562221916392446
1792.0,-0.001494123600423336
1920.0,-0.0020237199496477842
2048.0,-0.003918934613466263
2304.0,-0.003338154638186097
2560.0,-0.0011055564973503351
2816.0,-0.0020302594639360905
3072.0,-0.0038393938448280096
3328.0,-0.0023530758917331696
3584.0,-0.0009021475561894476
3840.0,0.0008117140969261527
4096.0,5.963513831375167e-05
4608.0,-0.007003954611718655
5120.0,-0.0017110212938860059
5632.0,-0.005309867672622204
6144.0,-0.0032915091142058372
6656.0,-0.005448392126709223
7168.0,-0.011874414049088955
7680.0,0.0022846441715955734
8192.0,-0.0068936520256102085
end
