version,3.0
numOfCh,1
type,point
parent_name,484af_0dot1-0dot1
ch_type,1_1
kcount,1
numberNandB,1
brightnessNandB,1
carpet pos,0
pc,0
Time (ms),CH1 Auto-Correlation
1.0,0.06709134578704834
2.0,0.06535559892654419
3.0,0.06377668678760529
4.0,0.06243608146905899
5.0,0.06104705482721329
6.0,0.05951644480228424
7.0,0.058003101497888565
8.0,0.056660160422325134
9.0,0.05542727932333946
10.0,0.05421721935272217
11.0,0.0529901348054409
12.0,0.05175156518816948
13.0,0.05055812746286392
14.0,0.04939793050289154
15.0,0.04832984507083893
16.0,0.047468673437833786
18.0,0.04632868245244026
20.0,0.045269958674907684
22.0,0.04442130774259567
24.0,0.04370133578777313
26.0,0.042941249907016754
28.0,0.04215196892619133
30.0,0.041400860995054245
32.0,0.04072995111346245
36.0,0.03936817869544029
40.0,0.03832276165485382
44.0,0.03735845163464546
48.0,0.036076243966817856
52.0,0.03451652079820633
56.0,0.03301545977592468
60.0,0.03176039457321167
64.0,0.030602997168898582
72.0,0.028316276147961617
80.0,0.026197083294391632
88.0,0.024053353816270828
96.0,0.0217013917863369
104.0,0.019984446465969086
112.0,0.018812356516718864
120.0,0.017592616379261017
128.0,0.016577308997511864
144.0,0.014548517763614655
160.0,0.013768740929663181
176.0,0.012907393276691437
192.0,0.012195107527077198
208.0,0.012123409658670425
224.0,0.012333950959146023
240.0,0.013072231784462929
256.0,0.013542093336582184
288.0,0.011384226381778717
320.0,0.00944582186639309
352.0,0.008579918183386326
384.0,0.009098905138671398
416.0,0.010493753477931023
448.0,0.010266941972076893
480.0,0.009406386874616146
512.0,0.007109272293746471
576.0,0.0044732955284416676
640.0,0.005432548932731152
704.0,0.009079743176698685
768.0,0.008849183097481728
832.0,0.009607283398509026
896.0,0.006190454121679068
960.0,0.00508042611181736
1024.0,0.004292088095098734
1152.0,0.002269226824864745
1280.0,-0.00258534774184227
1408.0,-0.004625949077308178
1536.0,-0.0035102725960314274
1664.0,-0.005623378790915012
1792.0,-0.005847620777785778
1920.0,-0.0041402303613722324
2048.0,-0.002728598192334175
2304.0,-0.002960559446364641
2560.0,-0.0036106943152844906
2816.0,-0.006143900565803051
3072.0,-0.0006187654798850417
3328.0,-0.0027479655109345913
3584.0,-0.010210596956312656
3840.0,-0.005466509610414505
4096.0,0.0013435094151645899
4608.0,-0.004846734460443258
5120.0,-0.004786698613315821
5632.0,-0.0030068245250731707
6144.0,-0.008070722222328186
6656.0,-0.005040925927460194
7168.0,-0.0004837018786929548
7680.0,0.0002668163797352463
8192.0,0.0050119622610509396
end
