version,3.0
numOfCh,1
type,point
parent_name,484af_0dot1-0dot1
ch_type,1_1
kcount,1
numberNandB,1
brightnessNandB,1
carpet pos,0
pc,0
Time (ms),CH1 Auto-Correlation
1.0,0.044772468507289886
2.0,0.04423947632312775
3.0,0.043719884008169174
4.0,0.0432048998773098
5.0,0.04269810765981674
6.0,0.04220426082611084
7.0,0.0417264923453331
8.0,0.041267409920692444
9.0,0.040815189480781555
10.0,0.040360353887081146
11.0,0.03993125632405281
12.0,0.03949214518070221
13.0,0.03905180096626282
14.0,0.038619428873062134
15.0,0.0381837859749794
16.0,0.03776558116078377
18.0,0.03693049028515816
20.0,0.03613464906811714
22.0,0.03535153344273567
24.0,0.03460332378745079
26.0,0.033940646797418594
28.0,0.03331014886498451
30.0,0.03265797346830368
32.0,0.032015539705753326
36.0,0.030871344730257988
40.0,0.02987275831401348
44.0,0.028921622782945633
48.0,0.02798609621822834
52.0,0.02725037932395935
56.0,0.026620201766490936
60.0,0.02602531388401985
64.0,0.025400351732969284
72.0,0.024148160591721535
80.0,0.023083096370100975
88.0,0.022002844139933586
96.0,0.021049244329333305
104.0,0.01994958147406578
112.0,0.01889408752322197
120.0,0.017984027042984962
128.0,0.01735687255859375
144.0,0.016472753137350082
160.0,0.015956422314047813
176.0,0.015692245215177536
192.0,0.01525656133890152
208.0,0.015160036273300648
224.0,0.015089781954884529
240.0,0.014528886415064335
256.0,0.01319268811494112
288.0,0.011205294169485569
320.0,0.010078256018459797
352.0,0.008734777569770813
384.0,0.006724341306835413
416.0,0.004272825084626675
448.0,0.003509171074256301
480.0,0.004275911953300238
512.0,0.004592241253703833
576.0,0.004431308712810278
640.0,0.0015539686428382993
704.0,0.001509199384599924
768.0,0.0021068849600851536
832.0,0.0008668063674122095
896.0,-0.0016235029324889183
960.0,-0.004140707664191723
1024.0,-0.006997237913310528
1152.0,-0.008349745534360409
1280.0,-0.00772939482703805
1408.0,-0.004723243415355682
1536.0,-0.0017899993108585477
1664.0,-0.0025830483064055443
1792.0,-0.0020311139523983
1920.0,-0.0017840371001511812
2048.0,0.0007257161196321249
2304.0,0.0021014967933297157
2560.0,-0.002501147333532572
2816.0,-0.006584550254046917
3072.0,-0.006239063572138548
3328.0,-0.008789761923253536
3584.0,-0.009015219286084175
3840.0,-0.0017592987278476357
4096.0,0.004369404632598162
4608.0,0.002009614370763302
5120.0,-0.006519620772451162
5632.0,-0.005148258991539478
6144.0,0.002743567805737257
6656.0,0.007042472250759602
7168.0,0.0044865659438073635
7680.0,0.0032095706555992365
8192.0,0.0105423703789711
end
