version,3.0
numOfCh,1
type,point
parent_name,484af_0dot1-0dot1
ch_type,1_1
kcount,1
numberNandB,1
brightnessNandB,1
carpet pos,0
pc,0
Time (ms),CH1 Auto-Correlation
1.0,0.12827664613723755
2.0,0.1249505877494812
3.0,0.12175039201974869
4.0,0.1181325912475586
5.0,0.1149374395608902
6.0,0.1117984801530838
7.0,0.10894318670034409
8.0,0.10605868697166443
9.0,0.10348446667194366
10.0,0.10124825686216354
11.0,0.09861627966165543
12.0,0.09615987539291382
13.0,0.0935429185628891
14.0,0.09066570550203323
15.0,0.0877167284488678
16.0,0.08439670503139496
18.0,0.07725238054990768
20.0,0.07116042077541351
22.0,0.06646430492401123
24.0,0.06148191913962364
26.0,0.057503048330545425
28.0,0.053195517510175705
30.0,0.04876050725579262
32.0,0.044687140733003616
36.0,0.040048666298389435
40.0,0.039295680820941925
44.0,0.03874476999044418
48.0,0.03887280449271202
52.0,0.03771073743700981
56.0,0.03546204790472984
60.0,0.03357705846428871
64.0,0.031809501349925995
72.0,0.02588357962667942
80.0,0.021517857909202576
88.0,0.019551115110516548
96.0,0.016424555331468582
104.0,0.014704548753798008
112.0,0.011803430505096912
120.0,0.011124769225716591
128.0,0.010503321886062622
144.0,0.0069589936174452305
160.0,0.006634517572820187
176.0,0.00801138300448656
192.0,0.009136131033301353
208.0,0.008851708844304085
224.0,0.007935810834169388
240.0,0.007277195807546377
256.0,0.006312992423772812
288.0,0.004510355181992054
320.0,0.007962105795741081
352.0,0.009656213223934174
384.0,0.008895971812307835
416.0,0.008044916205108166
448.0,0.008846651762723923
480.0,0.003270557615906
512.0,0.0029924409464001656
576.0,0.004904755391180515
640.0,0.006558876484632492
704.0,0.005222382489591837
768.0,0.0002785588731057942
832.0,-0.0024521020241081715
896.0,-0.003522377461194992
960.0,-0.003909396938979626
1024.0,-0.0019209206802770495
1152.0,0.002717835595831275
1280.0,0.004698530770838261
1408.0,0.003697932232171297
1536.0,0.0004882602079305798
1664.0,-0.0033017240930348635
1792.0,-0.004425177350640297
1920.0,-0.00427033007144928
2048.0,-0.004662499763071537
2304.0,-0.007045716978609562
2560.0,-0.00245086126960814
2816.0,-0.0036036670207977295
3072.0,-0.005819075740873814
3328.0,-0.005792895331978798
3584.0,-0.0069009289145469666
3840.0,-0.002385444939136505
4096.0,0.0032355969306081533
4608.0,0.0030519033316522837
5120.0,0.004856453277170658
5632.0,0.0007327892817556858
6144.0,-0.00015130286919884384
6656.0,0.006093975156545639
7168.0,0.005536062642931938
7680.0,-0.0024197138845920563
8192.0,-2.4128748918883502e-05
end
