version,3.0
numOfCh,1
type,point
parent_name,484af_0dot1-0dot1
ch_type,1_1
kcount,1
numberNandB,1
brightnessNandB,1
carpet pos,0
pc,0
Time (ms),CH1 Auto-Correlation
1.0,0.059228211641311646
2.0,0.055710405111312866
3.0,0.05231523513793945
4.0,0.04889173060655594
5.0,0.04539228230714798
6.0,0.041759125888347626
7.0,0.041251055896282196
8.0,0.04074585437774658
9.0,0.040225137025117874
10.0,0.03974476456642151
11.0,0.03930829092860222
12.0,0.03883298113942146
13.0,0.03847832232713699
14.0,0.03810647502541542
15.0,0.037721626460552216
16.0,0.037290286272764206
18.0,0.036470603197813034
20.0,0.03552863001823425
22.0,0.034733980894088745
24.0,0.03406398370862007
26.0,0.033489860594272614
28.0,0.03286801278591156
30.0,0.032170459628105164
32.0,0.031407102942466736
36.0,0.029799992218613625
40.0,0.028589125722646713
44.0,0.027285171672701836
48.0,0.026039505377411842
52.0,0.025093169882893562
56.0,0.024235712364315987
60.0,0.023241546005010605
64.0,0.022229943424463272
72.0,0.02058258093893528
80.0,0.01908078044652939
88.0,0.01760249212384224
96.0,0.016328588128089905
104.0,0.01528986357152462
112.0,0.01457171980291605
120.0,0.013882635161280632
128.0,0.013355898670852184
144.0,0.01227040309458971
160.0,0.0106493616476655
176.0,0.009048881940543652
192.0,0.007529864087700844
208.0,0.006111006252467632
224.0,0.004871054086834192
240.0,0.004045003093779087
256.0,0.0030424122232943773
288.0,0.0013933377340435982
320.0,0.001443500746972859
352.0,0.001038451911881566
384.0,0.00046144338557496667
416.0,-0.0006628425908274949
448.0,-0.000988259445875883
480.0,-0.0005605633486993611
512.0,-0.0009264228865504265
576.0,3.990797995356843e-05
640.0,0.001692425925284624
704.0,0.003939113114029169
768.0,0.003420803463086486
832.0,0.00018190914124716073
896.0,-0.003309344407171011
960.0,-0.004757209215313196
1024.0,-0.006390703842043877
1152.0,-0.007780286483466625
1280.0,-0.005518479738384485
1408.0,-0.00030541064916178584
1536.0,-0.0005548652843572199
1664.0,-0.0013668787432834506
1792.0,-0.001174821751192212
1920.0,-0.002870857948437333
2048.0,0.0007109466823749244
2304.0,0.000470769009552896
2560.0,-0.0006932725082151592
2816.0,-0.001423607231117785
3072.0,-0.0005837198696099222
3328.0,-0.0007416197913698852
3584.0,-0.0015563409542664886
3840.0,-0.00039962143637239933
4096.0,0.0005209679948166013
4608.0,-0.001166938804090023
5120.0,-0.0010921788634732366
5632.0,0.0037278556264936924
6144.0,0.00207136245444417
6656.0,-0.005122656002640724
7168.0,-0.0014024790143594146
7680.0,0.002546107629314065
8192.0,-0.0012855230597779155
end
