version,3.0
numOfCh,1
type,point
parent_name,484af_0dot1-0dot1
ch_type,1_1
kcount,1
numberNandB,1
brightnessNandB,1
carpet pos,0
pc,0
Time (ms),CH1 Auto-Correlation
1.0,0.04267683997750282
2.0,0.042087484151124954
3.0,0.041522298008203506
4.0,0.040984828025102615
5.0,0.04047137871384621
6.0,0.039953332394361496
7.0,0.03944128006696701
8.0,0.03893490508198738
9.0,0.038461245596408844
10.0,0.03798667713999748
11.0,0.03753674775362015
12.0,0.037091951817274094
13.0,0.03667643666267395
14.0,0.036293599754571915
15.0,0.0359078049659729
16.0,0.03556784614920616
18.0,0.0349210686981678
20.0,0.03430672362446785
22.0,0.03371042385697365
24.0,0.03313245251774788
26.0,0.032554883509874344
28.0,0.0319669209420681
30.0,0.03139882907271385
32.0,0.030841778963804245
36.0,0.029758738353848457
40.0,0.028820499777793884
44.0,0.027993246912956238
48.0,0.027251413092017174
52.0,0.02657223492860794
56.0,0.025921599939465523
60.0,0.02529173716902733
64.0,0.02478998526930809
72.0,0.023721931502223015
80.0,0.022479688748717308
88.0,0.02136964537203312
96.0,0.02050119824707508
104.0,0.01970013976097107
112.0,0.018983950838446617
120.0,0.018399471417069435
128.0,0.01803506352007389
144.0,0.016765454784035683
160.0,0.014833636581897736
176.0,0.013110690750181675
192.0,0.011126086115837097
208.0,0.008723958395421505
224.0,0.006141104735434055
240.0,0.003906028810888529
256.0,0.002282672328874469
288.0,0.00031961905187927186
320.0,-2.0156168829998933e-05
352.0,-0.0006411325302906334
384.0,-0.0018165388610213995
416.0,-0.0038293746765702963
448.0,-0.004438694566488266
480.0,-0.003875324036926031
512.0,-0.0028508505783975124
576.0,-0.002137335017323494
640.0,-0.0010942390654236078
704.0,-0.0008522424031980336
768.0,-0.0008704130304977298
832.0,-0.0012993344571441412
896.0,-0.0010229795007035136
960.0,-0.0016835639253258705
1024.0,-0.003277926705777645
1152.0,-0.004828459583222866
1280.0,-0.0038681100122630596
1408.0,-0.0009573959978297353
1536.0,0.0026478597428649664
1664.0,0.005029457621276379
1792.0,0.0042349970899522305
1920.0,0.00048216094728559256
2048.0,-0.0028658113442361355
2304.0,-0.003362365998327732
2560.0,0.0029528457671403885
2816.0,0.007035489194095135
3072.0,-0.002419134834781289
3328.0,-0.003776113735511899
3584.0,-0.0038183543365448713
3840.0,-0.009905536659061909
4096.0,-0.003725031390786171
4608.0,0.00793970376253128
5120.0,-0.000113923721073661
5632.0,-0.004563794005662203
6144.0,0.0033425751607865095
6656.0,-0.0018488522619009018
7168.0,0.002793318824842572
7680.0,0.0004142030666116625
8192.0,-0.005860570352524519
end
