version,3.0
numOfCh,1
type,point
parent_name,484af_0dot1-0dot1
ch_type,1_1
kcount,1
numberNandB,1
brightnessNandB,1
carpet pos,0
pc,0
Time (ms),CH1 Auto-Correlation
1.0,0.0403515063226223
2.0,0.03979593887925148
3.0,0.03925304114818573
4.0,0.03873654082417488
5.0,0.03823254257440567
6.0,0.037744082510471344
7.0,0.03727278858423233
8.0,0.036827702075242996
9.0,0.03639175370335579
10.0,0.035949841141700745
11.0,0.035523444414138794
12.0,0.035096101462841034
13.0,0.034677617251873016
14.0,0.03426218777894974
15.0,0.033875204622745514
16.0,0.0334852896630764
18.0,0.03275147080421448
20.0,0.032040875405073166
22.0,0.03136167675256729
24.0,0.03071855753660202
26.0,0.030126547440886497
28.0,0.029563680291175842
30.0,0.029006721451878548
32.0,0.028503336012363434
36.0,0.02756044641137123
40.0,0.026658231392502785
44.0,0.025894062593579292
48.0,0.025257516652345657
52.0,0.0246625617146492
56.0,0.02405354008078575
60.0,0.02346125990152359
64.0,0.022835584357380867
72.0,0.02143339440226555
80.0,0.02010968141257763
88.0,0.019068937748670578
96.0,0.018205566331744194
104.0,0.01741832308471203
112.0,0.01664692535996437
120.0,0.015996208414435387
128.0,0.015363454818725586
144.0,0.014332717284560204
160.0,0.013401761651039124
176.0,0.012596010230481625
192.0,0.011871038004755974
208.0,0.011582639999687672
224.0,0.011238175444304943
240.0,0.011110033839941025
256.0,0.010899107903242111
288.0,0.00950633268803358
320.0,0.008745391853153706
352.0,0.008307352662086487
384.0,0.009187433868646622
416.0,0.009776875376701355
448.0,0.0086958147585392
480.0,0.007319668307900429
512.0,0.005451875738799572
576.0,0.004050893243402243
640.0,0.004623571876436472
704.0,0.0049532875418663025
768.0,0.00403808057308197
832.0,0.004410620778799057
896.0,0.002838555257767439
960.0,-0.00017403793754056096
1024.0,-0.0011022103717550635
1152.0,0.00046338228275999427
1280.0,0.0017852119635790586
1408.0,-0.00020671242964453995
1536.0,1.6802910977276042e-05
1664.0,0.0033721195068210363
1792.0,0.0023488819133490324
1920.0,0.003520391881465912
2048.0,0.005087209399789572
2304.0,0.005506347864866257
2560.0,0.003134662751108408
2816.0,-0.0008137969416566193
3072.0,-0.002074263524264097
3328.0,-0.004188627004623413
3584.0,-0.0027765517588704824
3840.0,0.00026306204381398857
4096.0,0.00221073511056602
4608.0,0.0035598163958638906
5120.0,0.00015695282490924
5632.0,-0.003955378197133541
6144.0,0.002199304522946477
6656.0,0.003968387376517057
7168.0,-0.0013451280537992716
7680.0,-0.00670755747705698
8192.0,-0.005230424925684929
end
