version,3.0
numOfCh,1
type,point
parent_name,484af_0dot1-0dot1
ch_type,1_1
kcount,1
numberNandB,1
brightnessNandB,1
carpet pos,0
pc,0
Time (ms),CH1 Auto-Correlation
1.0,0.06211400777101517
2.0,0.06147293001413345
3.0,0.0608338825404644
4.0,0.06021680310368538
5.0,0.059603314846754074
6.0,0.05901351943612099
7.0,0.05846042558550835
8.0,0.05789320170879364
9.0,0.05734146386384964
10.0,0.05680963397026062
11.0,0.05628257989883423
12.0,0.05577080696821213
13.0,0.05526827648282051
14.0,0.054799485951662064
15.0,0.054342422634363174
16.0,0.053871337324380875
18.0,0.05292594060301781
20.0,0.05195454880595207
22.0,0.05101877078413963
24.0,0.05013187229633331
26.0,0.04923919588327408
28.0,0.04839511960744858
30.0,0.04755355045199394
32.0,0.04670698940753937
36.0,0.04504863917827606
40.0,0.04340323060750961
44.0,0.04182978346943855
48.0,0.040316250175237656
52.0,0.038799554109573364
56.0,0.03749539703130722
60.0,0.03632471337914467
64.0,0.03509913384914398
72.0,0.03244878724217415
80.0,0.029915111139416695
88.0,0.027702325955033302
96.0,0.026017624884843826
104.0,0.024455398321151733
112.0,0.023201169446110725
120.0,0.02191862463951111
128.0,0.02057703211903572
144.0,0.017962981015443802
160.0,0.016186987981200218
176.0,0.01469443365931511
192.0,0.01389270182698965
208.0,0.013152539730072021
224.0,0.012472899630665779
240.0,0.011690344661474228
256.0,0.010689337737858295
288.0,0.008888053707778454
320.0,0.0066107274033129215
352.0,0.00329375802539289
384.0,0.0015216540778055787
416.0,0.001337471534498036
448.0,0.0020121242851018906
480.0,0.0010387400398030877
512.0,-0.0023124420549720526
576.0,-0.0078887352719903
640.0,-0.010285587050020695
704.0,-0.012731225229799747
768.0,-0.010709363967180252
832.0,-0.009789676405489445
896.0,-0.00894684437662363
960.0,-0.007104538846760988
1024.0,-0.006039279978722334
1152.0,-0.0016417437000200152
1280.0,-0.001017132424749434
1408.0,0.0011446133721619844
1536.0,0.005925447214394808
1664.0,0.006202654913067818
1792.0,-0.00014309250400401652
1920.0,0.004533967934548855
2048.0,-0.002571441698819399
2304.0,-0.006279414054006338
2560.0,-0.00500867236405611
2816.0,0.0005270497058518231
3072.0,0.01049595046788454
3328.0,-0.0009349657339043915
3584.0,-0.003718369407579303
3840.0,-0.0043141827918589115
4096.0,-0.002124904887750745
4608.0,0.002662189770489931
5120.0,0.004150261636823416
5632.0,-0.009894026443362236
6144.0,-0.002452839631587267
6656.0,-0.003490351140499115
7168.0,-0.007878566160798073
7680.0,0.003415432758629322
8192.0,0.005454505328088999
end
