version,3.0
numOfCh,1
type,point
parent_name,484af_0dot1-0dot1
ch_type,1_1
kcount,1
numberNandB,1
brightnessNandB,1
carpet pos,0
pc,0
Time (ms),CH1 Auto-Correlation
1.0,0.04397376999258995
2.0,0.04338093101978302
3.0,0.04278077557682991
4.0,0.0421927347779274
5.0,0.041611216962337494
6.0,0.04102635011076927
7.0,0.04045899957418442
8.0,0.03990480303764343
9.0,0.03937716409564018
10.0,0.03886042907834053
11.0,0.03835991397500038
12.0,0.03785845264792442
13.0,0.03735265135765076
14.0,0.03688059002161026
15.0,0.03641163557767868
16.0,0.03598104044795036
18.0,0.03517555445432663
20.0,0.03437047079205513
22.0,0.03355368599295616
24.0,0.03278972953557968
26.0,0.03203147277235985
28.0,0.03128260374069214
30.0,0.030574338510632515
32.0,0.02987225167453289
36.0,0.02854081802070141
40.0,0.02735224738717079
44.0,0.026294898241758347
48.0,0.025305090472102165
52.0,0.02441876381635666
56.0,0.02359074540436268
60.0,0.022828634828329086
64.0,0.022182272747159004
72.0,0.0209780503064394
80.0,0.019890202209353447
88.0,0.019050544127821922
96.0,0.018426964059472084
104.0,0.017839811742305756
112.0,0.01713269017636776
120.0,0.01631983555853367
128.0,0.015860730782151222
144.0,0.015352318994700909
160.0,0.015132676810026169
176.0,0.014535372145473957
192.0,0.013860439881682396
208.0,0.013265921734273434
224.0,0.012346256524324417
240.0,0.011064683087170124
256.0,0.00919019803404808
288.0,0.007455955725163221
320.0,0.0067978715524077415
352.0,0.0051745157688856125
384.0,0.004327721893787384
416.0,0.0035823890939354897
448.0,0.0023162891156971455
480.0,0.0019734473899006844
512.0,0.003083914751186967
576.0,0.00428792554885149
640.0,0.00719232065603137
704.0,0.00751948868855834
768.0,0.007464495021849871
832.0,0.01006292924284935
896.0,0.007735996041446924
960.0,0.006055446807295084
1024.0,0.0044699618592858315
1152.0,0.001855929964222014
1280.0,0.0013197954976931214
1408.0,0.0004972561146132648
1536.0,-0.0007302206940948963
1664.0,0.002655167132616043
1792.0,0.0006299054948613048
1920.0,0.0009311463218182325
2048.0,-0.0012950646923854947
2304.0,-0.0058599961921572685
2560.0,-0.003806701395660639
2816.0,-0.0018718549981713295
3072.0,-0.0025575198233127594
3328.0,-0.0011352136498317122
3584.0,0.001147155649960041
3840.0,0.002567063784226775
4096.0,0.0034167298581451178
4608.0,0.003723923349753022
5120.0,0.0022607757709920406
5632.0,-0.0017773396102711558
6144.0,-0.004948168992996216
6656.0,-0.0013286604080349207
7168.0,-0.003046639496460557
7680.0,-0.008292940445244312
8192.0,-0.007919296622276306
end
