version,3.0
numOfCh,1
type,point
parent_name,484af_0dot1-0dot1
ch_type,1_1
kcount,1
numberNandB,1
brightnessNandB,1
carpet pos,0
pc,0
Time (ms),CH1 Auto-Correlation
1.0,0.058569833636283875
2.0,0.05802500620484352
3.0,0.05749610438942909
4.0,0.05699004605412483
5.0,0.05647465959191322
6.0,0.05597042664885521
7.0,0.055483486503362656
8.0,0.05500783026218414
9.0,0.054562997072935104
10.0,0.05412404239177704
11.0,0.053705643862485886
12.0,0.05330970883369446
13.0,0.052943356335163116
14.0,0.05257093161344528
15.0,0.052195750176906586
16.0,0.05184342712163925
18.0,0.05116815119981766
20.0,0.05049829185009003
22.0,0.049804236739873886
24.0,0.04912707209587097
26.0,0.04848004877567291
28.0,0.04786595702171326
30.0,0.04727813974022865
32.0,0.04672181233763695
36.0,0.04565969109535217
40.0,0.04467779025435448
44.0,0.0437629334628582
48.0,0.04285447672009468
52.0,0.04193874076008797
56.0,0.041056904941797256
60.0,0.04025465250015259
64.0,0.039459895342588425
72.0,0.03788350149989128
80.0,0.036313459277153015
88.0,0.03468535840511322
96.0,0.03312205523252487
104.0,0.03156448155641556
112.0,0.030111301690340042
120.0,0.028842752799391747
128.0,0.02780373953282833
144.0,0.025667158886790276
160.0,0.0230910312384367
176.0,0.020802805200219154
192.0,0.019223157316446304
208.0,0.017561698332428932
224.0,0.01576104573905468
240.0,0.013738574460148811
256.0,0.011987666599452496
288.0,0.009766627103090286
320.0,0.007637199014425278
352.0,0.005657736212015152
384.0,0.0044427113607525826
416.0,0.00437566265463829
448.0,0.0045121521688997746
480.0,0.004427677486091852
512.0,0.005017952993512154
576.0,0.006641216576099396
640.0,0.009213692508637905
704.0,0.009838254190981388
768.0,0.0073228031396865845
832.0,0.006552207749336958
896.0,0.005917076021432877
960.0,0.0044686091132462025
1024.0,0.006165527738630772
1152.0,0.008015654981136322
1280.0,0.00635721068829298
1408.0,0.007686372380703688
1536.0,0.007435506675392389
1664.0,0.0053909532725811005
1792.0,0.002768097911030054
1920.0,-0.0028109655249863863
2048.0,-0.005071590654551983
2304.0,-0.0054384623654186726
2560.0,-0.0028634537011384964
2816.0,-0.006647083908319473
3072.0,-0.013963719829916954
3328.0,-0.010100537911057472
3584.0,-0.00497465580701828
3840.0,-0.0027821892872452736
4096.0,0.0018942469032481313
4608.0,-0.0007642498821951449
5120.0,0.006340277846902609
5632.0,0.0031117803882807493
6144.0,0.007412438280880451
6656.0,0.0038457238115370274
7168.0,-0.001090043457224965
7680.0,-0.0025013498961925507
8192.0,-0.0117047019302845
end
