version,3.0
numOfCh,1
type,point
parent_name,484af_0dot1-0dot1
ch_type,1_1
kcount,1
numberNandB,1
brightnessNandB,1
carpet pos,0
pc,0
Time (ms),CH1 Auto-Correlation
1.0,0.04603806883096695
2.0,0.04549422487616539
3.0,0.04497731104493141
4.0,0.04447929561138153
5.0,0.044000014662742615
6.0,0.04353395849466324
7.0,0.04308032616972923
8.0,0.042633481323719025
9.0,0.04219349846243858
10.0,0.04174618422985077
11.0,0.04128454625606537
12.0,0.04085414484143257
13.0,0.04043993353843689
14.0,0.04004940763115883
15.0,0.03966116905212402
16.0,0.03924744948744774
18.0,0.03852647915482521
20.0,0.037840552628040314
22.0,0.0371708981692791
24.0,0.0365554504096508
26.0,0.03597406670451164
28.0,0.03538401424884796
30.0,0.03481084853410721
32.0,0.03425511345267296
36.0,0.033184655010700226
40.0,0.032153695821762085
44.0,0.03115123137831688
48.0,0.030221322551369667
52.0,0.029333412647247314
56.0,0.02846353128552437
60.0,0.027601338922977448
64.0,0.026729468256235123
72.0,0.02515651471912861
80.0,0.023534970358014107
88.0,0.02204165607690811
96.0,0.020913083106279373
104.0,0.019959785044193268
112.0,0.018997063860297203
120.0,0.01798924058675766
128.0,0.017087630927562714
144.0,0.015906020998954773
160.0,0.015002839267253876
176.0,0.01426704227924347
192.0,0.013592837378382683
208.0,0.013180090114474297
224.0,0.012391678988933563
240.0,0.011525420472025871
256.0,0.010984675958752632
288.0,0.010039488784968853
320.0,0.008801194839179516
352.0,0.0077227819710969925
384.0,0.006705217529088259
416.0,0.005439770873636007
448.0,0.004322948399931192
480.0,0.003505090018734336
512.0,0.0025637915823608637
576.0,0.0016576319467276335
640.0,0.0018626151140779257
704.0,0.0026682072784751654
768.0,0.004380818456411362
832.0,0.0033135588746517897
896.0,-0.0009475949918851256
960.0,-0.004838220775127411
1024.0,-0.0043659755028784275
1152.0,-0.0028923358768224716
1280.0,-0.004959757439792156
1408.0,-0.006827911827713251
1536.0,-0.0058061215095222
1664.0,-0.006837150081992149
1792.0,-0.008157414384186268
1920.0,-0.00291276047937572
2048.0,-0.001493684365414083
2304.0,-0.00046900034067220986
2560.0,0.0027309430297464132
2816.0,0.00038045653491280973
3072.0,-0.006256153341382742
3328.0,-0.005704093258827925
3584.0,-0.004508320242166519
3840.0,-0.0025741553399711847
4096.0,-0.0012910409132018685
4608.0,0.002735812682658434
5120.0,0.0029430377762764692
5632.0,0.0013792008394375443
6144.0,0.005126622971147299
6656.0,0.004132010508328676
7168.0,-0.0008554548840038478
7680.0,-0.009228604845702648
8192.0,-0.013519040308892727
end
