version,3.0
numOfCh,1
type,point
parent_name,484af_0dot1-0dot1
ch_type,1_1
kcount,1
numberNandB,1
brightnessNandB,1
carpet pos,0
pc,0
Time (ms),CH1 Auto-Correlation
1.0,0.0499153733253479
2.0,0.049263376742601395
3.0,0.048638470470905304
4.0,0.04802919179201126
5.0,0.04747050255537033
6.0,0.04693115875124931
7.0,0.0464167483150959
8.0,0.04589780047535896
9.0,0.04541166126728058
10.0,0.04491681605577469
11.0,0.04441006854176521
12.0,0.04392922297120094
13.0,0.043461110442876816
14.0,0.04300352558493614
15.0,0.04258906468749046
16.0,0.04218047857284546
18.0,0.04137859493494034
20.0,0.040590133517980576
22.0,0.03987954929471016
24.0,0.039240434765815735
26.0,0.03861198574304581
28.0,0.03793059289455414
30.0,0.03722778335213661
32.0,0.036530159413814545
36.0,0.03530195355415344
40.0,0.03414685279130936
44.0,0.033154767006635666
48.0,0.03219611197710037
52.0,0.031170595437288284
56.0,0.03016534261405468
60.0,0.02929096110165119
64.0,0.028528373688459396
72.0,0.02712332271039486
80.0,0.02577020600438118
88.0,0.024496933445334435
96.0,0.023218998685479164
104.0,0.021919654682278633
112.0,0.020900456234812737
120.0,0.02009040303528309
128.0,0.01940910890698433
144.0,0.017834631726145744
160.0,0.016685960814356804
176.0,0.015673452988266945
192.0,0.015393426641821861
208.0,0.014796712435781956
224.0,0.014071150682866573
240.0,0.013879979029297829
256.0,0.013692441396415234
288.0,0.013460799120366573
320.0,0.012462482787668705
352.0,0.009581956081092358
384.0,0.006015139166265726
416.0,0.003660959657281637
448.0,0.0026819047052413225
480.0,0.0035622240975499153
512.0,0.004897923208773136
576.0,0.00624255882576108
640.0,0.004863560199737549
704.0,0.0015045908512547612
768.0,-0.0001741416344884783
832.0,6.763252167729661e-05
896.0,-0.002270118333399296
960.0,-0.008914290927350521
1024.0,-0.011124526150524616
1152.0,-0.012866834178566933
1280.0,-0.015579859726130962
1408.0,-0.013143406249582767
1536.0,-0.012775108218193054
1664.0,-0.010711044073104858
1792.0,-0.006327804643660784
1920.0,-0.0018642863724380732
2048.0,0.0018580012256279588
2304.0,0.0009651199216023088
2560.0,0.0036599135491997004
2816.0,-0.00036539140273816884
3072.0,-0.0015114961424842477
3328.0,-0.007333995774388313
3584.0,-0.0036446594167500734
3840.0,0.007107137702405453
4096.0,0.00932114478200674
4608.0,0.010766541585326195
5120.0,-0.003827182576060295
5632.0,-0.017543749883770943
6144.0,-0.00785759650170803
6656.0,0.007943753153085709
7168.0,0.011856036260724068
7680.0,0.006268653087317944
8192.0,-1.6080090063042007e-05
end
