version,3.0
numOfCh,1
type,point
parent_name,484af_0dot1-0dot1
ch_type,1_1
kcount,1
numberNandB,1
brightnessNandB,1
carpet pos,0
pc,0
Time (ms),CH1 Auto-Correlation
1.0,0.05313103646039963
2.0,0.05260954424738884
3.0,0.052104927599430084
4.0,0.051614198833703995
5.0,0.05113957077264786
6.0,0.05065441131591797
7.0,0.05016499385237694
8.0,0.049687184393405914
9.0,0.04922248423099518
10.0,0.048779066652059555
11.0,0.04834381490945816
12.0,0.04790116846561432
13.0,0.04747355356812477
14.0,0.04707423597574234
15.0,0.04668164998292923
16.0,0.04628993570804596
18.0,0.04552718624472618
20.0,0.04478386044502258
22.0,0.04404861479997635
24.0,0.043333228677511215
26.0,0.04266154766082764
28.0,0.041959621012210846
30.0,0.04127812013030052
32.0,0.04064585268497467
36.0,0.03945807367563248
40.0,0.038376472890377045
44.0,0.03732018545269966
48.0,0.03625915199518204
52.0,0.03521702066063881
56.0,0.034201014786958694
60.0,0.033281538635492325
64.0,0.03235211595892906
72.0,0.03061549738049507
80.0,0.029043307527899742
88.0,0.027556465938687325
96.0,0.026062149554491043
104.0,0.02469262108206749
112.0,0.023614266887307167
120.0,0.022800300270318985
128.0,0.022212840616703033
144.0,0.02138211578130722
160.0,0.021127862855792046
176.0,0.02079644985496998
192.0,0.020127376541495323
208.0,0.01925414241850376
224.0,0.018393399193882942
240.0,0.017769398167729378
256.0,0.016975993290543556
288.0,0.014002092182636261
320.0,0.01233152486383915
352.0,0.011839822866022587
384.0,0.010672217234969139
416.0,0.009408922865986824
448.0,0.009420943446457386
480.0,0.009255550801753998
512.0,0.009068960323929787
576.0,0.009555047377943993
640.0,0.008249163627624512
704.0,0.006069177761673927
768.0,0.0048673939891159534
832.0,0.004586067982017994
896.0,0.005552354734390974
960.0,0.006710263900458813
1024.0,0.007780791260302067
1152.0,0.007955658249557018
1280.0,0.007442791480571032
1408.0,0.007330005057156086
1536.0,0.006124112755060196
1664.0,0.0032633685041218996
1792.0,0.003690912388265133
1920.0,0.0016835511196404696
2048.0,-0.0011169984936714172
2304.0,0.001688159303739667
2560.0,0.005581453908234835
2816.0,0.0054502165876328945
3072.0,0.0024753587786108255
3328.0,0.005264016799628735
3584.0,0.005323786288499832
3840.0,0.0019418789306655526
4096.0,0.0019424065249040723
4608.0,-0.003848960157483816
5120.0,-0.0003045857010874897
5632.0,-0.003922245930880308
6144.0,-0.005061520263552666
6656.0,-0.0009492062381468713
7168.0,-0.0053549837321043015
7680.0,-0.008103030733764172
8192.0,-0.01386065874248743
end
