version,3.0
numOfCh,1
type,point
parent_name,484af_0dot1-0dot1
ch_type,1_1
kcount,1
numberNandB,1
brightnessNandB,1
carpet pos,0
pc,0
Time (ms),CH1 Auto-Correlation
1.0,0.07413636147975922
2.0,0.07214768975973129
3.0,0.0702744573354721
4.0,0.06841529160737991
5.0,0.06676657497882843
6.0,0.06524314731359482
7.0,0.06381887942552567
8.0,0.06240957975387573
9.0,0.060875605791807175
10.0,0.05904602259397507
11.0,0.05742580443620682
12.0,0.05608414113521576
13.0,0.05462057143449783
14.0,0.05340202525258064
15.0,0.0518236868083477
16.0,0.05009746924042702
18.0,0.04653988778591156
20.0,0.043544258922338486
22.0,0.04261957108974457
24.0,0.04168831557035446
26.0,0.04076787829399109
28.0,0.03981811925768852
30.0,0.0388755239546299
32.0,0.037931106984615326
36.0,0.03626168891787529
40.0,0.03453955426812172
44.0,0.03290305286645889
48.0,0.031752586364746094
52.0,0.030586756765842438
56.0,0.029633324593305588
60.0,0.0287911556661129
64.0,0.027780570089817047
72.0,0.02572297677397728
80.0,0.024999160319566727
88.0,0.023817963898181915
96.0,0.022595025599002838
104.0,0.021359169855713844
112.0,0.02006656490266323
120.0,0.019106650725007057
128.0,0.017963213846087456
144.0,0.01581103727221489
160.0,0.014926368370652199
176.0,0.013707775622606277
192.0,0.01284706499427557
208.0,0.01168280653655529
224.0,0.009549727663397789
240.0,0.00806907843798399
256.0,0.007869459688663483
288.0,0.00990158412605524
320.0,0.01010117121040821
352.0,0.00859944336116314
384.0,0.006977441255003214
416.0,0.004844311624765396
448.0,0.0050986288115382195
480.0,0.0058279396034777164
512.0,0.006909738294780254
576.0,0.005693246144801378
640.0,0.005549846217036247
704.0,0.006205450277775526
768.0,0.0030150869861245155
832.0,0.0021922283340245485
896.0,0.003481494262814522
960.0,0.003761588130146265
1024.0,0.0022523156367242336
1152.0,-0.003940725699067116
1280.0,-0.005083546973764896
1408.0,-0.00754812266677618
1536.0,-0.008393362164497375
1664.0,-0.0077240439131855965
1792.0,-0.008447772823274136
1920.0,-0.007288448046892881
2048.0,-0.0072654434479773045
2304.0,-0.013873378746211529
2560.0,-0.004336829762905836
2816.0,-0.005981323309242725
3072.0,-0.003300665644928813
3328.0,-0.00013373441470321268
3584.0,0.0010504809906706214
3840.0,0.0019616778008639812
4096.0,0.006523020099848509
4608.0,8.001722017070279e-05
5120.0,0.005123964045196772
5632.0,0.006659871432930231
6144.0,0.0010485717793926597
6656.0,-0.0016443945933133364
7168.0,-0.002911799820140004
7680.0,-0.002147956285625696
8192.0,-0.002225644886493683
end
