version,3.0
numOfCh,1
type,point
parent_name,484af_0dot1-0dot1
ch_type,1_1
kcount,1
numberNandB,1
brightnessNandB,1
carpet pos,0
pc,0
Time (ms),CH1 Auto-Correlation
1.0,0.06842272728681564
2.0,0.06702890247106552
3.0,0.06558717787265778
4.0,0.06404460966587067
5.0,0.06288725137710571
6.0,0.061724431812763214
7.0,0.06063496693968773
8.0,0.05965563654899597
9.0,0.058549996465444565
10.0,0.05753291770815849
11.0,0.056379128247499466
12.0,0.05554353818297386
13.0,0.05478234961628914
14.0,0.0542142428457737
15.0,0.053614187985658646
16.0,0.052967049181461334
18.0,0.05128898844122887
20.0,0.048642776906490326
22.0,0.046781670302152634
24.0,0.04606996849179268
26.0,0.045174162834882736
28.0,0.04386608675122261
30.0,0.04288380965590477
32.0,0.041789907962083817
36.0,0.036886148154735565
40.0,0.03450249508023262
44.0,0.0322047658264637
48.0,0.03050142526626587
52.0,0.029047932475805283
56.0,0.02789364568889141
60.0,0.02650192193686962
64.0,0.02536490373313427
72.0,0.023582516238093376
80.0,0.021865202113986015
88.0,0.020196285098791122
96.0,0.018831100314855576
104.0,0.017784321680665016
112.0,0.017196297645568848
120.0,0.016767345368862152
128.0,0.016422869637608528
144.0,0.015375941060483456
160.0,0.01365622691810131
176.0,0.01235289964824915
192.0,0.01178494282066822
208.0,0.012024110183119774
224.0,0.012635993771255016
240.0,0.012791800312697887
256.0,0.012478424236178398
288.0,0.01049646083265543
320.0,0.0077912393026053905
352.0,0.006654540542513132
384.0,0.005988734774291515
416.0,0.006813366431742907
448.0,0.006014965940266848
480.0,0.007574369665235281
512.0,0.007069856859743595
576.0,0.003630825551226735
640.0,0.0027686203829944134
704.0,0.003798888763412833
768.0,0.005708188284188509
832.0,0.007491805590689182
896.0,0.007764530833810568
960.0,0.0075337267480790615
1024.0,0.003414214588701725
1152.0,0.0025655452627688646
1280.0,-0.0013716272078454494
1408.0,-0.001994607737287879
1536.0,-0.0035029537975788116
1664.0,-0.004302901215851307
1792.0,-0.004724668338894844
1920.0,-0.004283412825316191
2048.0,-0.0033222967758774757
2304.0,-0.004668697249144316
2560.0,-0.004656517878174782
2816.0,-0.004856420680880547
3072.0,-0.004188558552414179
3328.0,-0.0060739642940461636
3584.0,-0.0044645750895142555
3840.0,-0.0038854177109897137
4096.0,-0.004684174433350563
4608.0,-0.0059572858735919
5120.0,0.0008679111488163471
5632.0,-0.0008695447468198836
6144.0,0.004082924220710993
6656.0,0.005058256909251213
7168.0,0.007493807468563318
7680.0,0.011573659256100655
8192.0,0.009109042584896088
end
