version,3.0
numOfCh,1
type,point
parent_name,484af_0dot1-0dot1
ch_type,1_1
kcount,1
numberNandB,1
brightnessNandB,1
carpet pos,0
pc,0
Time (ms),CH1 Auto-Correlation
1.0,0.05075373873114586
2.0,0.0501171313226223
3.0,0.04950511455535889
4.0,0.048918258398771286
5.0,0.048358332365751266
6.0,0.04780896380543709
7.0,0.04726738482713699
8.0,0.04674922302365303
9.0,0.046260640025138855
10.0,0.045771896839141846
11.0,0.04528913274407387
12.0,0.044812798500061035
13.0,0.044353678822517395
14.0,0.04388941079378128
15.0,0.0434308722615242
16.0,0.042981840670108795
18.0,0.04211342707276344
20.0,0.04128279164433479
22.0,0.04053495079278946
24.0,0.039799876511096954
26.0,0.039094503968954086
28.0,0.03843517228960991
30.0,0.03779534623026848
32.0,0.03719170391559601
36.0,0.03603252395987511
40.0,0.03493935242295265
44.0,0.033827345818281174
48.0,0.032699983566999435
52.0,0.031784288585186005
56.0,0.031016524881124496
60.0,0.03021041303873062
64.0,0.029291681945323944
72.0,0.027479931712150574
80.0,0.026109805330634117
88.0,0.025021838024258614
96.0,0.023905402049422264
104.0,0.0226803757250309
112.0,0.021309049800038338
120.0,0.02008669264614582
128.0,0.018878288567066193
144.0,0.016840465366840363
160.0,0.014627103693783283
176.0,0.012251382693648338
192.0,0.010524917393922806
208.0,0.009385417215526104
224.0,0.008991235867142677
240.0,0.00879300944507122
256.0,0.00907420925796032
288.0,0.010286030359566212
320.0,0.010513975284993649
352.0,0.01173610519617796
384.0,0.011693105101585388
416.0,0.01044915895909071
448.0,0.009985293261706829
480.0,0.00969036016613245
512.0,0.009585128165781498
576.0,0.00821034424006939
640.0,0.006726255640387535
704.0,0.004565070383250713
768.0,0.0036608201917260885
832.0,0.0043218377977609634
896.0,0.0030427940655499697
960.0,0.00014151728828437626
1024.0,-0.0025245409924536943
1152.0,-0.003325562458485365
1280.0,0.0010721739381551743
1408.0,0.0016775584081187844
1536.0,-0.003648302983492613
1664.0,-0.006507801357656717
1792.0,-0.009224403649568558
1920.0,-0.009329669177532196
2048.0,-0.008114578202366829
2304.0,-0.011564705520868301
2560.0,-0.008042676374316216
2816.0,-0.005726668052375317
3072.0,-0.006455606780946255
3328.0,-0.0030533496756106615
3584.0,-0.004013128578662872
3840.0,-5.9700963902287185e-05
4096.0,0.00040148739935830235
4608.0,0.005725843366235495
5120.0,0.003744898596778512
5632.0,0.00301149464212358
6144.0,-0.002054586075246334
6656.0,-0.0030763873364776373
7168.0,0.003488562535494566
7680.0,0.00376079767011106
8192.0,0.000830094562843442
end
