version,3.0
numOfCh,1
type,point
parent_name,484af_0dot1-0dot1
ch_type,1_1
kcount,1
numberNandB,1
brightnessNandB,1
carpet pos,0
pc,0
Time (ms),CH1 Auto-Correlation
1.0,0.04595625028014183
2.0,0.04544726759195328
3.0,0.04494767263531685
4.0,0.04444890096783638
5.0,0.04395157843828201
6.0,0.043470676988363266
7.0,0.04300139844417572
8.0,0.042539916932582855
9.0,0.04209689050912857
10.0,0.04167724773287773
11.0,0.04127159342169762
12.0,0.04087577760219574
13.0,0.04047902300953865
14.0,0.04010498896241188
15.0,0.0397290363907814
16.0,0.039355307817459106
18.0,0.038575805723667145
20.0,0.03779992461204529
22.0,0.037022434175014496
24.0,0.03624277561903
26.0,0.035491690039634705
28.0,0.034787893295288086
30.0,0.03410143405199051
32.0,0.03341441601514816
36.0,0.03207750618457794
40.0,0.03082810901105404
44.0,0.029649369418621063
48.0,0.028549982234835625
52.0,0.027548132464289665
56.0,0.02658221684396267
60.0,0.025600243359804153
64.0,0.02461668848991394
72.0,0.02280587889254093
80.0,0.02117903344333172
88.0,0.019818056374788284
96.0,0.01859280653297901
104.0,0.01751241646707058
112.0,0.0165035929530859
120.0,0.015702418982982635
128.0,0.014852341264486313
144.0,0.013188193552196026
160.0,0.011667792685329914
176.0,0.010636272840201855
192.0,0.009797638282179832
208.0,0.008737228810787201
224.0,0.007692896295338869
240.0,0.007289839442819357
256.0,0.007471082732081413
288.0,0.007831317372620106
320.0,0.007958093658089638
352.0,0.005699605215340853
384.0,0.0036158296279609203
416.0,0.003346837591379881
448.0,0.003621088108047843
480.0,0.00326076103374362
512.0,0.0028647237922996283
576.0,0.003235544078052044
640.0,0.0032616315875202417
704.0,0.0013813961995765567
768.0,0.002200281945988536
832.0,0.0031861525494605303
896.0,0.004130964633077383
960.0,0.004587696399539709
1024.0,0.004548047203570604
1152.0,0.0024160335306078196
1280.0,0.0004919916391372681
1408.0,5.222923573455773e-05
1536.0,-0.00026553808129392564
1664.0,-0.001384334871545434
1792.0,0.0012901005102321506
1920.0,0.0030973274260759354
2048.0,0.0045755780301988125
2304.0,0.006418405566364527
2560.0,-0.0016622401308268309
2816.0,-0.0015863892622292042
3072.0,-0.0012766686268150806
3328.0,0.0066266306675970554
3584.0,0.0007849887479096651
3840.0,-0.002127089537680149
4096.0,-0.006020491011440754
4608.0,-0.00502611743286252
5120.0,-0.0013205247232690454
5632.0,0.00297912466339767
6144.0,-0.004620627034455538
6656.0,-0.007034030742943287
7168.0,-0.007754575926810503
7680.0,-0.0030224656220525503
8192.0,-0.0057950690388679504
end
