version,3.0
numOfCh,1
type,point
parent_name,34766_0dot08-0dot1
ch_type,1_1
kcount,1
numberNandB,1
brightnessNandB,1
carpet pos,0
pc,0
Time (ms),CH1 Auto-Correlation
1.0,0.06035690754652023
2.0,0.05971496179699898
3.0,0.05908867344260216
4.0,0.05846313759684563
5.0,0.057848721742630005
6.0,0.05725764483213425
7.0,0.056691162288188934
8.0,0.05615891143679619
9.0,0.055631477385759354
10.0,0.05510013923048973
11.0,0.054584577679634094
12.0,0.05408543720841408
13.0,0.05357984080910683
14.0,0.053092412650585175
15.0,0.052613113075494766
16.0,0.05212651938199997
18.0,0.05126626044511795
20.0,0.050446443259716034
22.0,0.04968434199690819
24.0,0.04896717146039009
26.0,0.048271387815475464
28.0,0.04757685586810112
30.0,0.046909816563129425
32.0,0.04625633731484413
36.0,0.045023005455732346
40.0,0.04390619322657585
44.0,0.042786289006471634
48.0,0.04165886342525482
52.0,0.040559787303209305
56.0,0.039575718343257904
60.0,0.03854526951909065
64.0,0.037599269300699234
72.0,0.035975173115730286
80.0,0.03464093431830406
88.0,0.033377889543771744
96.0,0.03190738335251808
104.0,0.03049050271511078
112.0,0.02905258536338806
120.0,0.02759465016424656
128.0,0.02623417042195797
144.0,0.023935891687870026
160.0,0.022969037294387817
176.0,0.022596009075641632
192.0,0.02191372960805893
208.0,0.021106276661157608
224.0,0.020126493647694588
240.0,0.018859347328543663
256.0,0.01746717095375061
288.0,0.015330293215811253
320.0,0.01318662241101265
352.0,0.011293129995465279
384.0,0.008636122569441795
416.0,0.006013881415128708
448.0,0.004258455242961645
480.0,0.0027865744195878506
512.0,0.0027802595868706703
576.0,0.0027050194330513477
640.0,0.0014113372890278697
704.0,-0.0007351971580646932
768.0,-0.00015604413056280464
832.0,0.0012522704200819135
896.0,0.002461089985445142
960.0,0.002045911969617009
1024.0,0.00280898530036211
1152.0,0.008379393257200718
1280.0,0.009122734889388084
1408.0,0.0058550541289150715
1536.0,0.0027335002087056637
1664.0,-0.0003505845961626619
1792.0,-0.006334227975457907
1920.0,-0.007417806424200535
2048.0,-0.008634345605969429
2304.0,-0.00511376466602087
2560.0,-0.0006942526088096201
2816.0,-0.00498174037784338
3072.0,-0.010951129719614983
3328.0,-0.012033863924443722
3584.0,-0.0056457226164639
3840.0,-0.0007931686704978347
4096.0,0.0010612050537019968
4608.0,-0.007956813089549541
5120.0,0.0014404002577066422
5632.0,0.00021164513600524515
6144.0,0.00030774902552366257
6656.0,0.007741589564830065
7168.0,0.005266974214464426
7680.0,0.009266014210879803
8192.0,-0.001923208823427558
end
