version,3.0
numOfCh,1
type,point
parent_name,34766_0dot08-0dot1
ch_type,1_1
kcount,1
numberNandB,1
brightnessNandB,1
carpet pos,0
pc,0
Time (ms),CH1 Auto-Correlation
1.0,0.06399045139551163
2.0,0.06335411220788956
3.0,0.06274230778217316
4.0,0.062188051640987396
5.0,0.061654217541217804
6.0,0.061127979308366776
7.0,0.06058301031589508
8.0,0.060076840221881866
9.0,0.059566717594861984
10.0,0.059065233916044235
11.0,0.05855961889028549
12.0,0.058038853108882904
13.0,0.0575481615960598
14.0,0.05707291513681412
15.0,0.056625593453645706
16.0,0.056174278259277344
18.0,0.05527837574481964
20.0,0.0543978251516819
22.0,0.05357009544968605
24.0,0.052786022424697876
26.0,0.05204649642109871
28.0,0.05135563015937805
30.0,0.05071259289979935
32.0,0.050104834139347076
36.0,0.04888645559549332
40.0,0.04775165021419525
44.0,0.04675447940826416
48.0,0.04575600102543831
52.0,0.04465973749756813
56.0,0.04365448281168938
60.0,0.042682863771915436
64.0,0.041741348803043365
72.0,0.039930310100317
80.0,0.03873831033706665
88.0,0.03808467090129852
96.0,0.03749965503811836
104.0,0.0368381030857563
112.0,0.036122776567935944
120.0,0.03538873791694641
128.0,0.034860532730817795
144.0,0.03355185315012932
160.0,0.03158966451883316
176.0,0.028550270944833755
192.0,0.025634098798036575
208.0,0.023244120180606842
224.0,0.020619334653019905
240.0,0.01858004368841648
256.0,0.017494147643446922
288.0,0.01401173509657383
320.0,0.00943396519869566
352.0,0.006073787342756987
384.0,0.004221629351377487
416.0,0.002529986435547471
448.0,0.000951496185734868
480.0,-0.0018812527414411306
512.0,-0.00488885585218668
576.0,-0.007057251874357462
640.0,-0.008880467154085636
704.0,-0.011300170794129372
768.0,-0.011359800584614277
832.0,-0.010249308310449123
896.0,-0.008099760860204697
960.0,-0.00643493328243494
1024.0,-0.0031098113395273685
1152.0,0.0007515502511523664
1280.0,0.0020728681702166796
1408.0,-0.0017117745010182261
1536.0,-0.005931387655436993
1664.0,-0.009675387293100357
1792.0,-0.01423824205994606
1920.0,-0.017336178570985794
2048.0,-0.01586456038057804
2304.0,-0.0038188626058399677
2560.0,0.0039676399901509285
2816.0,0.005205592140555382
3072.0,0.007904061116278172
3328.0,0.0069826263934373856
3584.0,-0.004678274970501661
3840.0,-0.005528847221285105
4096.0,0.003537058597430587
4608.0,0.0010562491370365024
5120.0,-0.012794900685548782
5632.0,-0.004728610627353191
6144.0,-0.0012953837867826223
6656.0,0.008100424893200397
7168.0,0.012190541252493858
7680.0,-0.0028145830146968365
8192.0,-0.011578303761780262
end
