version,3.0
numOfCh,1
type,point
parent_name,34766_0dot08-0dot1
ch_type,1_1
kcount,1
numberNandB,1
brightnessNandB,1
carpet pos,0
pc,0
Time (ms),CH1 Auto-Correlation
1.0,0.06987038999795914
2.0,0.06926211714744568
3.0,0.06865690648555756
4.0,0.06806202977895737
5.0,0.06748685240745544
6.0,0.06693533062934875
7.0,0.06639547646045685
8.0,0.06584305316209793
9.0,0.06530044227838516
10.0,0.06473380327224731
11.0,0.06416915357112885
12.0,0.0636160597205162
13.0,0.06308189779520035
14.0,0.06255051493644714
15.0,0.06204492971301079
16.0,0.061529964208602905
18.0,0.06050979718565941
20.0,0.05952180549502373
22.0,0.058554425835609436
24.0,0.057595379650592804
26.0,0.0566609650850296
28.0,0.05574933812022209
30.0,0.054859817028045654
32.0,0.05404355376958847
36.0,0.052549730986356735
40.0,0.051048312336206436
44.0,0.04960250481963158
48.0,0.0482778437435627
52.0,0.046924199908971786
56.0,0.04553121700882912
60.0,0.04411165043711662
64.0,0.04273119568824768
72.0,0.040281813591718674
80.0,0.038192976266145706
88.0,0.03669741377234459
96.0,0.03563673794269562
104.0,0.0346648134291172
112.0,0.033552490174770355
120.0,0.03218216821551323
128.0,0.030585477128624916
144.0,0.02742876671254635
160.0,0.02488693781197071
176.0,0.021778156980872154
192.0,0.01884310506284237
208.0,0.016322897747159004
224.0,0.013858483172953129
240.0,0.011987936682999134
256.0,0.010133517906069756
288.0,0.005552050191909075
320.0,0.002988857217133045
352.0,0.00318526616320014
384.0,0.003373319748789072
416.0,0.0028923056088387966
448.0,0.0019429540261626244
480.0,0.0023989262990653515
512.0,0.003308273386210203
576.0,0.0030872279312461615
640.0,-8.48552917886991e-06
704.0,-0.005106307566165924
768.0,-0.006164367310702801
832.0,-0.004444795660674572
896.0,-0.002712095156311989
960.0,-0.0016694400692358613
1024.0,-9.853195660980418e-05
1152.0,-0.0004882846842519939
1280.0,-0.005743423011153936
1408.0,-0.008353324607014656
1536.0,-0.006933565717190504
1664.0,-0.007973570376634598
1792.0,-0.012084394693374634
1920.0,-0.007524061948060989
2048.0,-0.007156314328312874
2304.0,-0.015374070033431053
2560.0,-0.002953658113256097
2816.0,-0.0003875995462294668
3072.0,0.0018793261842802167
3328.0,0.0025902751367539167
3584.0,0.011092644184827805
3840.0,0.012626495212316513
4096.0,0.004928817972540855
4608.0,-0.005488977301865816
5120.0,-0.0022358179558068514
5632.0,-0.008892721496522427
6144.0,-0.0037250490859150887
6656.0,0.0014802359510213137
7168.0,0.005765943787992001
7680.0,0.009027594700455666
8192.0,0.00156108639203012
end
