version,3.0
numOfCh,1
type,point
parent_name,34766_0dot08-0dot1
ch_type,1_1
kcount,1
numberNandB,1
brightnessNandB,1
carpet pos,0
pc,0
Time (ms),CH1 Auto-Correlation
1.0,0.07537328451871872
2.0,0.0747293159365654
3.0,0.07413670420646667
4.0,0.07357268780469894
5.0,0.0730215311050415
6.0,0.07247330993413925
7.0,0.07195741683244705
8.0,0.07143962383270264
9.0,0.07093681395053864
10.0,0.07042773813009262
11.0,0.06993434578180313
12.0,0.06942437589168549
13.0,0.06891656666994095
14.0,0.06842763721942902
15.0,0.06795593351125717
16.0,0.0674855038523674
18.0,0.0665871724486351
20.0,0.06571454554796219
22.0,0.06491115689277649
24.0,0.06414471566677094
26.0,0.06344293802976608
28.0,0.06279067695140839
30.0,0.06214888021349907
32.0,0.061495695263147354
36.0,0.06022719666361809
40.0,0.05898522958159447
44.0,0.05788397416472435
48.0,0.05680348724126816
52.0,0.05581095814704895
56.0,0.05489053204655647
60.0,0.05400635674595833
64.0,0.053194619715213776
72.0,0.05146652087569237
80.0,0.04973951727151871
88.0,0.048139266669750214
96.0,0.04678577184677124
104.0,0.04556189104914665
112.0,0.044373415410518646
120.0,0.04334556683897972
128.0,0.04259258136153221
144.0,0.041382696479558945
160.0,0.0406230203807354
176.0,0.040298059582710266
192.0,0.03926185891032219
208.0,0.03789052367210388
224.0,0.03704947233200073
240.0,0.036458857357501984
256.0,0.03517141565680504
288.0,0.03107907436788082
320.0,0.02828802913427353
352.0,0.02649371698498726
384.0,0.025234976783394814
416.0,0.024021735414862633
448.0,0.021745041012763977
480.0,0.019160380586981773
512.0,0.018053635954856873
576.0,0.016474010422825813
640.0,0.014370977878570557
704.0,0.011755348183214664
768.0,0.011641386896371841
832.0,0.01161342952400446
896.0,0.011021268554031849
960.0,0.009245775640010834
1024.0,0.008156754076480865
1152.0,0.0063162511214613914
1280.0,0.0057901483960449696
1408.0,0.0038493655156344175
1536.0,0.0011482189875096083
1664.0,-4.72121246275492e-05
1792.0,0.0016609681770205498
1920.0,0.007042909041047096
2048.0,0.003655840642750263
2304.0,0.009324771352112293
2560.0,0.009154833853244781
2816.0,0.006128495093435049
3072.0,-0.005518043879419565
3328.0,-0.013698112219572067
3584.0,-0.011451773345470428
3840.0,-0.008729007095098495
4096.0,-0.003512239782139659
4608.0,-0.0006820763810537755
5120.0,-0.009466473944485188
5632.0,-0.018563779070973396
6144.0,-0.020029734820127487
6656.0,-0.014245769940316677
7168.0,-0.018883036449551582
7680.0,-0.02996114268898964
8192.0,-0.027774550020694733
end
