version,3.0
numOfCh,1
type,point
parent_name,34766_0dot08-0dot1
ch_type,1_1
kcount,1
numberNandB,1
brightnessNandB,1
carpet pos,0
pc,0
Time (ms),CH1 Auto-Correlation
1.0,0.06142117455601692
2.0,0.060625772923231125
3.0,0.059857070446014404
4.0,0.05913654342293739
5.0,0.058494437485933304
6.0,0.05779692530632019
7.0,0.05712493881583214
8.0,0.05648397281765938
9.0,0.05584302544593811
10.0,0.055242929607629776
11.0,0.054637618362903595
12.0,0.054033443331718445
13.0,0.053488533943891525
14.0,0.052964258939027786
15.0,0.05243857949972153
16.0,0.05194191262125969
18.0,0.050962887704372406
20.0,0.050032660365104675
22.0,0.04915834590792656
24.0,0.04830154776573181
26.0,0.04744913801550865
28.0,0.04657131806015968
30.0,0.04569267854094505
32.0,0.044816989451646805
36.0,0.04317931458353996
40.0,0.04159324988722801
44.0,0.04000876843929291
48.0,0.038492873311042786
52.0,0.03708689659833908
56.0,0.03586152568459511
60.0,0.03492921590805054
64.0,0.034123532474040985
72.0,0.03263748064637184
80.0,0.03133951872587204
88.0,0.030050355941057205
96.0,0.02903432585299015
104.0,0.02839040942490101
112.0,0.027765028178691864
120.0,0.02678569406270981
128.0,0.025472942739725113
144.0,0.023465849459171295
160.0,0.02151470258831978
176.0,0.01988743431866169
192.0,0.018542340025305748
208.0,0.016785308718681335
224.0,0.015430804342031479
240.0,0.013416741043329239
256.0,0.011430506594479084
288.0,0.0077431583777070045
320.0,0.006055701989680529
352.0,0.004714451730251312
384.0,0.0035657344851642847
416.0,0.001512813731096685
448.0,0.0004971240414306521
480.0,-0.0003989061515312642
512.0,-0.00019767780031543225
576.0,-0.0024264163803309202
640.0,-0.002084776759147644
704.0,-0.0016619368689134717
768.0,0.001194383017718792
832.0,0.002607065485790372
896.0,0.0029163258150219917
960.0,-0.0007203355198726058
1024.0,-0.00436604768037796
1152.0,-0.003370921593159437
1280.0,-9.077477443497628e-05
1408.0,0.002844869391992688
1536.0,0.0028108200058341026
1664.0,0.0011228877119719982
1792.0,-0.004963136278092861
1920.0,-0.011004927568137646
2048.0,-0.012884858064353466
2304.0,-0.016295021399855614
2560.0,-0.011685963720083237
2816.0,-0.006016827188432217
3072.0,0.003258232958614826
3328.0,0.007004766259342432
3584.0,-0.0049016447737813
3840.0,-0.010124384425580502
4096.0,-0.004314412362873554
4608.0,0.013793416321277618
5120.0,0.004825304262340069
5632.0,0.00424977857619524
6144.0,0.007253693882375956
6656.0,-0.0012472964590415359
7168.0,-0.016646595671772957
7680.0,-0.0016430672258138657
8192.0,-0.009801484644412994
end
