version,3.0
numOfCh,1
type,point
parent_name,34766_0dot08-0dot1
ch_type,1_1
kcount,1
numberNandB,1
brightnessNandB,1
carpet pos,0
pc,0
Time (ms),CH1 Auto-Correlation
1.0,0.3780179023742676
2.0,0.36934894323349
3.0,0.36208415031433105
4.0,0.3551572859287262
5.0,0.34833672642707825
6.0,0.3429046869277954
7.0,0.33784452080726624
8.0,0.33331307768821716
9.0,0.3294486403465271
10.0,0.325821191072464
11.0,0.3214341998100281
12.0,0.31735023856163025
13.0,0.31331709027290344
14.0,0.30851060152053833
15.0,0.30359697341918945
16.0,0.2998763620853424
18.0,0.2878327965736389
20.0,0.27582812309265137
22.0,0.2667851150035858
24.0,0.25895270705223083
26.0,0.2538425326347351
28.0,0.24969319999217987
30.0,0.24530990421772003
32.0,0.2403572052717209
36.0,0.2313801497220993
40.0,0.2260570228099823
44.0,0.22318018972873688
48.0,0.21840806305408478
52.0,0.21394763886928558
56.0,0.2116292119026184
60.0,0.20704428851604462
64.0,0.2023475617170334
72.0,0.19366967678070068
80.0,0.18099071085453033
88.0,0.17225299775600433
96.0,0.15661044418811798
104.0,0.14515939354896545
112.0,0.13734644651412964
120.0,0.1332169771194458
128.0,0.1351591944694519
144.0,0.13790057599544525
160.0,0.12352478504180908
176.0,0.10387390106916428
192.0,0.09914782643318176
208.0,0.09847050905227661
224.0,0.09717956930398941
240.0,0.09464216232299805
256.0,0.09204097837209702
288.0,0.08865619450807571
320.0,0.08762387186288834
352.0,0.0948917418718338
384.0,0.09919038414955139
416.0,0.09013330936431885
448.0,0.08176456391811371
480.0,0.07791586220264435
512.0,0.0863741934299469
576.0,0.0822722390294075
640.0,0.08006813377141953
704.0,0.08311621099710464
768.0,0.06818915158510208
832.0,0.08377561718225479
896.0,0.08421288430690765
960.0,0.07781970500946045
1024.0,0.07259801775217056
1152.0,0.08607296645641327
1280.0,0.09423397481441498
1408.0,0.05272016301751137
1536.0,0.02424769476056099
1664.0,0.026813769713044167
1792.0,0.03108121082186699
1920.0,0.041225630789995193
2048.0,0.06326955556869507
2304.0,0.043308574706315994
2560.0,-0.0016913333674892783
2816.0,-0.02710808627307415
3072.0,-0.02401549369096756
3328.0,-0.03776949271559715
3584.0,-0.039338719099760056
3840.0,-0.05078363046050072
4096.0,-0.038445767015218735
4608.0,-0.04413585737347603
5120.0,-0.035932738333940506
5632.0,-0.03616064786911011
6144.0,-0.026447994634509087
6656.0,-0.06911720335483551
7168.0,-0.035616230219602585
7680.0,-0.05175338685512543
8192.0,-0.05286023020744324
end
