version,3.0
numOfCh,1
type,point
parent_name,34766_0dot08-0dot1
ch_type,1_1
kcount,1
numberNandB,1
brightnessNandB,1
carpet pos,0
pc,0
Time (ms),CH1 Auto-Correlation
1.0,0.08797037601470947
2.0,0.08280066400766373
3.0,0.08205663412809372
4.0,0.08130384981632233
5.0,0.08065731823444366
6.0,0.08003635704517365
7.0,0.07952461391687393
8.0,0.07893473654985428
9.0,0.07834166288375854
10.0,0.07783679664134979
11.0,0.07734008878469467
12.0,0.0767417699098587
13.0,0.07610058039426804
14.0,0.07560928165912628
15.0,0.0751919373869896
16.0,0.0747709572315216
18.0,0.07371097058057785
20.0,0.07270912081003189
22.0,0.07173146307468414
24.0,0.07126922905445099
26.0,0.07094752788543701
28.0,0.07042691111564636
30.0,0.06958936899900436
32.0,0.06874607503414154
36.0,0.06700803339481354
40.0,0.06493829190731049
44.0,0.06349097192287445
48.0,0.06151171401143074
52.0,0.06009351462125778
56.0,0.05886843800544739
60.0,0.057754430919885635
64.0,0.056670479476451874
72.0,0.05457467958331108
80.0,0.05298541113734245
88.0,0.051134709268808365
96.0,0.049290381371974945
104.0,0.04814596474170685
112.0,0.04704385995864868
120.0,0.04602251574397087
128.0,0.04511623457074165
144.0,0.04338610917329788
160.0,0.04126248136162758
176.0,0.039060335606336594
192.0,0.03660661727190018
208.0,0.03493843600153923
224.0,0.033556025475263596
240.0,0.032141659408807755
256.0,0.030576961115002632
288.0,0.029744664207100868
320.0,0.02940891869366169
352.0,0.029384450986981392
384.0,0.029227912425994873
416.0,0.028889397159218788
448.0,0.027988078072667122
480.0,0.02580387331545353
512.0,0.023931508883833885
576.0,0.022025028243660927
640.0,0.020195111632347107
704.0,0.020237749442458153
768.0,0.019773898646235466
832.0,0.01636863686144352
896.0,0.014337286353111267
960.0,0.014621769078075886
1024.0,0.015081238932907581
1152.0,0.011648277752101421
1280.0,0.012491272762417793
1408.0,0.017110709100961685
1536.0,0.014897027984261513
1664.0,0.007498782593756914
1792.0,0.002267615171149373
1920.0,0.0028642809484153986
2048.0,0.002867747563868761
2304.0,-0.0120941661298275
2560.0,-0.012241188436746597
2816.0,-0.02064085565507412
3072.0,-0.012326288968324661
3328.0,-0.010295518673956394
3584.0,-0.013252084143459797
3840.0,-0.020091090351343155
4096.0,-0.020233120769262314
4608.0,-0.010497190989553928
5120.0,0.004716577008366585
5632.0,0.012452717870473862
6144.0,0.020317798480391502
6656.0,0.024945460259914398
7168.0,0.02275172993540764
7680.0,0.013074205256998539
8192.0,-0.0049995239824056625
end
