version,3.0
numOfCh,1
type,point
parent_name,34766_0dot08-0dot1
ch_type,1_1
kcount,1
numberNandB,1
brightnessNandB,1
carpet pos,0
pc,0
Time (ms),CH1 Auto-Correlation
1.0,0.07005508989095688
2.0,0.06937991082668304
3.0,0.06873446702957153
4.0,0.0680876150727272
5.0,0.06747570633888245
6.0,0.06688154488801956
7.0,0.06631859391927719
8.0,0.0657511055469513
9.0,0.06517931073904037
10.0,0.06458702683448792
11.0,0.0639944076538086
12.0,0.06341679394245148
13.0,0.06284508854150772
14.0,0.06227979063987732
15.0,0.061721429228782654
16.0,0.061163995414972305
18.0,0.06006960943341255
20.0,0.058962684124708176
22.0,0.057846926152706146
24.0,0.05677592754364014
26.0,0.055766668170690536
28.0,0.05477699637413025
30.0,0.05377739667892456
32.0,0.05278218165040016
36.0,0.05103287100791931
40.0,0.04940253496170044
44.0,0.04784303903579712
48.0,0.046293701976537704
52.0,0.04491782560944557
56.0,0.04366937652230263
60.0,0.04244059696793556
64.0,0.04130810499191284
72.0,0.0392095148563385
80.0,0.03724696859717369
88.0,0.03517131507396698
96.0,0.03304450958967209
104.0,0.03100057691335678
112.0,0.029027089476585388
120.0,0.027326054871082306
128.0,0.02578088268637657
144.0,0.022571517154574394
160.0,0.019674858078360558
176.0,0.016547366976737976
192.0,0.013666695915162563
208.0,0.011838392354547977
224.0,0.010246173478662968
240.0,0.007936575450003147
256.0,0.005428946577012539
288.0,0.0016539437929168344
320.0,-0.003080694004893303
352.0,-0.006462830118834972
384.0,-0.007293169852346182
416.0,-0.007786969188600779
448.0,-0.006660714745521545
480.0,-0.006856293883174658
512.0,-0.00788781326264143
576.0,-0.0064866007305681705
640.0,-0.002982017584145069
704.0,-0.00023044687986839563
768.0,0.0014669789234176278
832.0,0.0051701003685593605
896.0,0.008981089107692242
960.0,0.0126679427921772
1024.0,0.015152419917285442
1152.0,0.014298898167908192
1280.0,0.007647866848856211
1408.0,-0.0015905650798231363
1536.0,-0.0034885250497609377
1664.0,0.0004791071987710893
1792.0,0.00251188431866467
1920.0,0.00530078774318099
2048.0,-0.0013969680294394493
2304.0,-0.003962933085858822
2560.0,6.258631037781015e-05
2816.0,0.003195967525243759
3072.0,-0.0007193507044576108
3328.0,-0.0023596365936100483
3584.0,0.0024475741665810347
3840.0,0.005569328088313341
4096.0,-0.003190632676705718
4608.0,0.006710987538099289
5120.0,-0.010314060375094414
5632.0,0.004180502146482468
6144.0,-0.008632924407720566
6656.0,-0.0009890840156003833
7168.0,-0.007781406864523888
7680.0,-0.0006980946636758745
8192.0,-0.010929293930530548
end
