version,3.0
numOfCh,1
type,point
parent_name,34766_0dot08-0dot1
ch_type,1_1
kcount,1
numberNandB,1
brightnessNandB,1
carpet pos,0
pc,0
Time (ms),CH1 Auto-Correlation
1.0,0.055589959025382996
2.0,0.054931022226810455
3.0,0.054287560284137726
4.0,0.05369224399328232
5.0,0.05312162637710571
6.0,0.05256882309913635
7.0,0.05203593149781227
8.0,0.05152204632759094
9.0,0.051032524555921555
10.0,0.050550274550914764
11.0,0.05006035044789314
12.0,0.049579571932554245
13.0,0.04911549761891365
14.0,0.04868423193693161
15.0,0.04822985827922821
16.0,0.04777209833264351
18.0,0.046815358102321625
20.0,0.04591462388634682
22.0,0.04504357650876045
24.0,0.04419935122132301
26.0,0.04345287010073662
28.0,0.04271218180656433
30.0,0.0419975146651268
32.0,0.04130782186985016
36.0,0.03992759808897972
40.0,0.038560688495635986
44.0,0.037337224930524826
48.0,0.03618454188108444
52.0,0.03518493473529816
56.0,0.03426014631986618
60.0,0.03337148576974869
64.0,0.032525334507226944
72.0,0.03079664148390293
80.0,0.02913103625178337
88.0,0.027536585927009583
96.0,0.026028450578451157
104.0,0.024618228897452354
112.0,0.023165006190538406
120.0,0.021968886256217957
128.0,0.020871128886938095
144.0,0.019145123660564423
160.0,0.017322082072496414
176.0,0.015082682482898235
192.0,0.012811701744794846
208.0,0.010882604867219925
224.0,0.009559523314237595
240.0,0.008713618852198124
256.0,0.007936936803162098
288.0,0.005863408092409372
320.0,0.004758009687066078
352.0,0.0044600809924304485
384.0,0.004217104054987431
416.0,0.004224502015858889
448.0,0.003985777031630278
480.0,0.002867572009563446
512.0,0.001689643133431673
576.0,0.00029449089197441936
640.0,0.0006261614034883678
704.0,0.0018269902793690562
768.0,0.005007211584597826
832.0,0.007057673763483763
896.0,0.0073334937915205956
960.0,0.009865252301096916
1024.0,0.010834740474820137
1152.0,0.006246843375265598
1280.0,-0.0004197125672362745
1408.0,-0.0011833886383101344
1536.0,0.0014552229549735785
1664.0,0.0002693664573598653
1792.0,0.0005092881619930267
1920.0,0.007340742275118828
2048.0,0.008072800002992153
2304.0,0.00251707062125206
2560.0,-0.0009150356636382639
2816.0,0.0027362334076315165
3072.0,0.007694161497056484
3328.0,0.004515784792602062
3584.0,-0.005887005478143692
3840.0,-0.008115137927234173
4096.0,-0.006390672642737627
4608.0,-0.00900380127131939
5120.0,0.0017750095576047897
5632.0,-0.008582153357565403
6144.0,-0.005118073429912329
6656.0,-0.010105131193995476
7168.0,-0.008381563238799572
7680.0,-0.007346942089498043
8192.0,-0.0019998368807137012
end
