version,3.0
numOfCh,1
type,point
parent_name,34766_0dot08-0dot1
ch_type,1_1
kcount,1
numberNandB,1
brightnessNandB,1
carpet pos,0
pc,0
Time (ms),CH1 Auto-Correlation
1.0,0.06621619313955307
2.0,0.06555186212062836
3.0,0.06493086367845535
4.0,0.06432659178972244
5.0,0.06373043358325958
6.0,0.0631428137421608
7.0,0.06257033348083496
8.0,0.06203065067529678
9.0,0.06151141598820686
10.0,0.06101827695965767
11.0,0.060550492256879807
12.0,0.06007109582424164
13.0,0.05958166345953941
14.0,0.05911730229854584
15.0,0.05865224078297615
16.0,0.0581953190267086
18.0,0.05738421902060509
20.0,0.05664598569273949
22.0,0.055902305990457535
24.0,0.055160846561193466
26.0,0.05442363768815994
28.0,0.05369370058178902
30.0,0.05296175181865692
32.0,0.052248042076826096
36.0,0.050764475017786026
40.0,0.04920370504260063
44.0,0.04764706641435623
48.0,0.04634306579828262
52.0,0.04513144865632057
56.0,0.043925829231739044
60.0,0.04265641048550606
64.0,0.04143869876861572
72.0,0.03906984627246857
80.0,0.03675581142306328
88.0,0.034698303788900375
96.0,0.03302589803934097
104.0,0.03158951178193092
112.0,0.030024688690900803
120.0,0.02828144282102585
128.0,0.027084236964583397
144.0,0.024915596470236778
160.0,0.022785617038607597
176.0,0.020959481596946716
192.0,0.018969863653182983
208.0,0.017132200300693512
224.0,0.015618943609297276
240.0,0.01480010524392128
256.0,0.014471434988081455
288.0,0.013874538242816925
320.0,0.013002433814108372
352.0,0.01145836990326643
384.0,0.010525436140596867
416.0,0.009078418835997581
448.0,0.009034988470375538
480.0,0.009013641625642776
512.0,0.008875478059053421
576.0,0.006416887044906616
640.0,0.003599071642383933
704.0,0.0003539007739163935
768.0,-0.004199966788291931
832.0,-0.006484213750809431
896.0,-0.010028501972556114
960.0,-0.012743811123073101
1024.0,-0.010283341631293297
1152.0,-0.008883172646164894
1280.0,-0.009779746644198895
1408.0,-0.01035369373857975
1536.0,-0.008118193596601486
1664.0,-0.009373264387249947
1792.0,-0.0059232027269899845
1920.0,-0.001397650339640677
2048.0,0.0059803444892168045
2304.0,0.0044090403243899345
2560.0,0.003765756031498313
2816.0,-0.00039546986226923764
3072.0,-0.005013659596443176
3328.0,-0.004946267232298851
3584.0,-0.007824263535439968
3840.0,-0.0062011899426579475
4096.0,-0.006502948235720396
4608.0,-0.0014094087528064847
5120.0,-0.0017858468927443027
5632.0,-0.0021283836103975773
6144.0,0.014697347767651081
6656.0,0.009133541956543922
7168.0,-0.002616733079776168
7680.0,-0.006131740286946297
8192.0,0.005108100362122059
end
