version,3.0
numOfCh,1
type,point
parent_name,34766_0dot08-0dot1
ch_type,1_1
kcount,1
numberNandB,1
brightnessNandB,1
carpet pos,0
pc,0
Time (ms),CH1 Auto-Correlation
1.0,0.06946684420108795
2.0,0.06851194053888321
3.0,0.0675857812166214
4.0,0.06672710925340652
5.0,0.06595052033662796
6.0,0.06522276252508163
7.0,0.06448531895875931
8.0,0.06374623626470566
9.0,0.06303036212921143
10.0,0.06235047057271004
11.0,0.061736028641462326
12.0,0.061123769730329514
13.0,0.060460761189460754
14.0,0.05984789505600929
15.0,0.059274956583976746
16.0,0.058726999908685684
18.0,0.05761616304516792
20.0,0.05646226927638054
22.0,0.05529365316033363
24.0,0.05423601344227791
26.0,0.05323474109172821
28.0,0.05221422761678696
30.0,0.05119236186146736
32.0,0.05019538477063179
36.0,0.04836544394493103
40.0,0.04662955552339554
44.0,0.04482955485582352
48.0,0.04302829131484032
52.0,0.04127299040555954
56.0,0.03967611491680145
60.0,0.038250844925642014
64.0,0.03667869791388512
72.0,0.03352179005742073
80.0,0.031229281798005104
88.0,0.029551930725574493
96.0,0.028276313096284866
104.0,0.027543455362319946
112.0,0.026755234226584435
120.0,0.02603917196393013
128.0,0.025367315858602524
144.0,0.02436009980738163
160.0,0.022787461057305336
176.0,0.020059769973158836
192.0,0.016750624403357506
208.0,0.014358398504555225
224.0,0.012596916407346725
240.0,0.010395137593150139
256.0,0.008350872434675694
288.0,0.004888349212706089
320.0,0.0012413209769874811
352.0,-0.0011511240154504776
384.0,-0.001903336844407022
416.0,-0.0019343976164236665
448.0,-0.003419684013351798
480.0,-0.0031307339668273926
512.0,-0.0009358158567920327
576.0,0.0015329786110669374
640.0,0.003284772625193
704.0,0.00773303909227252
768.0,0.011560685932636261
832.0,0.009448419325053692
896.0,0.005659809801727533
960.0,0.00302833691239357
1024.0,-0.0007853006827645004
1152.0,-0.004970158915966749
1280.0,-0.01108341570943594
1408.0,-0.011205548420548439
1536.0,-0.010454547591507435
1664.0,-0.006089168135076761
1792.0,0.0005839318037033081
1920.0,0.0023740483447909355
2048.0,-0.005920047871768475
2304.0,-0.008626890368759632
2560.0,0.004283385816961527
2816.0,-0.0005342574440874159
3072.0,-0.01318394485861063
3328.0,-0.008166422136127949
3584.0,-0.006882004905492067
3840.0,-0.0010597289074212313
4096.0,-0.0038226565811783075
4608.0,0.00332096335478127
5120.0,0.0011369017884135246
5632.0,0.009985891170799732
6144.0,0.006080674473196268
6656.0,0.01123833004385233
7168.0,-0.003936360590159893
7680.0,-0.017432354390621185
8192.0,-0.0069982330314815044
end
