version,3.0
numOfCh,1
type,point
parent_name,34766_0dot08-0dot1
ch_type,1_1
kcount,1
numberNandB,1
brightnessNandB,1
carpet pos,0
pc,0
Time (ms),CH1 Auto-Correlation
1.0,0.06674860417842865
2.0,0.06590693444013596
3.0,0.06511431932449341
4.0,0.06436923891305923
5.0,0.06360114365816116
6.0,0.06283129006624222
7.0,0.0621776357293129
8.0,0.06156785786151886
9.0,0.06099662929773331
10.0,0.060456328094005585
11.0,0.059994108974933624
12.0,0.05953563377261162
13.0,0.05905706435441971
14.0,0.05855174362659454
15.0,0.05810131877660751
16.0,0.05765538662672043
18.0,0.05660518258810043
20.0,0.05562211573123932
22.0,0.0546727254986763
24.0,0.05378829687833786
26.0,0.052943941205739975
28.0,0.05215059965848923
30.0,0.05135507881641388
32.0,0.05061765015125275
36.0,0.049018073827028275
40.0,0.047392286360263824
44.0,0.04578009620308876
48.0,0.04406600445508957
52.0,0.0424799919128418
56.0,0.04082819074392319
60.0,0.03925075754523277
64.0,0.03778786584734917
72.0,0.03485292196273804
80.0,0.03223516792058945
88.0,0.029674772173166275
96.0,0.027327362447977066
104.0,0.025025244802236557
112.0,0.022921180352568626
120.0,0.02116122655570507
128.0,0.01965836063027382
144.0,0.016881661489605904
160.0,0.015251979231834412
176.0,0.014212921261787415
192.0,0.013597255572676659
208.0,0.013581737875938416
224.0,0.014321557246148586
240.0,0.015394752845168114
256.0,0.016359493136405945
288.0,0.01720133051276207
320.0,0.017117619514465332
352.0,0.01571444794535637
384.0,0.013087649829685688
416.0,0.010210422798991203
448.0,0.008477387018501759
480.0,0.006278546527028084
512.0,0.004236357286572456
576.0,0.0027895828243345022
640.0,0.002361655468121171
704.0,0.0037181884981691837
768.0,0.0034975712187588215
832.0,0.001427795854397118
896.0,-0.0030703507363796234
960.0,-0.006208198610693216
1024.0,-0.007519557140767574
1152.0,-0.004091236740350723
1280.0,0.0018148577073588967
1408.0,0.0009864451130852103
1536.0,-0.00032836059108376503
1664.0,-0.0018360135145485401
1792.0,0.0007160301902331412
1920.0,0.004526915028691292
2048.0,0.0034430911764502525
2304.0,-0.0017950907349586487
2560.0,-0.002553714672103524
2816.0,0.006518260575830936
3072.0,0.010139420628547668
3328.0,0.0007796298596076667
3584.0,-0.005291842855513096
3840.0,-0.00933003704994917
4096.0,-0.008181794546544552
4608.0,-0.013016835786402225
5120.0,-0.008675689809024334
5632.0,-0.007982064969837666
6144.0,9.067717655852903e-06
6656.0,-0.005690663121640682
7168.0,-0.01308007724583149
7680.0,-0.013814147561788559
8192.0,-0.004318488296121359
end
