version,3.0
numOfCh,1
type,point
parent_name,34766_0dot08-0dot1
ch_type,1_1
kcount,1
numberNandB,1
brightnessNandB,1
carpet pos,0
pc,0
Time (ms),CH1 Auto-Correlation
1.0,0.09442107379436493
2.0,0.09383432567119598
3.0,0.09327216446399689
4.0,0.09273740649223328
5.0,0.09221696853637695
6.0,0.09171568602323532
7.0,0.09122774004936218
8.0,0.09074290841817856
9.0,0.09027663618326187
10.0,0.08983375132083893
11.0,0.08939740061759949
12.0,0.08896998316049576
13.0,0.08856239169836044
14.0,0.0881621241569519
15.0,0.0877586379647255
16.0,0.0873829796910286
18.0,0.08660399913787842
20.0,0.08585580438375473
22.0,0.08511637896299362
24.0,0.0844038873910904
26.0,0.08369306474924088
28.0,0.0830521509051323
30.0,0.0824492797255516
32.0,0.0819406509399414
36.0,0.08099212497472763
40.0,0.07991555333137512
44.0,0.07885963469743729
48.0,0.07784507423639297
52.0,0.07686454057693481
56.0,0.07584542781114578
60.0,0.07486503571271896
64.0,0.0739346295595169
72.0,0.07214914262294769
80.0,0.07028494775295258
88.0,0.06833971291780472
96.0,0.06637944281101227
104.0,0.06449296325445175
112.0,0.06279006600379944
120.0,0.06117464229464531
128.0,0.05988554656505585
144.0,0.05708593502640724
160.0,0.05435798689723015
176.0,0.05197819322347641
192.0,0.04905645176768303
208.0,0.045818936079740524
224.0,0.04269682615995407
240.0,0.039173804223537445
256.0,0.03592591732740402
288.0,0.030730051919817924
320.0,0.027038266882300377
352.0,0.024233028292655945
384.0,0.022671783342957497
416.0,0.0216019619256258
448.0,0.020870139822363853
480.0,0.01992117241024971
512.0,0.019617244601249695
576.0,0.01834808848798275
640.0,0.018583927303552628
704.0,0.020145850256085396
768.0,0.019461795687675476
832.0,0.014424867928028107
896.0,0.006015247665345669
960.0,-0.0004913843586109579
1024.0,-0.0076209004037082195
1152.0,-0.01813962310552597
1280.0,-0.01649973914027214
1408.0,-0.009104994125664234
1536.0,-0.005228208377957344
1664.0,-0.00684260344132781
1792.0,-0.006510759703814983
1920.0,-0.006970370654016733
2048.0,-0.0042367959395051
2304.0,0.000819559209048748
2560.0,0.0007204526336863637
2816.0,0.005629654508084059
3072.0,0.00144626060500741
3328.0,-0.0012782699195668101
3584.0,0.01168636605143547
3840.0,0.010867245495319366
4096.0,0.0002699660835787654
4608.0,-0.01058486569672823
5120.0,-0.03362378850579262
5632.0,-0.024517083540558815
6144.0,0.0009165973751805723
6656.0,-0.005003262776881456
7168.0,-0.004993617068976164
7680.0,0.002902572276070714
8192.0,-0.006721646059304476
end
