version,3.0
numOfCh,1
type,point
parent_name,34766_0dot08-0dot1
ch_type,1_1
kcount,1
numberNandB,1
brightnessNandB,1
carpet pos,0
pc,0
Time (ms),CH1 Auto-Correlation
1.0,0.06520461291074753
2.0,0.06451115012168884
3.0,0.06383459270000458
4.0,0.06313840299844742
5.0,0.06240873783826828
6.0,0.061759356409311295
7.0,0.06111621856689453
8.0,0.060502346605062485
9.0,0.05990254506468773
10.0,0.05930043384432793
11.0,0.05870218947529793
12.0,0.05813472345471382
13.0,0.05758010223507881
14.0,0.057031407952308655
15.0,0.056498024612665176
16.0,0.05597430840134621
18.0,0.05493873357772827
20.0,0.05396650359034538
22.0,0.053013984113931656
24.0,0.0520813949406147
26.0,0.05117011442780495
28.0,0.050337404012680054
30.0,0.049518074840307236
32.0,0.04871572181582451
36.0,0.04712441936135292
40.0,0.04554302990436554
44.0,0.0439261719584465
48.0,0.04235238954424858
52.0,0.04092782735824585
56.0,0.039547741413116455
60.0,0.038222361356019974
64.0,0.03695475310087204
72.0,0.03449148312211037
80.0,0.032635729759931564
88.0,0.031117796897888184
96.0,0.02969987876713276
104.0,0.028407802805304527
112.0,0.02716553583741188
120.0,0.026050647720694542
128.0,0.02522181160748005
144.0,0.02356342412531376
160.0,0.021863294765353203
176.0,0.02019546926021576
192.0,0.01885979436337948
208.0,0.017358293756842613
224.0,0.015461588278412819
240.0,0.013522282242774963
256.0,0.011962107382714748
288.0,0.010488924570381641
320.0,0.01013221312314272
352.0,0.0088753467425704
384.0,0.007160368841141462
416.0,0.004464779980480671
448.0,0.0021089816000312567
480.0,-0.0001513576426077634
512.0,-0.002577528590336442
576.0,-0.007973894476890564
640.0,-0.0094600273296237
704.0,-0.006007390562444925
768.0,-0.003207801841199398
832.0,0.0009431202197447419
896.0,-4.15892900491599e-05
960.0,-0.0011239730520173907
1024.0,-0.0039179641753435135
1152.0,-0.003970478195697069
1280.0,-0.006764063611626625
1408.0,-0.014358322136104107
1536.0,-0.012751856818795204
1664.0,-0.009811327792704105
1792.0,-0.010049899108707905
1920.0,-0.01044080313295126
2048.0,-0.005733112338930368
2304.0,1.1211272067157552e-05
2560.0,0.0050628893077373505
2816.0,0.0037018887232989073
3072.0,-0.0009966384386643767
3328.0,-0.0018438344122841954
3584.0,0.0021121869795024395
3840.0,0.0036784519907087088
4096.0,0.0005592190427705646
4608.0,-0.006625797133892775
5120.0,0.006907710339874029
5632.0,0.0036298588383942842
6144.0,0.0030024664010852575
6656.0,-1.8201304555987008e-05
7168.0,-0.012055856175720692
7680.0,-0.005210599396377802
8192.0,-0.010427669622004032
end
