version,3.0
numOfCh,1
type,point
parent_name,34766_0dot08-0dot1
ch_type,1_1
kcount,1
numberNandB,1
brightnessNandB,1
carpet pos,0
pc,0
Time (ms),CH1 Auto-Correlation
1.0,0.07440295815467834
2.0,0.07353388518095016
3.0,0.0727437436580658
4.0,0.07202772796154022
5.0,0.07132384926080704
6.0,0.07064538449048996
7.0,0.07000969350337982
8.0,0.06937631964683533
9.0,0.06874652951955795
10.0,0.06810854375362396
11.0,0.06744410842657089
12.0,0.0668155699968338
13.0,0.06622781604528427
14.0,0.06566022336483002
15.0,0.06514304876327515
16.0,0.06465458124876022
18.0,0.06369919329881668
20.0,0.06277894228696823
22.0,0.06182068586349487
24.0,0.060892198234796524
26.0,0.06000717729330063
28.0,0.059060581028461456
30.0,0.05812337249517441
32.0,0.057177599519491196
36.0,0.05542801693081856
40.0,0.05377614498138428
44.0,0.05227856710553169
48.0,0.05096205696463585
52.0,0.04979579150676727
56.0,0.048701293766498566
60.0,0.04769055172801018
64.0,0.046633586287498474
72.0,0.04448755457997322
80.0,0.04211733490228653
88.0,0.039795201271772385
96.0,0.0376155860722065
104.0,0.03580806404352188
112.0,0.034150682389736176
120.0,0.03287522867321968
128.0,0.03181949257850647
144.0,0.029353199526667595
160.0,0.02636534348130226
176.0,0.023900920525193214
192.0,0.02236495353281498
208.0,0.0208837129175663
224.0,0.018147991970181465
240.0,0.015434504486620426
256.0,0.012841138988733292
288.0,0.008093621581792831
320.0,0.0035045116674154997
352.0,-0.0004699979326687753
384.0,-0.004661608021706343
416.0,-0.008570218458771706
448.0,-0.011071411892771721
480.0,-0.011858158744871616
512.0,-0.011612323112785816
576.0,-0.01069661695510149
640.0,-0.010741697624325752
704.0,-0.011449462734162807
768.0,-0.012923846021294594
832.0,-0.012711875140666962
896.0,-0.011582470498979092
960.0,-0.011084726080298424
1024.0,-0.01356919389218092
1152.0,-0.007141023874282837
1280.0,-0.0046912869438529015
1408.0,-0.0005229499074630439
1536.0,-0.0005146079347468913
1664.0,0.0025379033759236336
1792.0,0.0046025486662983894
1920.0,0.0074386317282915115
2048.0,0.009697691537439823
2304.0,0.006134545896202326
2560.0,-0.004405191633850336
2816.0,-0.013174993917346
3072.0,-0.00948752835392952
3328.0,-0.001940014655701816
3584.0,-0.00391917210072279
3840.0,-0.000949464098084718
4096.0,0.011884350329637527
4608.0,-0.0014005101984366775
5120.0,-0.0035474994219839573
5632.0,0.005703584291040897
6144.0,-0.002989416243508458
6656.0,-0.0031845499761402607
7168.0,0.00567695964127779
7680.0,0.0024651456624269485
8192.0,0.003881555749103427
end
