version,3.0
numOfCh,1
type,point
parent_name,34766_0dot08-0dot1
ch_type,1_1
kcount,1
numberNandB,1
brightnessNandB,1
carpet pos,0
pc,0
Time (ms),CH1 Auto-Correlation
1.0,0.06391146779060364
2.0,0.06329083442687988
3.0,0.06270267069339752
4.0,0.06215004250407219
5.0,0.06161575764417648
6.0,0.06107456237077713
7.0,0.06054263934493065
8.0,0.06003304198384285
9.0,0.059537678956985474
10.0,0.059070900082588196
11.0,0.058616410940885544
12.0,0.058165017515420914
13.0,0.057721804827451706
14.0,0.05728156119585037
15.0,0.05686743184924126
16.0,0.05648525431752205
18.0,0.055739596486091614
20.0,0.055055372416973114
22.0,0.054407812654972076
24.0,0.05379600077867508
26.0,0.05318896844983101
28.0,0.05256737023591995
30.0,0.051929179579019547
32.0,0.05130347982048988
36.0,0.05014820396900177
40.0,0.04903068020939827
44.0,0.047974731773138046
48.0,0.04694565758109093
52.0,0.04591428488492966
56.0,0.04482931271195412
60.0,0.043702125549316406
64.0,0.042587507516145706
72.0,0.0403776615858078
80.0,0.03843685984611511
88.0,0.036449555307626724
96.0,0.03452492132782936
104.0,0.032734211534261703
112.0,0.031241029500961304
120.0,0.029837144538760185
128.0,0.02827928029000759
144.0,0.025185298174619675
160.0,0.022201385349035263
176.0,0.01974802277982235
192.0,0.017246974632143974
208.0,0.015059646219015121
224.0,0.013743801973760128
240.0,0.013109507970511913
256.0,0.012179811485111713
288.0,0.009204128757119179
320.0,0.0065064094960689545
352.0,0.003973921295255423
384.0,0.0011857233475893736
416.0,-0.0007744218455627561
448.0,-0.002530597150325775
480.0,-0.0037953259889036417
512.0,-0.004227225668728352
576.0,-0.005583448801189661
640.0,-0.005690789315849543
704.0,-0.0028035431168973446
768.0,0.00026638456620275974
832.0,0.0017866286216303706
896.0,-0.001082095899619162
960.0,-0.0048015061765909195
1024.0,-0.007315929513424635
1152.0,-0.00907112192362547
1280.0,-0.006630100309848785
1408.0,-0.006921764463186264
1536.0,-0.005192052107304335
1664.0,-0.004212300293147564
1792.0,-0.005249279551208019
1920.0,-0.00534859811887145
2048.0,-0.00017323627253063023
2304.0,-0.0020074902568012476
2560.0,-0.0029341555200517178
2816.0,-0.0007478356128558517
3072.0,0.0039138831198215485
3328.0,0.0020027614664286375
3584.0,0.006999142002314329
3840.0,0.005180862732231617
4096.0,-0.002024495042860508
4608.0,-0.007102848030626774
5120.0,-0.011022930033504963
5632.0,-0.002850965363904834
6144.0,0.0047719478607177734
6656.0,0.00787389650940895
7168.0,-0.0005975575186312199
7680.0,-0.008378407917916775
8192.0,0.004349031485617161
end
