version,3.0
numOfCh,1
type,point
parent_name,34766_0dot08-0dot1
ch_type,1_1
kcount,1
numberNandB,1
brightnessNandB,1
carpet pos,0
pc,0
Time (ms),CH1 Auto-Correlation
1.0,0.0653173178434372
2.0,0.06458326429128647
3.0,0.06388402730226517
4.0,0.06322028487920761
5.0,0.06260387599468231
6.0,0.061987556517124176
7.0,0.06142114847898483
8.0,0.06085365265607834
9.0,0.060283809900283813
10.0,0.05973831191658974
11.0,0.05918804556131363
12.0,0.05864827334880829
13.0,0.05814647302031517
14.0,0.05766444653272629
15.0,0.05718076229095459
16.0,0.05670425295829773
18.0,0.055732667446136475
20.0,0.05475873872637749
22.0,0.053880732506513596
24.0,0.05299021303653717
26.0,0.05210438743233681
28.0,0.051202911883592606
30.0,0.05031641200184822
32.0,0.04944085702300072
36.0,0.047873999923467636
40.0,0.04636147990822792
44.0,0.044907428324222565
48.0,0.04356244206428528
52.0,0.04233840852975845
56.0,0.041161466389894485
60.0,0.04010313004255295
64.0,0.039125584065914154
72.0,0.0370027981698513
80.0,0.034889768809080124
88.0,0.03294840082526207
96.0,0.031014136970043182
104.0,0.029014388099312782
112.0,0.027132831513881683
120.0,0.02554151974618435
128.0,0.024315571412444115
144.0,0.022388964891433716
160.0,0.020392488688230515
176.0,0.0186065211892128
192.0,0.017037363722920418
208.0,0.015157992020249367
224.0,0.013411951251327991
240.0,0.01227009017020464
256.0,0.0120458472520113
288.0,0.011934151872992516
320.0,0.011393971741199493
352.0,0.010720998980104923
384.0,0.009402801282703876
416.0,0.007671141065657139
448.0,0.004110492300242186
480.0,0.0010627936571836472
512.0,-0.0007338859140872955
576.0,-0.0021959661971777678
640.0,-0.0026553096249699593
704.0,-0.0007459351909346879
768.0,-0.0001792373659554869
832.0,4.8342342779506e-05
896.0,-0.0004936507320962846
960.0,0.0015292890602722764
1024.0,0.0004964860854670405
1152.0,-0.0007190404576249421
1280.0,0.0010720845311880112
1408.0,-0.001994242426007986
1536.0,-0.00690246419981122
1664.0,-0.0032912478782236576
1792.0,-0.0019417126895859838
1920.0,-2.211649734817911e-05
2048.0,-0.00014840746007394046
2304.0,-0.0064787729643285275
2560.0,-0.009044406935572624
2816.0,-0.00806063786149025
3072.0,-0.000905373424757272
3328.0,0.005326420068740845
3584.0,0.005304787307977676
3840.0,-0.0020518130622804165
4096.0,-0.0025394840631633997
4608.0,-0.006133341696113348
5120.0,0.0036370602902024984
5632.0,0.003154328092932701
6144.0,-0.0001930629659909755
6656.0,-0.003342487383633852
7168.0,-0.0017814969178289175
7680.0,-0.0044255247339606285
8192.0,-0.0045246547088027
end
