version,3.0
numOfCh,1
type,point
parent_name,34766_0dot08-0dot1
ch_type,1_1
kcount,1
numberNandB,1
brightnessNandB,1
carpet pos,0
pc,0
Time (ms),CH1 Auto-Correlation
1.0,0.06243541091680527
2.0,0.0618872307240963
3.0,0.06134364381432533
4.0,0.06082184612751007
5.0,0.06030922383069992
6.0,0.059796713292598724
7.0,0.059273749589920044
8.0,0.05874692276120186
9.0,0.05825137719511986
10.0,0.05775763466954231
11.0,0.057271577417850494
12.0,0.05677886679768562
13.0,0.05630089342594147
14.0,0.055850643664598465
15.0,0.055398643016815186
16.0,0.05494088679552078
18.0,0.05406869202852249
20.0,0.05321154370903969
22.0,0.05235786736011505
24.0,0.051552481949329376
26.0,0.050778828561306
28.0,0.05005501210689545
30.0,0.04936907812952995
32.0,0.048667483031749725
36.0,0.047351401299238205
40.0,0.046150848269462585
44.0,0.04508146271109581
48.0,0.044094037264585495
52.0,0.0431000217795372
56.0,0.04215485230088234
60.0,0.041147731244564056
64.0,0.04013196751475334
72.0,0.03826459124684334
80.0,0.03671599552035332
88.0,0.03525398299098015
96.0,0.03397344425320625
104.0,0.03283509984612465
112.0,0.03165728598833084
120.0,0.030385076999664307
128.0,0.029297642409801483
144.0,0.02777029573917389
160.0,0.02640458010137081
176.0,0.02545951120555401
192.0,0.025001568719744682
208.0,0.02436993271112442
224.0,0.02349226176738739
240.0,0.022804295644164085
256.0,0.022376297041773796
288.0,0.022243142127990723
320.0,0.021170970052480698
352.0,0.020657988265156746
384.0,0.020342841744422913
416.0,0.019754596054553986
448.0,0.018311819061636925
480.0,0.01620095781981945
512.0,0.015482044778764248
576.0,0.015350266359746456
640.0,0.015097870491445065
704.0,0.013776191510260105
768.0,0.013006648980081081
832.0,0.011947449296712875
896.0,0.008493919856846333
960.0,0.006015722639858723
1024.0,0.007551164366304874
1152.0,0.007288631983101368
1280.0,0.00041693641105666757
1408.0,-0.006272464524954557
1536.0,-0.005565733183175325
1664.0,-0.00752977142110467
1792.0,-0.006675445940345526
1920.0,-0.004773057531565428
2048.0,-0.008634052239358425
2304.0,-0.0018271217122673988
2560.0,0.00199383357539773
2816.0,0.005778207443654537
3072.0,0.005136563442647457
3328.0,-0.0008351412834599614
3584.0,0.008634233847260475
3840.0,0.006001284345984459
4096.0,0.0013934520538896322
4608.0,-0.006117755547165871
5120.0,-0.004398982040584087
5632.0,0.0009228289127349854
6144.0,0.0011861736420542002
6656.0,-0.00342257390730083
7168.0,-0.010058560408651829
7680.0,-0.01420603971928358
8192.0,-0.019939811900258064
end
