version,3.0
numOfCh,1
type,point
parent_name,34766_0dot08-0dot1
ch_type,1_1
kcount,1
numberNandB,1
brightnessNandB,1
carpet pos,0
pc,0
Time (ms),CH1 Auto-Correlation
1.0,0.0805816501379013
2.0,0.07976754009723663
3.0,0.07897460460662842
4.0,0.0782158374786377
5.0,0.07751013338565826
6.0,0.07679090648889542
7.0,0.07611484825611115
8.0,0.07543031871318817
9.0,0.07473336160182953
10.0,0.0740487352013588
11.0,0.07336381822824478
12.0,0.07271427661180496
13.0,0.07209023088216782
14.0,0.07147271931171417
15.0,0.07086710631847382
16.0,0.07024399191141129
18.0,0.06907711923122406
20.0,0.06799332052469254
22.0,0.06697382032871246
24.0,0.06607463210821152
26.0,0.06522005796432495
28.0,0.06438282877206802
30.0,0.06355158984661102
32.0,0.06262432038784027
36.0,0.06073565036058426
40.0,0.05892680957913399
44.0,0.057369500398635864
48.0,0.05609653890132904
52.0,0.05495171993970871
56.0,0.05391133204102516
60.0,0.052877429872751236
64.0,0.051762599498033524
72.0,0.0494297631084919
80.0,0.04723944887518883
88.0,0.0453784354031086
96.0,0.043279360979795456
104.0,0.04131447151303291
112.0,0.03942760080099106
120.0,0.037827637046575546
128.0,0.036305639892816544
144.0,0.033588189631700516
160.0,0.030655033886432648
176.0,0.027857083827257156
192.0,0.02545545995235443
208.0,0.02390323020517826
224.0,0.022562431171536446
240.0,0.020238546654582024
256.0,0.017088402062654495
288.0,0.012388969771564007
320.0,0.008810828439891338
352.0,0.005981102120131254
384.0,0.006037590559571981
416.0,0.005654516629874706
448.0,0.003049234626814723
480.0,0.0015515119303017855
512.0,-0.0002298041363246739
576.0,0.00442716758698225
640.0,0.009249153546988964
704.0,0.013508752919733524
768.0,0.01746520958840847
832.0,0.017101159319281578
896.0,0.01345369964838028
960.0,0.010670637711882591
1024.0,0.00500936945900321
1152.0,-0.0007085053366608918
1280.0,-0.002774988766759634
1408.0,-0.005343821365386248
1536.0,-0.0030843981076031923
1664.0,-0.00327141466550529
1792.0,-0.005790313705801964
1920.0,-0.007275930140167475
2048.0,-0.014605208300054073
2304.0,-0.021123504266142845
2560.0,-0.007844049483537674
2816.0,-0.0008301703492179513
3072.0,-0.006257364992052317
3328.0,-0.010426631197333336
3584.0,-0.0020283260382711887
3840.0,0.004480774514377117
4096.0,-0.004698172211647034
4608.0,-0.004478211514651775
5120.0,-0.006380291655659676
5632.0,-0.013078326359391212
6144.0,-0.013364944607019424
6656.0,0.013542821630835533
7168.0,0.0021938339341431856
7680.0,0.03132335841655731
8192.0,0.015215080231428146
end
