version,3.0
numOfCh,1
type,point
parent_name,34766_0dot08-0dot1
ch_type,1_1
kcount,1
numberNandB,1
brightnessNandB,1
carpet pos,0
pc,0
Time (ms),CH1 Auto-Correlation
1.0,0.06689603626728058
2.0,0.0660306066274643
3.0,0.06517956405878067
4.0,0.06440050154924393
5.0,0.0636669173836708
6.0,0.06295079737901688
7.0,0.06231414154171944
8.0,0.06167900562286377
9.0,0.06110294163227081
10.0,0.06051399186253548
11.0,0.059989914298057556
12.0,0.05949016287922859
13.0,0.05901740863919258
14.0,0.058553051203489304
15.0,0.058144256472587585
16.0,0.05772736296057701
18.0,0.05689220875501633
20.0,0.05599329248070717
22.0,0.0550844743847847
24.0,0.05410169064998627
26.0,0.05313713103532791
28.0,0.052212659269571304
30.0,0.05137190595269203
32.0,0.050587937235832214
36.0,0.04910233989357948
40.0,0.04760129749774933
44.0,0.04625153914093971
48.0,0.045185476541519165
52.0,0.044170815497636795
56.0,0.04317859187722206
60.0,0.04217441380023956
64.0,0.04115299880504608
72.0,0.039392899721860886
80.0,0.03747960180044174
88.0,0.035608332604169846
96.0,0.033839598298072815
104.0,0.032311275601387024
112.0,0.03071933425962925
120.0,0.029436713084578514
128.0,0.028497589752078056
144.0,0.026942649856209755
160.0,0.025271983817219734
176.0,0.023600369691848755
192.0,0.022526226937770844
208.0,0.022191690281033516
224.0,0.02185029350221157
240.0,0.021169321611523628
256.0,0.019612619653344154
288.0,0.01551090832799673
320.0,0.011116594076156616
352.0,0.010434598661959171
384.0,0.009971045888960361
416.0,0.008808739483356476
448.0,0.007173812482506037
480.0,0.004559387918561697
512.0,0.0019321125000715256
576.0,-0.00025246565928682685
640.0,-0.0012924832990393043
704.0,0.0001841610501287505
768.0,-0.00026249419897794724
832.0,-0.0033703206572681665
896.0,-0.006691614631563425
960.0,-0.008204353973269463
1024.0,-0.00860713329166174
1152.0,-0.006219895556569099
1280.0,-0.005944373551756144
1408.0,-0.008615360595285892
1536.0,-0.00997768621891737
1664.0,-0.012729653157293797
1792.0,-0.013090395368635654
1920.0,-0.010690216906368732
2048.0,-0.010958658531308174
2304.0,-0.020012758672237396
2560.0,-0.015365267172455788
2816.0,0.002837084699422121
3072.0,0.007917135953903198
3328.0,0.011587461456656456
3584.0,0.006208354141563177
3840.0,0.0055212597362697124
4096.0,0.009182367473840714
4608.0,0.007285687141120434
5120.0,-0.0026049937587231398
5632.0,-0.005595679394900799
6144.0,-0.0012461562873795629
6656.0,-0.0009982050396502018
7168.0,-0.0063028703443706036
7680.0,0.00855298526585102
8192.0,-0.007596211973577738
end
