version,3.0
numOfCh,1
type,point
parent_name,34766_0dot08-0dot1
ch_type,1_1
kcount,1
numberNandB,1
brightnessNandB,1
carpet pos,0
pc,0
Time (ms),CH1 Auto-Correlation
1.0,0.09536436200141907
2.0,0.0945829302072525
3.0,0.09385961294174194
4.0,0.09316915273666382
5.0,0.09247612208127975
6.0,0.09179552644491196
7.0,0.0911538302898407
8.0,0.09052789956331253
9.0,0.08992820233106613
10.0,0.08936412632465363
11.0,0.0888071060180664
12.0,0.08822884410619736
13.0,0.08769010007381439
14.0,0.08717731386423111
15.0,0.08667178452014923
16.0,0.08617495745420456
18.0,0.08517350256443024
20.0,0.0842624232172966
22.0,0.08335284143686295
24.0,0.08244860172271729
26.0,0.08154964447021484
28.0,0.08063685894012451
30.0,0.07976190000772476
32.0,0.07888689637184143
36.0,0.07715160399675369
40.0,0.07540450990200043
44.0,0.07371586561203003
48.0,0.07215128093957901
52.0,0.07067050039768219
56.0,0.0691472515463829
60.0,0.06769472360610962
64.0,0.0662088692188263
72.0,0.06353753805160522
80.0,0.060963358730077744
88.0,0.05864892899990082
96.0,0.056059613823890686
104.0,0.053224947303533554
112.0,0.05058605223894119
120.0,0.048314593732357025
128.0,0.04645707830786705
144.0,0.04199535772204399
160.0,0.03777375817298889
176.0,0.034289151430130005
192.0,0.031378768384456635
208.0,0.02883455716073513
224.0,0.026662753894925117
240.0,0.025009913370013237
256.0,0.022865615785121918
288.0,0.019075147807598114
320.0,0.016454843804240227
352.0,0.014279181137681007
384.0,0.012478361837565899
416.0,0.010869127698242664
448.0,0.009840179234743118
480.0,0.0096445232629776
512.0,0.009786715731024742
576.0,0.01015827339142561
640.0,0.010829177685081959
704.0,0.01640591397881508
768.0,0.01880553551018238
832.0,0.02001071721315384
896.0,0.022204479202628136
960.0,0.02071169950067997
1024.0,0.016432378441095352
1152.0,0.011763048358261585
1280.0,0.007507109548896551
1408.0,0.0003431591612752527
1536.0,-0.004583599511533976
1664.0,-0.007824338041245937
1792.0,-0.010429694317281246
1920.0,-0.0173562653362751
2048.0,-0.013023202307522297
2304.0,-0.00555071048438549
2560.0,-0.01426251046359539
2816.0,-0.01635660044848919
3072.0,-0.012877359054982662
3328.0,-0.006037598941475153
3584.0,-0.008998779579997063
3840.0,0.00654665008187294
4096.0,0.010941942222416401
4608.0,0.01482410728931427
5120.0,0.014667270705103874
5632.0,-0.0025716915261000395
6144.0,-0.012849319726228714
6656.0,-0.0227693822234869
7168.0,-0.019788896664977074
7680.0,-0.0235405545681715
8192.0,-0.011361311189830303
end
