version,3.0
numOfCh,1
type,point
parent_name,34766_0dot08-0dot1
ch_type,1_1
kcount,1
numberNandB,1
brightnessNandB,1
carpet pos,0
pc,0
Time (ms),CH1 Auto-Correlation
1.0,0.07709673792123795
2.0,0.07635515183210373
3.0,0.07560066133737564
4.0,0.07486636936664581
5.0,0.07414910197257996
6.0,0.07346907258033752
7.0,0.07284262776374817
8.0,0.07220490276813507
9.0,0.07157883048057556
10.0,0.07094833254814148
11.0,0.07032856345176697
12.0,0.06969660520553589
13.0,0.06911800056695938
14.0,0.06853697448968887
15.0,0.06797467917203903
16.0,0.06743652373552322
18.0,0.06641226261854172
20.0,0.06539692729711533
22.0,0.06437953561544418
24.0,0.06341920047998428
26.0,0.06250592321157455
28.0,0.061651941388845444
30.0,0.06076798215508461
32.0,0.05990951880812645
36.0,0.05832546204328537
40.0,0.05692654848098755
44.0,0.055578213185071945
48.0,0.05438562110066414
52.0,0.05316075682640076
56.0,0.051937323063611984
60.0,0.0507209487259388
64.0,0.049456994980573654
72.0,0.04752692952752113
80.0,0.04601767286658287
88.0,0.04470790550112724
96.0,0.043480418622493744
104.0,0.0422864705324173
112.0,0.040950510650873184
120.0,0.039440106600522995
128.0,0.038237184286117554
144.0,0.035757504403591156
160.0,0.03379329293966293
176.0,0.032362233847379684
192.0,0.03185324743390083
208.0,0.03153340145945549
224.0,0.030491774901747704
240.0,0.029608361423015594
256.0,0.02850266732275486
288.0,0.02725464291870594
320.0,0.027382129803299904
352.0,0.026267636567354202
384.0,0.024551402777433395
416.0,0.023147769272327423
448.0,0.02269075997173786
480.0,0.021639468148350716
512.0,0.02121720090508461
576.0,0.01757487654685974
640.0,0.014180337078869343
704.0,0.014123952016234398
768.0,0.012307939119637012
832.0,0.01007781084626913
896.0,0.010524101555347443
960.0,0.010373706929385662
1024.0,0.00730291660875082
1152.0,0.001967745367437601
1280.0,0.0015462418086826801
1408.0,0.0025085704401135445
1536.0,0.0008132117800414562
1664.0,0.0034034913405776024
1792.0,0.0065683359280228615
1920.0,0.0071265907026827335
2048.0,0.009563359431922436
2304.0,0.003809735644608736
2560.0,0.0034676671493798494
2816.0,-0.0008461634279228747
3072.0,-0.0026419886853545904
3328.0,-0.005407371092587709
3584.0,-0.0039711217395961285
3840.0,-0.009081253781914711
4096.0,-0.00879591517150402
4608.0,-0.00704703014343977
5120.0,-0.012647591531276703
5632.0,-0.02455800212919712
6144.0,-0.014688538387417793
6656.0,-0.0035173611249774694
7168.0,-0.013503793627023697
7680.0,-0.025103246793150902
8192.0,-0.021222902461886406
end
