version,3.0
numOfCh,1
type,point
parent_name,34766_0dot08-0dot1
ch_type,1_1
kcount,1
numberNandB,1
brightnessNandB,1
carpet pos,0
pc,0
Time (ms),CH1 Auto-Correlation
1.0,0.07814580947160721
2.0,0.07735293358564377
3.0,0.07658462226390839
4.0,0.075827457010746
5.0,0.07510564476251602
6.0,0.07441777735948563
7.0,0.07373201847076416
8.0,0.0730501264333725
9.0,0.07237707078456879
10.0,0.07177369296550751
11.0,0.07116644829511642
12.0,0.07056224346160889
13.0,0.06995417177677155
14.0,0.06936236470937729
15.0,0.06879038363695145
16.0,0.06821579486131668
18.0,0.06711661070585251
20.0,0.06603562831878662
22.0,0.06500180065631866
24.0,0.06399298459291458
26.0,0.06299761682748795
28.0,0.06198476254940033
30.0,0.060954343527555466
32.0,0.059973329305648804
36.0,0.058021727949380875
40.0,0.05606802552938461
44.0,0.05426378175616264
48.0,0.05246669799089432
52.0,0.05074169859290123
56.0,0.04911216348409653
60.0,0.04756869375705719
64.0,0.045979373157024384
72.0,0.043249912559986115
80.0,0.04095712676644325
88.0,0.03892173990607262
96.0,0.0370277538895607
104.0,0.035564322024583817
112.0,0.03420580178499222
120.0,0.032600708305835724
128.0,0.03061557561159134
144.0,0.026590518653392792
160.0,0.022597841918468475
176.0,0.018872924149036407
192.0,0.015960903838276863
208.0,0.014278088696300983
224.0,0.013170717284083366
240.0,0.012939092703163624
256.0,0.012703870423138142
288.0,0.011840973049402237
320.0,0.010796491988003254
352.0,0.009199310094118118
384.0,0.008687100373208523
416.0,0.008624069392681122
448.0,0.007669867016375065
480.0,0.007624416146427393
512.0,0.006473540794104338
576.0,0.003804705338552594
640.0,0.0033633559942245483
704.0,0.0004754391557071358
768.0,-0.0010233893990516663
832.0,-0.004216082859784365
896.0,-0.004631181713193655
960.0,-0.006540592759847641
1024.0,-0.010459787212312222
1152.0,-0.005154630169272423
1280.0,-0.0010828570229932666
1408.0,0.0030195678118616343
1536.0,-0.002009811345487833
1664.0,-0.007046217564493418
1792.0,-0.008093032985925674
1920.0,0.000554315687622875
2048.0,0.005211857613176107
2304.0,-0.005694956984370947
2560.0,-0.004253951832652092
2816.0,0.001509890891611576
3072.0,0.008711996488273144
3328.0,0.0034879993181675673
3584.0,0.00252236588858068
3840.0,-0.003550618886947632
4096.0,-0.006414860021322966
4608.0,-0.00032925515552051365
5120.0,-0.006513239815831184
5632.0,-0.005959366448223591
6144.0,-0.00595585722476244
6656.0,0.005526633467525244
7168.0,-0.006561289541423321
7680.0,0.004460582975298166
8192.0,-0.011119592003524303
end
