version,3.0
numOfCh,1
type,point
parent_name,34766_0dot08-0dot1
ch_type,1_1
kcount,1
numberNandB,1
brightnessNandB,1
carpet pos,0
pc,0
Time (ms),CH1 Auto-Correlation
1.0,0.058363597840070724
2.0,0.0578286312520504
3.0,0.05731012672185898
4.0,0.05681544542312622
5.0,0.056330643594264984
6.0,0.0558418333530426
7.0,0.055355556309223175
8.0,0.05487324669957161
9.0,0.054401323199272156
10.0,0.05395025759935379
11.0,0.05351117253303528
12.0,0.05307665094733238
13.0,0.052641287446022034
14.0,0.052206289023160934
15.0,0.05177957937121391
16.0,0.051379937678575516
18.0,0.050576262176036835
20.0,0.04981105029582977
22.0,0.049084022641181946
24.0,0.04837179183959961
26.0,0.047686222940683365
28.0,0.04700872674584389
30.0,0.046345923095941544
32.0,0.04570331424474716
36.0,0.04446958005428314
40.0,0.04325009509921074
44.0,0.04207538440823555
48.0,0.041006844490766525
52.0,0.039934225380420685
56.0,0.03881920129060745
60.0,0.03773200511932373
64.0,0.03672090172767639
72.0,0.034823961555957794
80.0,0.03310097008943558
88.0,0.03170105442404747
96.0,0.030486280098557472
104.0,0.029387598857283592
112.0,0.02851170115172863
120.0,0.027823559939861298
128.0,0.027255691587924957
144.0,0.026573095470666885
160.0,0.026100516319274902
176.0,0.0257249865680933
192.0,0.025889791548252106
208.0,0.026462014764547348
224.0,0.02670382708311081
240.0,0.02622777409851551
256.0,0.025746019557118416
288.0,0.025654386729002
320.0,0.024229982867836952
352.0,0.021547168493270874
384.0,0.01931328885257244
416.0,0.017414938658475876
448.0,0.016997655853629112
480.0,0.016618747264146805
512.0,0.016402214765548706
576.0,0.01700938493013382
640.0,0.015014047734439373
704.0,0.012053081765770912
768.0,0.010116302408277988
832.0,0.01033302117139101
896.0,0.008790479972958565
960.0,0.006154567468911409
1024.0,0.006383352447301149
1152.0,0.00672947196289897
1280.0,0.0017490776954218745
1408.0,0.0009123565978370607
1536.0,0.002317155944183469
1664.0,0.004353634547442198
1792.0,0.0026504704728722572
1920.0,-0.00040594738675281405
2048.0,-0.002110973699018359
2304.0,-0.0005093718064017594
2560.0,-0.0022446613293141127
2816.0,-0.004229965154081583
3072.0,-0.006305995862931013
3328.0,-0.007517396006733179
3584.0,-0.01495306845754385
3840.0,-0.016586221754550934
4096.0,-0.01627633348107338
4608.0,-0.012695799581706524
5120.0,-0.00916166789829731
5632.0,-0.007915378548204899
6144.0,-0.014257359318435192
6656.0,-0.01075625978410244
7168.0,0.005438184831291437
7680.0,0.012229353189468384
8192.0,0.012347987852990627
end
