version,3.0
numOfCh,1
type,point
parent_name,ff67b_0dot2-1dot0
ch_type,1_1
kcount,1
numberNandB,1
brightnessNandB,1
carpet pos,0
pc,0
Time (ms),CH1 Auto-Correlation
1.0,0.019999036565423012
2.0,0.01960739679634571
3.0,0.019238723441958427
4.0,0.018890803679823875
5.0,0.018539778888225555
6.0,0.018208470195531845
7.0,0.017892129719257355
8.0,0.017583273351192474
9.0,0.017276722937822342
10.0,0.016994135454297066
11.0,0.01672437973320484
12.0,0.016451748088002205
13.0,0.016179552301764488
14.0,0.01590987667441368
15.0,0.015658076852560043
16.0,0.015414293855428696
18.0,0.01493669394403696
20.0,0.014518752694129944
22.0,0.014130749739706516
24.0,0.013747366145253181
26.0,0.01338884700089693
28.0,0.013049552217125893
30.0,0.012724409811198711
32.0,0.012413212098181248
36.0,0.0118440892547369
40.0,0.011312389746308327
44.0,0.010832448489964008
48.0,0.010369161143898964
52.0,0.009882771410048008
56.0,0.009410186670720577
60.0,0.008920936845242977
64.0,0.008451619185507298
72.0,0.00778651237487793
80.0,0.007173812482506037
88.0,0.0067148455418646336
96.0,0.00638828007504344
104.0,0.006144012324512005
112.0,0.005931063089519739
120.0,0.0056480602361261845
128.0,0.005358193069696426
144.0,0.004764434415847063
160.0,0.004422266501933336
176.0,0.004478121642023325
192.0,0.0046269819140434265
208.0,0.004556191619485617
224.0,0.0043458896689116955
240.0,0.0042517054826021194
256.0,0.004272956866770983
288.0,0.004120594821870327
320.0,0.004219346214085817
352.0,0.004189895931631327
384.0,0.004737162496894598
416.0,0.005154607817530632
448.0,0.004573804792016745
480.0,0.0036395650822669268
512.0,0.0032743599731475115
576.0,0.003391185076907277
640.0,0.003897442016750574
704.0,0.0032162307761609554
768.0,0.0025995296891778708
832.0,0.0025168894790112972
896.0,0.0011837828205898404
960.0,0.001561891520395875
1024.0,0.0016226832522079349
1152.0,0.0014665995258837938
1280.0,-0.0009120813338086009
1408.0,0.0004441807104740292
1536.0,-0.0003785605658777058
1664.0,0.00028901416226290166
1792.0,0.001103769289329648
1920.0,-0.00021962515893392265
2048.0,-0.0008464971906505525
2304.0,-0.0006881924346089363
2560.0,-0.0009396639070473611
2816.0,0.0004208468017168343
3072.0,-0.0006993754650466144
3328.0,-4.0611626900499687e-05
3584.0,0.0011131629580631852
3840.0,5.02721604789258e-06
4096.0,0.0004768444341607392
4608.0,-0.00108580372761935
5120.0,-0.0012479647994041443
5632.0,0.00014484442363027483
6144.0,0.0024753340985625982
6656.0,0.0025709043256938457
7168.0,0.0011587151093408465
7680.0,-0.0007099503418430686
8192.0,-0.0024680171627551317
end
