version,3.0
numOfCh,1
type,point
parent_name,ff67b_0dot2-1dot0
ch_type,1_1
kcount,1
numberNandB,1
brightnessNandB,1
carpet pos,0
pc,0
Time (ms),CH1 Auto-Correlation
1.0,0.01937735453248024
2.0,0.0189628005027771
3.0,0.018559793010354042
4.0,0.018183143809437752
5.0,0.017832402139902115
6.0,0.01750772073864937
7.0,0.01719539985060692
8.0,0.016894029453396797
9.0,0.01659189537167549
10.0,0.01629054546356201
11.0,0.016000907868146896
12.0,0.015712784603238106
13.0,0.015439271926879883
14.0,0.01517442800104618
15.0,0.01491410844027996
16.0,0.014653336256742477
18.0,0.014153089374303818
20.0,0.013674176298081875
22.0,0.013227341696619987
24.0,0.012815626338124275
26.0,0.0124531090259552
28.0,0.012103637680411339
30.0,0.011748382821679115
32.0,0.01141385082155466
36.0,0.010790686123073101
40.0,0.010180624201893806
44.0,0.009531555697321892
48.0,0.008912593126296997
52.0,0.00830246414989233
56.0,0.007748115342110395
60.0,0.007272167131304741
64.0,0.006908235140144825
72.0,0.006231087725609541
80.0,0.005730171222239733
88.0,0.005225129891186953
96.0,0.004912678152322769
104.0,0.004600117914378643
112.0,0.004370609298348427
120.0,0.004207178484648466
128.0,0.003976111300289631
144.0,0.0038476719055324793
160.0,0.003991939593106508
176.0,0.0039007735904306173
192.0,0.0037316835951060057
208.0,0.003339119954034686
224.0,0.0026382619980722666
240.0,0.002250643912702799
256.0,0.0018143015913665295
288.0,0.0010633396450430155
320.0,0.0008525491575710475
352.0,0.0012555296998471022
384.0,0.0016777176642790437
416.0,0.001908633392304182
448.0,0.001448720577172935
480.0,0.000969331304077059
512.0,0.0008343142690137029
576.0,0.0007779706502333283
640.0,0.00011669826926663518
704.0,-0.001555752707645297
768.0,-0.0022376051638275385
832.0,-0.00181051273830235
896.0,-0.0018930570222437382
960.0,-0.0022794906981289387
1024.0,-0.0012076877756044269
1152.0,-0.0004801988252438605
1280.0,0.00045699707698076963
1408.0,0.00033417195663787425
1536.0,-0.00020392111036926508
1664.0,0.00151379918679595
1792.0,0.00256677926518023
1920.0,0.002028191462159157
2048.0,0.0007438873872160912
2304.0,0.0014706907095387578
2560.0,-0.0002550720819272101
2816.0,-0.0010004328796640038
3072.0,-0.0014312739949673414
3328.0,-0.0011218171566724777
3584.0,0.0006698876386508346
3840.0,0.0013168774312362075
4096.0,0.0011826676782220602
4608.0,0.0001542304817121476
5120.0,0.00023943664564285427
5632.0,-0.0004183648561593145
6144.0,0.0008090818882919848
6656.0,0.00015526868810411543
7168.0,-0.0018353372579440475
7680.0,-0.0006538132438436151
8192.0,0.0002074060175800696
end
