version,3.0
numOfCh,1
type,point
parent_name,ff67b_0dot2-1dot0
ch_type,1_1
kcount,1
numberNandB,1
brightnessNandB,1
carpet pos,0
pc,0
Time (ms),CH1 Auto-Correlation
1.0,0.01745741441845894
2.0,0.016989529132843018
3.0,0.016555724665522575
4.0,0.01615104451775551
5.0,0.015775669366121292
6.0,0.015416870824992657
7.0,0.015065088868141174
8.0,0.014734170399606228
9.0,0.014405511319637299
10.0,0.014087889343500137
11.0,0.01377283874899149
12.0,0.01346922479569912
13.0,0.013189953751862049
14.0,0.01291511207818985
15.0,0.012643297202885151
16.0,0.012393174692988396
18.0,0.01191332470625639
20.0,0.011449318379163742
22.0,0.010983635671436787
24.0,0.01052081398665905
26.0,0.010079211555421352
28.0,0.009659688919782639
30.0,0.009281559847295284
32.0,0.008934084326028824
36.0,0.008377458900213242
40.0,0.007892626337707043
44.0,0.007477812003344297
48.0,0.007098749279975891
52.0,0.0067356121726334095
56.0,0.006451142020523548
60.0,0.006191630382090807
64.0,0.00596902659162879
72.0,0.005420932546257973
80.0,0.004805751144886017
88.0,0.0041581206023693085
96.0,0.0035415329039096832
104.0,0.002958359895274043
112.0,0.0026256339624524117
120.0,0.0023921600077301264
128.0,0.0020804814994335175
144.0,0.0018290771404281259
160.0,0.0020929446909576654
176.0,0.0024848461616784334
192.0,0.002642369130626321
208.0,0.0025553922168910503
224.0,0.002338114194571972
240.0,0.0025502422358840704
256.0,0.0027590161189436913
288.0,0.002010148484259844
320.0,0.0013380985474213958
352.0,0.0005793349700979888
384.0,-0.00011248586815781891
416.0,-0.0008815284818410873
448.0,-0.0012721479870378971
480.0,-0.0011390354484319687
512.0,-2.4229906557593495e-05
576.0,0.0003431703371461481
640.0,9.124670214077923e-06
704.0,-0.0008992219227366149
768.0,-0.001037156325764954
832.0,-0.0011860490776598454
896.0,-0.0010164350969716907
960.0,-0.0006663731765002012
1024.0,-0.0005315745947882533
1152.0,0.0004353637050371617
1280.0,-0.00010367205686634406
1408.0,0.001355652348138392
1536.0,0.0004799706512130797
1664.0,0.0012532561086118221
1792.0,0.0005200945888645947
1920.0,0.00048134400276467204
2048.0,-7.062246731948107e-05
2304.0,-0.00045634954585693777
2560.0,-0.00017634083633311093
2816.0,0.00029184864251874387
3072.0,-0.00016423288616351783
3328.0,0.00011261551117058843
3584.0,-0.0005270596011541784
3840.0,-0.00015024917956907302
4096.0,-0.001005462370812893
4608.0,-0.0008981568389572203
5120.0,0.000988709507510066
5632.0,-0.0002520106208976358
6144.0,8.3644685219042e-05
6656.0,0.0025524247903376818
7168.0,-0.00025418633595108986
7680.0,-0.0008129748166538775
8192.0,9.450995275983587e-05
end
