version,3.0
numOfCh,1
type,point
parent_name,ff67b_0dot2-1dot0
ch_type,1_1
kcount,1
numberNandB,1
brightnessNandB,1
carpet pos,0
pc,0
Time (ms),CH1 Auto-Correlation
1.0,0.02253018319606781
2.0,0.02212689258158207
3.0,0.02174287848174572
4.0,0.021372459828853607
5.0,0.021006783470511436
6.0,0.02065209113061428
7.0,0.02030652016401291
8.0,0.01998494379222393
9.0,0.019662493839859962
10.0,0.01934254728257656
11.0,0.019047938287258148
12.0,0.018766216933727264
13.0,0.018479041755199432
14.0,0.01820453442633152
15.0,0.017943700775504112
16.0,0.01768498867750168
18.0,0.017199406400322914
20.0,0.016747742891311646
22.0,0.016323987394571304
24.0,0.015924276784062386
26.0,0.015524348244071007
28.0,0.01513337530195713
30.0,0.014770012348890305
32.0,0.014431011863052845
36.0,0.01376703567802906
40.0,0.013140050694346428
44.0,0.01255126390606165
48.0,0.011949142441153526
52.0,0.011395903304219246
56.0,0.010858259163796902
60.0,0.010288978926837444
64.0,0.009752914309501648
72.0,0.008867309428751469
80.0,0.008092310279607773
88.0,0.007300631143152714
96.0,0.006449575070291758
104.0,0.00558839924633503
112.0,0.004869659431278706
120.0,0.004371766932308674
128.0,0.0038251823280006647
144.0,0.0027699382044374943
160.0,0.0017275733407586813
176.0,0.000981481745839119
192.0,0.0005014076014049351
208.0,0.00029360558255575597
224.0,0.00024145221686922014
240.0,0.0002808377321343869
256.0,0.0005645128549076617
288.0,0.00038909073919057846
320.0,-0.0006525149219669402
352.0,-0.0011447762371972203
384.0,-0.0008674945565871894
416.0,-0.0009136433363892138
448.0,-0.0012390901101753116
480.0,-0.0013835022691637278
512.0,-0.000821768247988075
576.0,-0.00020240760932210833
640.0,6.418160774046555e-05
704.0,2.022606713580899e-05
768.0,6.507569196401164e-05
832.0,-0.00013444566866382957
896.0,0.0004021971835754812
960.0,0.0004662898136302829
1024.0,0.0011728309327736497
1152.0,-0.0005147894844412804
1280.0,-0.0018236381001770496
1408.0,-0.0016514293383806944
1536.0,-0.0014045032439753413
1664.0,0.00020475871860980988
1792.0,-0.0014003929682075977
1920.0,-0.0025070011615753174
2048.0,-0.0017973134526982903
2304.0,-0.00256890500895679
2560.0,0.0005863421829417348
2816.0,0.0010011207778006792
3072.0,0.0009131272090598941
3328.0,-0.00020050410239491612
3584.0,0.002124716993421316
3840.0,0.002808682154864073
4096.0,0.00048290344420820475
4608.0,0.000269520707661286
5120.0,-0.001027469290420413
5632.0,-0.0025268408935517073
6144.0,-0.0011175324907526374
6656.0,0.0016521669458597898
7168.0,-1.402747966494644e-05
7680.0,0.0024440078996121883
8192.0,-0.000254265294643119
end
