version,3.0
numOfCh,1
type,point
parent_name,ff67b_0dot2-1dot0
ch_type,1_1
kcount,1
numberNandB,1
brightnessNandB,1
carpet pos,0
pc,0
Time (ms),CH1 Auto-Correlation
1.0,0.0192407239228487
2.0,0.01872858963906765
3.0,0.01826903596520424
4.0,0.017854321748018265
5.0,0.017448434606194496
6.0,0.017073748633265495
7.0,0.01670551486313343
8.0,0.016354747116565704
9.0,0.016021957620978355
10.0,0.01571250520646572
11.0,0.015397300943732262
12.0,0.015104814432561398
13.0,0.014827355742454529
14.0,0.014570663683116436
15.0,0.014321161434054375
16.0,0.014072353951632977
18.0,0.013568541966378689
20.0,0.01308487355709076
22.0,0.01262637972831726
24.0,0.012207568623125553
26.0,0.011791045777499676
28.0,0.011417633853852749
30.0,0.011077675968408585
32.0,0.010737353004515171
36.0,0.010097146034240723
40.0,0.009455953724682331
44.0,0.008830858394503593
48.0,0.00830256100744009
52.0,0.007828442379832268
56.0,0.007366808596998453
60.0,0.006975965574383736
64.0,0.006698887795209885
72.0,0.006196168251335621
80.0,0.0057479264214634895
88.0,0.005265121813863516
96.0,0.004635931458324194
104.0,0.004035010933876038
112.0,0.0033808762673288584
120.0,0.002803197829052806
128.0,0.002381453523412347
144.0,0.0019370369846001267
160.0,0.0018625359516590834
176.0,0.001755368197336793
192.0,0.0014916138025000691
208.0,0.000933667819481343
224.0,0.0005018751253373921
240.0,-5.784919630968943e-05
256.0,-0.0005430339951999485
288.0,-0.0009912257082760334
320.0,-0.0013096206821501255
352.0,-0.0009331341134384274
384.0,-0.00038369509275071323
416.0,-0.0004762437311001122
448.0,-0.000707580300513655
480.0,-0.000568660965654999
512.0,-0.000834161473903805
576.0,-0.001195755205117166
640.0,-0.0019737035036087036
704.0,-0.0018915627151727676
768.0,-0.0007396500441245735
832.0,0.0013641815166920424
896.0,0.001798173994757235
960.0,0.00048197826254181564
1024.0,0.0008013966144062579
1152.0,0.0018084163311868906
1280.0,0.001267460873350501
1408.0,0.00037374577368609607
1536.0,-0.0010117278434336185
1664.0,-0.0003380904090590775
1792.0,0.0007539803627878428
1920.0,0.00015653762966394424
2048.0,0.001327000674791634
2304.0,-4.714468013844453e-05
2560.0,-0.0011289127869531512
2816.0,0.0011290976544842124
3072.0,0.0010202479315921664
3328.0,-0.0012494102120399475
3584.0,-0.0016162707470357418
3840.0,-0.00014301193004939705
4096.0,0.0010765304323285818
4608.0,-0.0015874537639319897
5120.0,0.0004482631338760257
5632.0,-0.0016132681630551815
6144.0,0.0003364799777045846
6656.0,-0.0017755042063072324
7168.0,0.0004152687906753272
7680.0,-0.0019975921604782343
8192.0,0.0006853496888652444
end
