version,3.0
numOfCh,1
type,point
parent_name,ff67b_0dot2-1dot0
ch_type,1_1
kcount,1
numberNandB,1
brightnessNandB,1
carpet pos,0
pc,0
Time (ms),CH1 Auto-Correlation
1.0,0.019277554005384445
2.0,0.018819281831383705
3.0,0.018387140706181526
4.0,0.017980197444558144
5.0,0.017609605565667152
6.0,0.017245717346668243
7.0,0.016893144696950912
8.0,0.016555538401007652
9.0,0.016227809712290764
10.0,0.015906035900115967
11.0,0.01559222862124443
12.0,0.015305050648748875
13.0,0.015023535117506981
14.0,0.014733345247805119
15.0,0.014458369463682175
16.0,0.014197230339050293
18.0,0.013696657493710518
20.0,0.013239212334156036
22.0,0.01281244121491909
24.0,0.012410484254360199
26.0,0.012046813033521175
28.0,0.011722319759428501
30.0,0.011402648873627186
32.0,0.011074802838265896
36.0,0.010451190173625946
40.0,0.009859240613877773
44.0,0.009325706399977207
48.0,0.00882399920374155
52.0,0.008318972773849964
56.0,0.007864986546337605
60.0,0.007471233606338501
64.0,0.007143807597458363
72.0,0.006606345996260643
80.0,0.006143910810351372
88.0,0.005672927480190992
96.0,0.005385629832744598
104.0,0.005271201953291893
112.0,0.005152025725692511
120.0,0.00490666925907135
128.0,0.004626709036529064
144.0,0.003817064920440316
160.0,0.003196447854861617
176.0,0.002598175313323736
192.0,0.0019407171057537198
208.0,0.0015742704272270203
224.0,0.0012447308981791139
240.0,0.0009320424869656563
256.0,0.0006571292760781944
288.0,0.00029633010854013264
320.0,0.00016310487990267575
352.0,-9.181305358652025e-05
384.0,-2.546571749917348e-06
416.0,0.00011427611752878875
448.0,0.0003688559227157384
480.0,0.00100067094899714
512.0,0.0014920898247510195
576.0,-6.852379010524601e-05
640.0,-0.000998115399852395
704.0,-0.001322518102824688
768.0,-0.0012406355235725641
832.0,-0.0014600253198295832
896.0,-0.0013773078098893166
960.0,-0.0015430219937115908
1024.0,-0.0015312719624489546
1152.0,-0.001409156364388764
1280.0,-0.0012517675058916211
1408.0,-0.001146980095654726
1536.0,0.00030823727138340473
1664.0,0.0007885894738137722
1792.0,-0.00046891855890862644
1920.0,-0.0013874407159164548
2048.0,-0.0003549124230630696
2304.0,-0.000360596866812557
2560.0,7.730008655926213e-05
2816.0,-0.0003854902752209455
3072.0,-0.0007443901849910617
3328.0,-7.156594074331224e-05
3584.0,0.000945629202760756
3840.0,0.0009148036479018629
4096.0,-0.0003469907387625426
4608.0,-0.00048230154789052904
5120.0,-0.0003299141535535455
5632.0,-0.0012786907609552145
6144.0,0.0008639069856144488
6656.0,0.0008408991270698607
7168.0,0.0015728262951597571
7680.0,-1.901872929011006e-05
8192.0,-0.0034921797923743725
end
