version,3.0
numOfCh,1
type,point
parent_name,ff67b_0dot2-1dot0
ch_type,1_1
kcount,1
numberNandB,1
brightnessNandB,1
carpet pos,0
pc,0
Time (ms),CH1 Auto-Correlation
1.0,0.022983776405453682
2.0,0.02256862074136734
3.0,0.02218031883239746
4.0,0.021807776764035225
5.0,0.021455753594636917
6.0,0.02111884579062462
7.0,0.020785097032785416
8.0,0.020453814417123795
9.0,0.020141001790761948
10.0,0.019832568243145943
11.0,0.019535627216100693
12.0,0.01924656704068184
13.0,0.018966345116496086
14.0,0.018696051090955734
15.0,0.018433963879942894
16.0,0.01816941238939762
18.0,0.017661182209849358
20.0,0.01719554327428341
22.0,0.01676449365913868
24.0,0.016355816274881363
26.0,0.01594875194132328
28.0,0.015555748715996742
30.0,0.015166214667260647
32.0,0.01480507105588913
36.0,0.014163761399686337
40.0,0.01359719317406416
44.0,0.013083708472549915
48.0,0.012619080021977425
52.0,0.012206586077809334
56.0,0.011796688660979271
60.0,0.011359323747456074
64.0,0.010953630320727825
72.0,0.010397592559456825
80.0,0.009905724786221981
88.0,0.009379405528306961
96.0,0.008867030031979084
104.0,0.008386627770960331
112.0,0.008039607666432858
120.0,0.00768705690279603
128.0,0.007406431250274181
144.0,0.006998118013143539
160.0,0.0064989416860044
176.0,0.006024032365530729
192.0,0.00541525986045599
208.0,0.004716840106993914
224.0,0.0040925033390522
240.0,0.0037746692541986704
256.0,0.003344358876347542
288.0,0.002114716684445739
320.0,0.00148897641338408
352.0,0.0016706893220543861
384.0,0.001663776463828981
416.0,0.001876863301731646
448.0,0.00202540191821754
480.0,0.0019805137999355793
512.0,0.0014905388234183192
576.0,0.00043081631883978844
640.0,-0.0011393919121474028
704.0,-0.0014942855341359973
768.0,-0.0017757606692612171
832.0,-0.001303217955864966
896.0,-0.0007623680867254734
960.0,-0.00019962973601650447
1024.0,-0.00020125662558712065
1152.0,-0.0009412607178092003
1280.0,0.0009514326229691505
1408.0,0.0020723033230751753
1536.0,0.0020146688912063837
1664.0,0.0006312473560683429
1792.0,-0.00038353147101588547
1920.0,-0.00012152532872278243
2048.0,-0.00046110409311950207
2304.0,1.27086123029585e-05
2560.0,-0.0016611757455393672
2816.0,0.00013837689766660333
3072.0,0.0007375296554528177
3328.0,-0.0024687207769602537
3584.0,-0.0022155605256557465
3840.0,-0.0024875609669834375
4096.0,-0.0023620224092155695
4608.0,-0.0007335497066378593
5120.0,-0.0026441505178809166
5632.0,-0.0007995885680429637
6144.0,0.0014458521036431193
6656.0,0.0012597247259691358
7168.0,0.002125969622284174
7680.0,0.004339178092777729
8192.0,0.00010805114288814366
end
