version,3.0
numOfCh,1
type,point
parent_name,ff67b_0dot2-1dot0
ch_type,1_1
kcount,1
numberNandB,1
brightnessNandB,1
carpet pos,0
pc,0
Time (ms),CH1 Auto-Correlation
1.0,0.02232016623020172
2.0,0.02184862643480301
3.0,0.021419690921902657
4.0,0.021037252619862556
5.0,0.020614732056856155
6.0,0.020254511386156082
7.0,0.019899001345038414
8.0,0.01955912448465824
9.0,0.01923145353794098
10.0,0.018925752490758896
11.0,0.018632061779499054
12.0,0.018357234075665474
13.0,0.018094541504979134
14.0,0.01784614846110344
15.0,0.017599187791347504
16.0,0.017353318631649017
18.0,0.016890523955225945
20.0,0.016457898542284966
22.0,0.016038058325648308
24.0,0.015637168660759926
26.0,0.015253868885338306
28.0,0.014902076683938503
30.0,0.014548353850841522
32.0,0.014234478585422039
36.0,0.013680760748684406
40.0,0.013206960633397102
44.0,0.012784403748810291
48.0,0.012437003664672375
52.0,0.01213852409273386
56.0,0.011809979565441608
60.0,0.011473914608359337
64.0,0.011186259798705578
72.0,0.01068010926246643
80.0,0.010156964883208275
88.0,0.009698313660919666
96.0,0.009337645955383778
104.0,0.00912906788289547
112.0,0.008811136707663536
120.0,0.008416572585701942
128.0,0.007919379509985447
144.0,0.007166529539972544
160.0,0.006576931104063988
176.0,0.0061385431326925755
192.0,0.005621389020234346
208.0,0.00501227518543601
224.0,0.0046271891333162785
240.0,0.00448742276057601
256.0,0.004480426665395498
288.0,0.004217077977955341
320.0,0.0044426931999623775
352.0,0.004075052682310343
384.0,0.004105476662516594
416.0,0.004044989123940468
448.0,0.004522437695413828
480.0,0.005029001273214817
512.0,0.005285514518618584
576.0,0.005338398274034262
640.0,0.004989904817193747
704.0,0.004187548067420721
768.0,0.002203142736107111
832.0,0.0012004339369013906
896.0,0.00030157595756463706
960.0,0.0007493832963518798
1024.0,0.0011859468650072813
1152.0,0.0015995459398254752
1280.0,0.000699955562595278
1408.0,-0.0004606388392858207
1536.0,-0.0011868487345054746
1664.0,-0.0005694600404240191
1792.0,-0.0002926150045823306
1920.0,-0.001455229241400957
2048.0,-0.00045255664736032486
2304.0,0.0008776491158641875
2560.0,0.00034088449319824576
2816.0,0.0011490067699924111
3072.0,-0.0007318227435462177
3328.0,0.0005611152155324817
3584.0,-0.001957403961569071
3840.0,-0.0018752560717985034
4096.0,-0.0027773864567279816
4608.0,-0.0011099264957010746
5120.0,0.0014704776694998145
5632.0,0.0020624406170099974
6144.0,0.0016450212569907308
6656.0,-0.0025425192434340715
7168.0,-0.0022241645492613316
7680.0,-0.0009261618251912296
8192.0,-0.003103501396253705
end
