version,3.0
numOfCh,1
type,point
parent_name,ff67b_0dot2-1dot0
ch_type,1_1
kcount,1
numberNandB,1
brightnessNandB,1
carpet pos,0
pc,0
Time (ms),CH1 Auto-Correlation
1.0,0.020259832963347435
2.0,0.019826816394925117
3.0,0.019430972635746002
4.0,0.01904030703008175
5.0,0.018658805638551712
6.0,0.018294937908649445
7.0,0.017946433275938034
8.0,0.01762564107775688
9.0,0.0173090398311615
10.0,0.017000999301671982
11.0,0.01670766994357109
12.0,0.016420762985944748
13.0,0.016150135546922684
14.0,0.015900902450084686
15.0,0.015656692907214165
16.0,0.01543181948363781
18.0,0.014978135004639626
20.0,0.014525225386023521
22.0,0.014098274521529675
24.0,0.013697749003767967
26.0,0.013304213993251324
28.0,0.012947061099112034
30.0,0.012623823247849941
32.0,0.012315656058490276
36.0,0.011797202751040459
40.0,0.01135129202157259
44.0,0.010927586816251278
48.0,0.010539916343986988
52.0,0.01014414057135582
56.0,0.00967006292194128
60.0,0.00924661010503769
64.0,0.00882706418633461
72.0,0.008026110008358955
80.0,0.007311616558581591
88.0,0.006827245466411114
96.0,0.006361202336847782
104.0,0.005966187454760075
112.0,0.0055280993692576885
120.0,0.005047306418418884
128.0,0.004581900779157877
144.0,0.003926609642803669
160.0,0.003366094082593918
176.0,0.002648014575242996
192.0,0.0016896562883630395
208.0,0.0010006939992308617
224.0,0.0006751510081812739
240.0,0.00029929031734354794
256.0,-0.00039433047641068697
288.0,-0.0003662797389551997
320.0,-0.0003799452097155154
352.0,-0.0004380162281449884
384.0,-0.0004590038734022528
416.0,-0.0008521323325112462
448.0,-0.0010199749376624823
480.0,-0.000807496253401041
512.0,-9.362493437947705e-05
576.0,0.0009357234230265021
640.0,0.0009709495934657753
704.0,0.0010983458487316966
768.0,0.0018146975198760629
832.0,0.0015143859200179577
896.0,0.001215497381053865
960.0,0.0016310595674440265
1024.0,0.0012926013441756368
1152.0,0.0003321543335914612
1280.0,-0.0017996665555983782
1408.0,-0.000427742168540135
1536.0,0.0010485906386747956
1664.0,0.0003095375723205507
1792.0,-0.0008594276732765138
1920.0,-0.0019814567640423775
2048.0,-0.0015574947465211153
2304.0,-0.0001289484353037551
2560.0,0.0009574971627444029
2816.0,0.0016604593256488442
3072.0,0.0005440416280180216
3328.0,-7.782210741424933e-05
3584.0,-0.0004194847133476287
3840.0,0.00041930616134777665
4096.0,0.0007284372695721686
4608.0,-0.0012016756227239966
5120.0,0.0012061212910339236
5632.0,9.857424447545782e-05
6144.0,0.0009215829195454717
6656.0,-0.0016179941594600677
7168.0,-0.0006639634957537055
7680.0,-0.0020223299507051706
8192.0,0.0017064703861251473
end
