version,3.0
numOfCh,1
type,point
parent_name,ff67b_0dot2-1dot0
ch_type,1_1
kcount,1
numberNandB,1
brightnessNandB,1
carpet pos,0
pc,0
Time (ms),CH1 Auto-Correlation
1.0,0.02280065417289734
2.0,0.022367561236023903
3.0,0.021950049325823784
4.0,0.021550491452217102
5.0,0.02117125317454338
6.0,0.02081153728067875
7.0,0.02045569382607937
8.0,0.02009877935051918
9.0,0.01975521817803383
10.0,0.01942187175154686
11.0,0.019096922129392624
12.0,0.018791627138853073
13.0,0.01849300041794777
14.0,0.018190138041973114
15.0,0.01788809522986412
16.0,0.01759425550699234
18.0,0.017045166343450546
20.0,0.016525549814105034
22.0,0.016001947224140167
24.0,0.01550947967916727
26.0,0.015047319233417511
28.0,0.014572246000170708
30.0,0.014128733426332474
32.0,0.013720300048589706
36.0,0.012983052991330624
40.0,0.012302366085350513
44.0,0.011639838106930256
48.0,0.010971559211611748
52.0,0.010339867323637009
56.0,0.009753121063113213
60.0,0.009191954508423805
64.0,0.008636010810732841
72.0,0.007592021953314543
80.0,0.006742272991687059
88.0,0.006129557266831398
96.0,0.005661682225763798
104.0,0.005168463569134474
112.0,0.0046795993112027645
120.0,0.00435409601777792
128.0,0.0041620805859565735
144.0,0.0037331581115722656
160.0,0.003693261416628957
176.0,0.003978173714131117
192.0,0.0040082773193717
208.0,0.0038736348506063223
224.0,0.0034449773374944925
240.0,0.0025703785941004753
256.0,0.0015533196274191141
288.0,-3.3839314710348845e-05
320.0,-0.00011770159471780062
352.0,0.0004145181446801871
384.0,0.0005941034760326147
416.0,0.000854379206430167
448.0,0.0008944094297476113
480.0,0.0006631406140513718
512.0,0.0007967441342771053
576.0,0.0011501892004162073
640.0,0.00013228786701802164
704.0,-0.0009710424928925931
768.0,-0.0008410420850850642
832.0,-0.00013912285794503987
896.0,0.0006885597249493003
960.0,0.001801778213120997
1024.0,0.0020145028829574585
1152.0,0.0018009636551141739
1280.0,0.0021945652551949024
1408.0,0.00234684394672513
1536.0,0.0004869266413152218
1664.0,0.0008042384288273752
1792.0,-1.0851737897610292e-05
1920.0,-0.0005086113233119249
2048.0,-0.0020232778042554855
2304.0,-0.0015230069402605295
2560.0,-0.0018521061865612864
2816.0,0.0013784249313175678
3072.0,-0.0022440943866968155
3328.0,-0.0007168904994614422
3584.0,-0.0016115150647237897
3840.0,0.00035421247594058514
4096.0,0.0007206847076304257
4608.0,-0.00019849980890285224
5120.0,0.00017029150330927223
5632.0,-0.0002569207572378218
6144.0,-0.0015789521858096123
6656.0,-0.0024130044039338827
7168.0,-0.0027492670342326164
7680.0,-0.0019428872037678957
8192.0,0.0013565304689109325
end
