version,3.0
numOfCh,1
type,point
parent_name,ff67b_0dot2-1dot0
ch_type,1_1
kcount,1
numberNandB,1
brightnessNandB,1
carpet pos,0
pc,0
Time (ms),CH1 Auto-Correlation
1.0,0.024005109444260597
2.0,0.02350984513759613
3.0,0.023042846471071243
4.0,0.02259851060807705
5.0,0.02218010649085045
6.0,0.02180144004523754
7.0,0.021444419398903847
8.0,0.021109649911522865
9.0,0.02077373117208481
10.0,0.02046103961765766
11.0,0.02014869824051857
12.0,0.019833534955978394
13.0,0.01951855793595314
14.0,0.019214613363146782
15.0,0.018921008333563805
16.0,0.01862482912838459
18.0,0.018019353970885277
20.0,0.017472747713327408
22.0,0.01697949692606926
24.0,0.01651640236377716
26.0,0.016078971326351166
28.0,0.015659267082810402
30.0,0.015267596580088139
32.0,0.014860757626593113
36.0,0.014164549298584461
40.0,0.013512525707483292
44.0,0.012873068451881409
48.0,0.012350747361779213
52.0,0.011898249387741089
56.0,0.011488351039588451
60.0,0.011059042066335678
64.0,0.010739438235759735
72.0,0.010116670280694962
80.0,0.009555107913911343
88.0,0.009124552831053734
96.0,0.00866723619401455
104.0,0.008206131868064404
112.0,0.007799646817147732
120.0,0.007589259650558233
128.0,0.007473473437130451
144.0,0.0071870796382427216
160.0,0.007045169360935688
176.0,0.006805711425840855
192.0,0.00647724187001586
208.0,0.005848240572959185
224.0,0.005600420758128166
240.0,0.005507691763341427
256.0,0.005086446180939674
288.0,0.003996237646788359
320.0,0.0031923861242830753
352.0,0.002113164169713855
384.0,0.0013963078381493688
416.0,0.001050348044373095
448.0,0.0007949982536956668
480.0,0.0009109595557674766
512.0,0.0008166014449670911
576.0,0.0005212580435909331
640.0,-0.001774095930159092
704.0,-0.0023763030767440796
768.0,-0.0016920083435252309
832.0,-0.002028089016675949
896.0,-0.0019212927436456084
960.0,-0.0018635446904227138
1024.0,-0.0013534657191485167
1152.0,-0.002308396389707923
1280.0,-0.0023003905080258846
1408.0,-0.002739982446655631
1536.0,-0.0013412960106506944
1664.0,-0.0008073602803051472
1792.0,-0.0005800898652523756
1920.0,-0.0005764844827353954
2048.0,0.001053223735652864
2304.0,0.0017380296485498548
2560.0,0.0013235455844551325
2816.0,0.0027493154630064964
3072.0,0.0007178708328865469
3328.0,-0.000792032980825752
3584.0,-0.0026982540730386972
3840.0,-0.001773598836734891
4096.0,0.0002891648036893457
4608.0,-0.0010897846659645438
5120.0,-0.0015708354767411947
5632.0,0.00010584222036413848
6144.0,0.0011418730719015002
6656.0,0.002414667047560215
7168.0,-0.0007947247941046953
7680.0,-0.003554590744897723
8192.0,0.002015326637774706
end
