version,3.0
numOfCh,1
type,point
parent_name,ff67b_0dot2-1dot0
ch_type,1_1
kcount,1
numberNandB,1
brightnessNandB,1
carpet pos,0
pc,0
Time (ms),CH1 Auto-Correlation
1.0,0.018525557592511177
2.0,0.018043043091893196
3.0,0.017615830525755882
4.0,0.017205679789185524
5.0,0.016814926639199257
6.0,0.016443893313407898
7.0,0.016088657081127167
8.0,0.015744861215353012
9.0,0.01539658010005951
10.0,0.015056794509291649
11.0,0.01475130021572113
12.0,0.014457800425589085
13.0,0.014178551733493805
14.0,0.013903231360018253
15.0,0.013632256537675858
16.0,0.013386448845267296
18.0,0.012933439575135708
20.0,0.01248540822416544
22.0,0.01205532532185316
24.0,0.011676184833049774
26.0,0.011318249627947807
28.0,0.010970007628202438
30.0,0.010643732734024525
32.0,0.01033861469477415
36.0,0.009836445562541485
40.0,0.009365260601043701
44.0,0.008905712515115738
48.0,0.008466343395411968
52.0,0.008098626509308815
56.0,0.007746933959424496
60.0,0.007312197703868151
64.0,0.006860780529677868
72.0,0.006148402579128742
80.0,0.005575613118708134
88.0,0.004903499502688646
96.0,0.004209242761135101
104.0,0.0036831358447670937
112.0,0.003351439954712987
120.0,0.003106210846453905
128.0,0.002786032622680068
144.0,0.00203039962798357
160.0,0.0015572205884382129
176.0,0.0016706854803487659
192.0,0.0018294077599421144
208.0,0.0019150364678353071
224.0,0.0014969984767958522
240.0,0.0010817216243594885
256.0,0.0009045737097039819
288.0,0.0006067536305636168
320.0,0.0004813220875803381
352.0,1.3890718037146144e-05
384.0,0.0001611774496268481
416.0,0.0003745690337382257
448.0,0.0005596622359007597
480.0,0.0005698860040865839
512.0,0.0009351237677037716
576.0,0.0005558963166549802
640.0,-8.726915984880179e-05
704.0,-0.0010982869425788522
768.0,-0.0018084641778841615
832.0,-0.0017688247608020902
896.0,-0.0013229002943262458
960.0,-0.0012329838937148452
1024.0,-0.001426717615686357
1152.0,-0.0004626151639968157
1280.0,-0.0012118362355977297
1408.0,-0.001107372110709548
1536.0,-0.0009225578978657722
1664.0,-0.0006277378997765481
1792.0,-0.000738679722417146
1920.0,-0.0003697588399518281
2048.0,-0.0010005721123889089
2304.0,-0.0013383146142587066
2560.0,-0.0004106176202185452
2816.0,0.00010686845052987337
3072.0,0.0025379571598023176
3328.0,0.0006568323587998748
3584.0,0.0012732117902487516
3840.0,-0.00037128315307199955
4096.0,-0.000979294185526669
4608.0,-0.001446226960979402
5120.0,0.00016227316518779844
5632.0,0.0008021289831958711
6144.0,0.0019919839687645435
6656.0,-3.780599945457652e-05
7168.0,-0.0014533151406794786
7680.0,-0.0016172236064448953
8192.0,-0.0003471600357443094
end
