version,3.0
numOfCh,1
type,point
parent_name,ff67b_0dot2-1dot0
ch_type,1_1
kcount,1
numberNandB,1
brightnessNandB,1
carpet pos,0
pc,0
Time (ms),CH1 Auto-Correlation
1.0,0.024022115394473076
2.0,0.023609213531017303
3.0,0.0232294462621212
4.0,0.022872351109981537
5.0,0.022532319650053978
6.0,0.022203383967280388
7.0,0.021884147077798843
8.0,0.021588612347841263
9.0,0.021302152425050735
10.0,0.02103385701775551
11.0,0.020758016034960747
12.0,0.020487571135163307
13.0,0.020220493897795677
14.0,0.019963370636105537
15.0,0.01971469819545746
16.0,0.019474077969789505
18.0,0.01900220662355423
20.0,0.018545618280768394
22.0,0.018104268237948418
24.0,0.017681121826171875
26.0,0.017275039106607437
28.0,0.016876934096217155
30.0,0.016521349549293518
32.0,0.01619517058134079
36.0,0.015605965629220009
40.0,0.015061505138874054
44.0,0.014587816782295704
48.0,0.014169084839522839
52.0,0.01376620214432478
56.0,0.013373046182096004
60.0,0.012965093366801739
64.0,0.012610390782356262
72.0,0.011907590553164482
80.0,0.011223467998206615
88.0,0.010706091299653053
96.0,0.01020792219787836
104.0,0.009768725372850895
112.0,0.009511659853160381
120.0,0.009212009608745575
128.0,0.00886464025825262
144.0,0.008069336414337158
160.0,0.007570561487227678
176.0,0.0072924913838505745
192.0,0.006899569183588028
208.0,0.006524796597659588
224.0,0.005915600340813398
240.0,0.005269130691885948
256.0,0.005004370119422674
288.0,0.005373175255954266
320.0,0.00553202023729682
352.0,0.005364079959690571
384.0,0.005130559206008911
416.0,0.004664739593863487
448.0,0.004849419463425875
480.0,0.004395690280944109
512.0,0.0037831845693290234
576.0,0.0025066006928682327
640.0,0.001817558309994638
704.0,0.0011503801215440035
768.0,0.0008840324589982629
832.0,0.00068884581560269
896.0,0.0004272308142390102
960.0,0.000511532707605511
1024.0,1.07165178633295e-05
1152.0,0.0009960599709302187
1280.0,0.0014316242886707187
1408.0,0.0016761412844061852
1536.0,0.0011113989166915417
1664.0,0.0017519043758511543
1792.0,0.0012527800863608718
1920.0,0.0014180421130731702
2048.0,0.00031179803772829473
2304.0,0.0024298408534377813
2560.0,0.0023094627540558577
2816.0,0.0037771877832710743
3072.0,0.0020464956760406494
3328.0,0.0012024212628602982
3584.0,-0.0005453950143419206
3840.0,-0.00113006925676018
4096.0,-0.0023615024983882904
4608.0,-0.0035150572657585144
5120.0,-0.0009249159484170377
5632.0,-0.0028865269850939512
6144.0,-0.004388653207570314
6656.0,-0.004554014652967453
7168.0,-0.004025105386972427
7680.0,-0.0036834715865552425
8192.0,-0.0038387025706470013
end
