version,3.0
numOfCh,1
type,point
parent_name,ff67b_0dot2-1dot0
ch_type,1_1
kcount,1
numberNandB,1
brightnessNandB,1
carpet pos,0
pc,0
Time (ms),CH1 Auto-Correlation
1.0,0.021858643740415573
2.0,0.021367624402046204
3.0,0.02091061882674694
4.0,0.020475545898079872
5.0,0.020060982555150986
6.0,0.019662244245409966
7.0,0.019262496381998062
8.0,0.018896590918302536
9.0,0.018534205853939056
10.0,0.01819295436143875
11.0,0.017854509875178337
12.0,0.017532413825392723
13.0,0.01721111126244068
14.0,0.01690090075135231
15.0,0.01659999042749405
16.0,0.01629388891160488
18.0,0.015726283192634583
20.0,0.015208384022116661
22.0,0.014720658771693707
24.0,0.014259539544582367
26.0,0.013857878744602203
28.0,0.013480701483786106
30.0,0.013105415739119053
32.0,0.012730143032968044
36.0,0.012013150379061699
40.0,0.011346053332090378
44.0,0.010717576369643211
48.0,0.010194015689194202
52.0,0.009793131612241268
56.0,0.009426271542906761
60.0,0.009142393246293068
64.0,0.008906255476176739
72.0,0.008358203805983067
80.0,0.007886924780905247
88.0,0.0075734383426606655
96.0,0.007323750760406256
104.0,0.007051511667668819
112.0,0.006751812528818846
120.0,0.006492549553513527
128.0,0.006333567667752504
144.0,0.005917659029364586
160.0,0.005283349193632603
176.0,0.0045912195928394794
192.0,0.004150726832449436
208.0,0.003781864419579506
224.0,0.003153671510517597
240.0,0.002701627789065242
256.0,0.0023741561453789473
288.0,0.0022270281333476305
320.0,0.00203421781770885
352.0,0.00100523023866117
384.0,0.0001379919849568978
416.0,-0.00016679111286066473
448.0,-0.001113399863243103
480.0,-0.0022302649449557066
512.0,-0.002572498517110944
576.0,-0.003713908139616251
640.0,-0.003630168968811631
704.0,-0.0033165914937853813
768.0,-0.0029534369241446257
832.0,-0.002328468021005392
896.0,-0.003615037305280566
960.0,-0.003084274008870125
1024.0,-0.002756273141130805
1152.0,-0.000886554887983948
1280.0,-3.1451607355847955e-05
1408.0,-0.0015341194812208414
1536.0,-0.0015657024923712015
1664.0,-0.0007476200698874891
1792.0,-0.0007661136914975941
1920.0,-0.0007835259311832488
2048.0,-0.0002857291838154197
2304.0,-6.014740574755706e-05
2560.0,0.002919491846114397
2816.0,0.002573758363723755
3072.0,-0.0003138435131404549
3328.0,-0.000868363247718662
3584.0,-0.0004158499650657177
3840.0,0.0004405451181810349
4096.0,-0.002763001946732402
4608.0,0.0007437915191985667
5120.0,0.0022849494125694036
5632.0,-0.0010143701219931245
6144.0,-0.001920025795698166
6656.0,0.00023201310250442475
7168.0,0.0006391279166564345
7680.0,0.0028245614375919104
8192.0,-9.291235619457439e-05
end
