version,3.0
numOfCh,1
type,point
parent_name,ff67b_0dot2-1dot0
ch_type,1_1
kcount,1
numberNandB,1
brightnessNandB,1
carpet pos,0
pc,0
Time (ms),CH1 Auto-Correlation
1.0,0.02232593670487404
2.0,0.0218683872371912
3.0,0.021422619000077248
4.0,0.02100052312016487
5.0,0.020610935986042023
6.0,0.02023797295987606
7.0,0.019863832741975784
8.0,0.019496243447065353
9.0,0.019144855439662933
10.0,0.01880505494773388
11.0,0.018488304689526558
12.0,0.018168050795793533
13.0,0.017836444079875946
14.0,0.017513703554868698
15.0,0.017197003588080406
16.0,0.01688898354768753
18.0,0.016298141330480576
20.0,0.01575935259461403
22.0,0.015247060917317867
24.0,0.014758636243641376
26.0,0.014332350343465805
28.0,0.013941729441285133
30.0,0.013561166822910309
32.0,0.013212398625910282
36.0,0.012549583800137043
40.0,0.012007125653326511
44.0,0.011497562751173973
48.0,0.01096605695784092
52.0,0.010447762906551361
56.0,0.010020121932029724
60.0,0.009724562056362629
64.0,0.009471632540225983
72.0,0.009077723138034344
80.0,0.008735277689993382
88.0,0.008470948785543442
96.0,0.008196011185646057
104.0,0.00792832300066948
112.0,0.007604920770972967
120.0,0.007323467638343573
128.0,0.006966833025217056
144.0,0.006458933465182781
160.0,0.006507609039545059
176.0,0.006328660063445568
192.0,0.0058753471821546555
208.0,0.005416981875896454
224.0,0.004790937062352896
240.0,0.004147229716181755
256.0,0.0035707263741642237
288.0,0.0030683118384331465
320.0,0.0022668533492833376
352.0,0.001882248092442751
384.0,0.0018767729634419084
416.0,0.0015178316971287131
448.0,0.0004797781293746084
480.0,-5.56787708774209e-05
512.0,-0.0005241197650320828
576.0,-0.00015536913997493684
640.0,0.0004425661754794419
704.0,0.0007147873984649777
768.0,0.0012754270574077964
832.0,0.0019369203364476562
896.0,0.0018368033925071359
960.0,0.0013928472762927413
1024.0,0.0007778730941936374
1152.0,-6.356665107887238e-05
1280.0,0.00010834774002432823
1408.0,0.0002672561095096171
1536.0,0.00026853333110921085
1664.0,-0.00029268505750223994
1792.0,-0.00019494228763505816
1920.0,-0.0007657813839614391
2048.0,-0.0011559316189959645
2304.0,-0.0013810625532642007
2560.0,-0.0009200872154906392
2816.0,0.000520349305588752
3072.0,-0.001381993992254138
3328.0,-0.0031428730580955744
3584.0,-0.0019203854026272893
3840.0,-0.0005104717565700412
4096.0,-0.0012700121151283383
4608.0,-0.0008433540351688862
5120.0,0.0004997237701900303
5632.0,-0.00034277571830898523
6144.0,-0.0018198685720562935
6656.0,-0.0025942560750991106
7168.0,-0.0013522858498618007
7680.0,-2.5532923245918937e-05
8192.0,-0.001385821495205164
end
