version,3.0
numOfCh,1
type,point
parent_name,ff67b_0dot2-1dot0
ch_type,1_1
kcount,1
numberNandB,1
brightnessNandB,1
carpet pos,0
pc,0
Time (ms),CH1 Auto-Correlation
1.0,0.020754104480147362
2.0,0.020329972729086876
3.0,0.01992439478635788
4.0,0.0195403303951025
5.0,0.019176354631781578
6.0,0.01882294937968254
7.0,0.018486082553863525
8.0,0.018148226663470268
9.0,0.017823413014411926
10.0,0.017506077885627747
11.0,0.01720721647143364
12.0,0.016911793500185013
13.0,0.016618510708212852
14.0,0.016312891617417336
15.0,0.016023674979805946
16.0,0.015751799568533897
18.0,0.01522973645478487
20.0,0.014723852276802063
22.0,0.01421995460987091
24.0,0.013738972134888172
26.0,0.013302626088261604
28.0,0.012919507920742035
30.0,0.012598413974046707
32.0,0.0123036690056324
36.0,0.011691252700984478
40.0,0.011097085662186146
44.0,0.010584898293018341
48.0,0.010107837617397308
52.0,0.009614556096494198
56.0,0.009140458889305592
60.0,0.008668307214975357
64.0,0.008223866112530231
72.0,0.007353752385824919
80.0,0.006556812673807144
88.0,0.005935304332524538
96.0,0.005473016761243343
104.0,0.00500253401696682
112.0,0.004437983501702547
120.0,0.00395165616646409
128.0,0.003550327615812421
144.0,0.0030933229718357325
160.0,0.0027619055472314358
176.0,0.002290880773216486
192.0,0.0016569995786994696
208.0,0.001342476112768054
224.0,0.000876057252753526
240.0,0.00037667297874577343
256.0,-3.22060332109686e-05
288.0,-0.0005139854038134217
320.0,-0.0009201390785165131
352.0,-0.00038892688462510705
384.0,-3.7523193441302283e-07
416.0,1.641775634197984e-05
448.0,-0.00012651478755287826
480.0,-0.0009240802028216422
512.0,-0.0012361527187749743
576.0,-0.0014977268874645233
640.0,-0.0013563341926783323
704.0,-0.0005647065700031817
768.0,0.00012252213491592556
832.0,0.0004697659460362047
896.0,-0.0009946746286004782
960.0,-0.000876394915394485
1024.0,-3.432607991271652e-05
1152.0,0.0008657677099108696
1280.0,0.001302718068473041
1408.0,-0.0011643641628324986
1536.0,-0.0005231995601207018
1664.0,-0.0008099808474071324
1792.0,0.000471858395030722
1920.0,-0.0005462895496748388
2048.0,-9.714052430354059e-05
2304.0,-0.0006452056695707142
2560.0,-0.0015389448963105679
2816.0,0.0009580721380189061
3072.0,0.002134129870682955
3328.0,-0.0014421151718124747
3584.0,0.0003426621260587126
3840.0,0.0005248555680736899
4096.0,0.0003225984692107886
4608.0,-0.00010924794332822785
5120.0,-0.0015186473028734326
5632.0,0.00035700868465937674
6144.0,0.0007602900150232017
6656.0,-3.630145874922164e-05
7168.0,0.001470790826715529
7680.0,-0.0014982913853600621
8192.0,-0.0010289227357134223
end
