version,3.0
numOfCh,1
type,point
parent_name,ff67b_0dot2-1dot0
ch_type,1_1
kcount,1
numberNandB,1
brightnessNandB,1
carpet pos,0
pc,0
Time (ms),CH1 Auto-Correlation
1.0,0.023217173293232918
2.0,0.0227606613188982
3.0,0.022364305332303047
4.0,0.022007262334227562
5.0,0.021679991856217384
6.0,0.021341869607567787
7.0,0.021011874079704285
8.0,0.020690027624368668
9.0,0.02039438672363758
10.0,0.020096581429243088
11.0,0.019787706434726715
12.0,0.019517747685313225
13.0,0.019262848421931267
14.0,0.01901211030781269
15.0,0.01875656470656395
16.0,0.018509702757000923
18.0,0.018047848716378212
20.0,0.01759176142513752
22.0,0.01714342273771763
24.0,0.016704408451914787
26.0,0.01629946194589138
28.0,0.015927843749523163
30.0,0.015542864799499512
32.0,0.015148800797760487
36.0,0.014389758929610252
40.0,0.013685973361134529
44.0,0.013055700808763504
48.0,0.01253521628677845
52.0,0.012068544514477253
56.0,0.011635378934442997
60.0,0.011240530759096146
64.0,0.010792558081448078
72.0,0.010137501172721386
80.0,0.009606997482478619
88.0,0.009188653901219368
96.0,0.00887348409742117
104.0,0.008426854386925697
112.0,0.008088266476988792
120.0,0.008004389703273773
128.0,0.008042608387768269
144.0,0.008159645833075047
160.0,0.007980258204042912
176.0,0.007243161089718342
192.0,0.00667100865393877
208.0,0.005821701604872942
224.0,0.005291899666190147
240.0,0.005212326999753714
256.0,0.005472447723150253
288.0,0.005942031275480986
320.0,0.006302362307906151
352.0,0.005508739501237869
384.0,0.004665748216211796
416.0,0.0046576038002967834
448.0,0.0047364020720124245
480.0,0.004297340754419565
512.0,0.0035557106602936983
576.0,0.002714562928304076
640.0,0.003572094952687621
704.0,0.0015613496070727706
768.0,0.0012175081064924598
832.0,0.0005016005598008633
896.0,0.0002668402448762208
960.0,0.000622291408944875
1024.0,-0.00045121568837203085
1152.0,-0.002405536826699972
1280.0,-0.0023467796854674816
1408.0,-0.001772877061739564
1536.0,-0.000726842787116766
1664.0,-0.00021819477842655033
1792.0,-0.0017202369635924697
1920.0,-0.0016503797378391027
2048.0,-0.0012904776958748698
2304.0,-0.0002093766233883798
2560.0,-0.0008876582141965628
2816.0,-0.0022315855603665113
3072.0,-0.0007395102293230593
3328.0,-0.0003968826786149293
3584.0,-0.0002514141669962555
3840.0,-9.200680506182835e-05
4096.0,-0.00022813603573013097
4608.0,-0.0017579287523403764
5120.0,-0.0032688151113688946
5632.0,-0.00029223490855656564
6144.0,0.0008175649563781917
6656.0,0.0017167144687846303
7168.0,0.0031196034979075193
7680.0,0.0033721658401191235
8192.0,0.0024316597264260054
end
