version,3.0
numOfCh,1
type,point
parent_name,ff67b_0dot2-1dot0
ch_type,1_1
kcount,1
numberNandB,1
brightnessNandB,1
carpet pos,0
pc,0
Time (ms),CH1 Auto-Correlation
1.0,0.020888756960630417
2.0,0.020475368946790695
3.0,0.020080193877220154
4.0,0.01970081776380539
5.0,0.01934017986059189
6.0,0.01898336410522461
7.0,0.01864096336066723
8.0,0.018309272825717926
9.0,0.017988841980695724
10.0,0.01766815222799778
11.0,0.01736762747168541
12.0,0.017076393589377403
13.0,0.016783541068434715
14.0,0.01649460941553116
15.0,0.01620461605489254
16.0,0.015923358500003815
18.0,0.015418210998177528
20.0,0.014956667087972164
22.0,0.014496378600597382
24.0,0.014052404090762138
26.0,0.01366286352276802
28.0,0.01327846571803093
30.0,0.012900895439088345
32.0,0.012529227882623672
36.0,0.011832574382424355
40.0,0.011232361197471619
44.0,0.01065392792224884
48.0,0.010135830380022526
52.0,0.00972918700426817
56.0,0.009319225326180458
60.0,0.008928325027227402
64.0,0.008553968742489815
72.0,0.007826193235814571
80.0,0.0071280295960605145
88.0,0.006484120152890682
96.0,0.005952292587608099
104.0,0.0054664164781570435
112.0,0.005007773172110319
120.0,0.004495734348893166
128.0,0.003964626230299473
144.0,0.0029579128604382277
160.0,0.002370880451053381
176.0,0.0019381775055080652
192.0,0.001906760735437274
208.0,0.002514563500881195
224.0,0.003074248321354389
240.0,0.003611216554418206
256.0,0.0038123363628983498
288.0,0.003682491835206747
320.0,0.0045639225281775
352.0,0.004388272296637297
384.0,0.004277457017451525
416.0,0.0037828534841537476
448.0,0.003139783628284931
480.0,0.0029186930041760206
512.0,0.003014718648046255
576.0,0.003158197971060872
640.0,0.003072815714403987
704.0,0.002539427252486348
768.0,0.002287543611600995
832.0,0.001960339955985546
896.0,0.0015883949818089604
960.0,0.0008064906578511
1024.0,-0.0002750068961177021
1152.0,0.0002219140442321077
1280.0,0.0008087193709798157
1408.0,0.0007137516513466835
1536.0,0.0013105312827974558
1664.0,0.00036249792901799083
1792.0,0.00023798085749149323
1920.0,0.0010264947777613997
2048.0,0.0018201456405222416
2304.0,0.0013992318417876959
2560.0,-0.0001855843875091523
2816.0,-0.0007510019931942225
3072.0,-0.0006771606858819723
3328.0,-0.0007757243001833558
3584.0,-0.0008144106832332909
3840.0,-0.00046076206490397453
4096.0,-0.001923446194268763
4608.0,-0.002187603386119008
5120.0,-0.002232949947938323
5632.0,2.885404319385998e-05
6144.0,0.000882031221408397
6656.0,0.0015301749808713794
7168.0,0.0001441832137061283
7680.0,0.0012846976751461625
8192.0,0.0004932876327075064
end
