version,3.0
numOfCh,1
type,point
parent_name,ff67b_0dot2-1dot0
ch_type,1_1
kcount,1
numberNandB,1
brightnessNandB,1
carpet pos,0
pc,0
Time (ms),CH1 Auto-Correlation
1.0,0.023530930280685425
2.0,0.023095782846212387
3.0,0.022682584822177887
4.0,0.022303249686956406
5.0,0.02192164771258831
6.0,0.02156289853155613
7.0,0.021232349798083305
8.0,0.02091098204255104
9.0,0.020610637962818146
10.0,0.02031826041638851
11.0,0.020042242482304573
12.0,0.019771218299865723
13.0,0.01951194554567337
14.0,0.019259896129369736
15.0,0.019014958292245865
16.0,0.01876562461256981
18.0,0.018268955871462822
20.0,0.017807969823479652
22.0,0.017393819987773895
24.0,0.016998443752527237
26.0,0.016607098281383514
28.0,0.016215825453400612
30.0,0.01584385521709919
32.0,0.015476939268410206
36.0,0.014768329448997974
40.0,0.014124884270131588
44.0,0.013552301563322544
48.0,0.013037583790719509
52.0,0.012538268230855465
56.0,0.012104503810405731
60.0,0.011701974086463451
64.0,0.011311915703117847
72.0,0.010569478385150433
80.0,0.009892433881759644
88.0,0.009343309327960014
96.0,0.008832316845655441
104.0,0.008360878564417362
112.0,0.007904485799372196
120.0,0.007469940464943647
128.0,0.007135081570595503
144.0,0.006318880245089531
160.0,0.005582181271165609
176.0,0.005034715868532658
192.0,0.004613588098436594
208.0,0.004167909733951092
224.0,0.0034943583887070417
240.0,0.0028537805192172527
256.0,0.0023212863598018885
288.0,0.0014569289050996304
320.0,0.0013495214516296983
352.0,0.0014457149663940072
384.0,0.0007701823487877846
416.0,0.0007748461794108152
448.0,0.0008996571996249259
480.0,0.001861291122622788
512.0,0.0025862969923764467
576.0,0.0030677346512675285
640.0,0.0026247892528772354
704.0,0.0031855208799242973
768.0,0.004488351289182901
832.0,0.0046250890009105206
896.0,0.005682329181581736
960.0,0.0042412918992340565
1024.0,0.001805412000976503
1152.0,0.0007927065016701818
1280.0,0.0028517618775367737
1408.0,0.0050461082719266415
1536.0,0.00486086867749691
1664.0,0.002219476969912648
1792.0,0.001130252261646092
1920.0,4.2709252738859504e-06
2048.0,0.0010293073719367385
2304.0,0.0016222447156906128
2560.0,-0.00019671025802381337
2816.0,-0.0012306325370445848
3072.0,-0.0005795333418063819
3328.0,0.0012494099792093039
3584.0,-0.0010817463044077158
3840.0,-0.0025120656937360764
4096.0,-0.0025601661764085293
4608.0,-0.000769652659073472
5120.0,-0.002543115057051182
5632.0,-0.0007028768304735422
6144.0,-0.002206213306635618
6656.0,-0.0024449864868074656
7168.0,-0.0006049414514563978
7680.0,-0.001792046008631587
8192.0,-0.0016010787803679705
end
