version,3.0
numOfCh,1
type,point
parent_name,ff67b_0dot2-1dot0
ch_type,1_1
kcount,1
numberNandB,1
brightnessNandB,1
carpet pos,0
pc,0
Time (ms),CH1 Auto-Correlation
1.0,0.01880791038274765
2.0,0.018383841961622238
3.0,0.017982956022024155
4.0,0.01758626475930214
5.0,0.0172174870967865
6.0,0.016879940405488014
7.0,0.016536833718419075
8.0,0.016222625970840454
9.0,0.01593233086168766
10.0,0.015634918585419655
11.0,0.015339958481490612
12.0,0.015051155351102352
13.0,0.014776823110878468
14.0,0.014507384039461613
15.0,0.014248909428715706
16.0,0.014002571813762188
18.0,0.013528084382414818
20.0,0.013088109903037548
22.0,0.012679442763328552
24.0,0.012303527444601059
26.0,0.011950734071433544
28.0,0.011621469631791115
30.0,0.011287312023341656
32.0,0.010971537791192532
36.0,0.010346676222980022
40.0,0.00979128759354353
44.0,0.009327443316578865
48.0,0.008867443539202213
52.0,0.00842098705470562
56.0,0.00799417495727539
60.0,0.007590248715132475
64.0,0.007226631511002779
72.0,0.006411417853087187
80.0,0.005568566266447306
88.0,0.004892549477517605
96.0,0.00455243606120348
104.0,0.004372924566268921
112.0,0.004231682512909174
120.0,0.004015004262328148
128.0,0.0036788738798350096
144.0,0.0033191372640430927
160.0,0.0032278511207550764
176.0,0.003272231202572584
192.0,0.003472565207630396
208.0,0.0036499423440545797
224.0,0.0040336246602237225
240.0,0.0042297374457120895
256.0,0.0038867564871907234
288.0,0.0038307439535856247
320.0,0.0036979401484131813
352.0,0.0031855059787631035
384.0,0.0024777022190392017
416.0,0.0024245164822787046
448.0,0.002474758308380842
480.0,0.0024715466424822807
512.0,0.002209163736552
576.0,0.0031383803579956293
640.0,0.004029558505862951
704.0,0.004108025226742029
768.0,0.003686454612761736
832.0,0.003520746249705553
896.0,0.0035291160456836224
960.0,0.0031341230496764183
1024.0,0.003018171526491642
1152.0,0.002265140414237976
1280.0,0.0019871206022799015
1408.0,0.0031042369082570076
1536.0,0.0018203930230811238
1664.0,0.0014408814022317529
1792.0,0.0014556222595274448
1920.0,0.0015912996605038643
2048.0,0.001662268303334713
2304.0,0.0014171384973451495
2560.0,0.0007985990378074348
2816.0,0.0006054177065379918
3072.0,0.00046825141180306673
3328.0,-0.0003523358318489045
3584.0,0.0008909940370358527
3840.0,-0.0003882640157826245
4096.0,-0.001646321965381503
4608.0,-0.0021373662166297436
5120.0,-0.002079074503853917
5632.0,-0.002190524945035577
6144.0,-0.0017336916644126177
6656.0,-0.0025629440788179636
7168.0,-0.001172318821772933
7680.0,-0.0007434503058902919
8192.0,-0.0002672007249202579
end
