version,3.0
numOfCh,1
type,point
parent_name,ff67b_0dot2-1dot0
ch_type,1_1
kcount,1
numberNandB,1
brightnessNandB,1
carpet pos,0
pc,0
Time (ms),CH1 Auto-Correlation
1.0,0.021571878343820572
2.0,0.021120013669133186
3.0,0.020703017711639404
4.0,0.020284311845898628
5.0,0.01990542747080326
6.0,0.019537169486284256
7.0,0.01917966455221176
8.0,0.01882963627576828
9.0,0.018488559871912003
10.0,0.018170394003391266
11.0,0.017865633592009544
12.0,0.017566818743944168
13.0,0.017275694757699966
14.0,0.016984419897198677
15.0,0.016701778396964073
16.0,0.01641693152487278
18.0,0.015854932367801666
20.0,0.01532686222344637
22.0,0.014849609695374966
24.0,0.0144118070602417
26.0,0.013979004696011543
28.0,0.013534621335566044
30.0,0.01309752743691206
32.0,0.012699613347649574
36.0,0.01196536235511303
40.0,0.011285165324807167
44.0,0.010740666650235653
48.0,0.010317498818039894
52.0,0.009990097023546696
56.0,0.009664451703429222
60.0,0.009375384077429771
64.0,0.009058714844286442
72.0,0.008463478647172451
80.0,0.007902015000581741
88.0,0.007357731461524963
96.0,0.006859710905700922
104.0,0.006413734517991543
112.0,0.006196110043674707
120.0,0.006129412911832333
128.0,0.005913023836910725
144.0,0.005048494786024094
160.0,0.004499644506722689
176.0,0.004380112513899803
192.0,0.004639217630028725
208.0,0.004964982159435749
224.0,0.00526444474235177
240.0,0.005461581517010927
256.0,0.005430934485048056
288.0,0.004485622048377991
320.0,0.0037158268969506025
352.0,0.0029135742224752903
384.0,0.0020346047822386026
416.0,0.0017474148189648986
448.0,0.0018787092994898558
480.0,0.002932146191596985
512.0,0.0035845674574375153
576.0,0.0025516808964312077
640.0,0.0005720425397157669
704.0,-0.0005066231824457645
768.0,-1.937689376063645e-05
832.0,0.00039697103784419596
896.0,-0.00023596065875608474
960.0,-0.0007799495942890644
1024.0,0.00019836224964819849
1152.0,-0.0016619031084701419
1280.0,-0.0013203596463426948
1408.0,-0.0014481258112937212
1536.0,-4.0678525692783296e-05
1664.0,-0.0011964745353907347
1792.0,-0.00024456027313135564
1920.0,-9.888077329378575e-05
2048.0,0.0025773560628294945
2304.0,0.001841541612520814
2560.0,0.0007260660640895367
2816.0,-3.6319899663794786e-05
3072.0,-0.00040213848114944994
3328.0,-0.0015651641879230738
3584.0,-0.001591185457073152
3840.0,-0.0034445940982550383
4096.0,-0.0014780070632696152
4608.0,4.5753993617836386e-05
5120.0,-0.0007978329085744917
5632.0,-6.148993270471692e-05
6144.0,0.0011245616478845477
6656.0,-0.0008734029252082109
7168.0,-0.0008051973418332636
7680.0,0.0031038594897836447
8192.0,0.004652863834053278
end
