version,3.0
numOfCh,1
type,point
parent_name,ff67b_0dot2-1dot0
ch_type,1_1
kcount,1
numberNandB,1
brightnessNandB,1
carpet pos,0
pc,0
Time (ms),CH1 Auto-Correlation
1.0,0.025597285479307175
2.0,0.025124402716755867
3.0,0.024687157943844795
4.0,0.02428285963833332
5.0,0.02389802783727646
6.0,0.023536110296845436
7.0,0.02320142276585102
8.0,0.022879114374518394
9.0,0.022552212700247765
10.0,0.02224145084619522
11.0,0.02193504385650158
12.0,0.021629739552736282
13.0,0.021339349448680878
14.0,0.021054845303297043
15.0,0.020774278789758682
16.0,0.020495422184467316
18.0,0.019994281232357025
20.0,0.019525043666362762
22.0,0.019078105688095093
24.0,0.01865396276116371
26.0,0.018256375566124916
28.0,0.01787143386900425
30.0,0.01751798577606678
32.0,0.01719346083700657
36.0,0.0165704432874918
40.0,0.01595263183116913
44.0,0.015341990627348423
48.0,0.014729759655892849
52.0,0.014132607728242874
56.0,0.013586320914328098
60.0,0.013025649823248386
64.0,0.012492378242313862
72.0,0.01151044201105833
80.0,0.010522250086069107
88.0,0.009514493867754936
96.0,0.008622287772595882
104.0,0.007811599411070347
112.0,0.007218859624117613
120.0,0.006771032232791185
128.0,0.006454781163483858
144.0,0.006132688373327255
160.0,0.0057543502189219
176.0,0.005457924213260412
192.0,0.005295601207762957
208.0,0.005433074198663235
224.0,0.0055822948925197124
240.0,0.005511119030416012
256.0,0.005354567896574736
288.0,0.004239245783537626
320.0,0.0023082850966602564
352.0,0.001057290006428957
384.0,0.00041955368942581117
416.0,0.00032692673266865313
448.0,0.0010677204700186849
480.0,0.0017385587561875582
512.0,0.002140464959666133
576.0,0.0016972761368378997
640.0,0.0006860045832581818
704.0,0.0004638356331270188
768.0,-0.000247446441790089
832.0,-0.0012994947610422969
896.0,-0.0017231240635737777
960.0,-0.001528922701254487
1024.0,-0.0016224811552092433
1152.0,-0.00038460735231637955
1280.0,-0.0005960204871371388
1408.0,0.0021684146486222744
1536.0,0.0013850668910890818
1664.0,-7.22454278729856e-05
1792.0,-0.0024634196888655424
1920.0,-0.0013073966838419437
2048.0,-0.001302919932641089
2304.0,0.0010347013594582677
2560.0,0.0013683491852134466
2816.0,0.0007251506322063506
3072.0,0.00016039818001445383
3328.0,-4.8541300202487037e-05
3584.0,0.00024326729180756956
3840.0,0.0022251619957387447
4096.0,0.0013751982478424907
4608.0,0.0005699485191144049
5120.0,-0.0013607243308797479
5632.0,-0.005728217773139477
6144.0,-0.0020339705515652895
6656.0,0.0009955089772120118
7168.0,0.0009486284689046443
7680.0,-0.0006195664755068719
8192.0,-0.002087730448693037
end
