version,3.0
numOfCh,1
type,point
parent_name,484af_0dot069-1dot0
ch_type,1_1
kcount,1
numberNandB,1
brightnessNandB,1
carpet pos,0
pc,0
Time (ms),CH1 Auto-Correlation
1.0,0.0837726965546608
2.0,0.08302759379148483
3.0,0.08233872056007385
4.0,0.08173087984323502
5.0,0.08110757917165756
6.0,0.08048932999372482
7.0,0.07987802475690842
8.0,0.07930397242307663
9.0,0.07873431593179703
10.0,0.07814207673072815
11.0,0.07758726179599762
12.0,0.07701848447322845
13.0,0.07647895067930222
14.0,0.07590623199939728
15.0,0.07538460940122604
16.0,0.07484718412160873
18.0,0.07391604036092758
20.0,0.07299668341875076
22.0,0.07211033254861832
24.0,0.07121792435646057
26.0,0.07035765796899796
28.0,0.06955821067094803
30.0,0.06882547587156296
32.0,0.0681072473526001
36.0,0.06675466895103455
40.0,0.06556303799152374
44.0,0.06436263024806976
48.0,0.06311771273612976
52.0,0.061869822442531586
56.0,0.06064537167549133
60.0,0.059450797736644745
64.0,0.0582963265478611
72.0,0.05609671771526337
80.0,0.054099299013614655
88.0,0.0523969866335392
96.0,0.050715263932943344
104.0,0.04900380223989487
112.0,0.04723343625664711
120.0,0.04557940363883972
128.0,0.04432614520192146
144.0,0.04158448800444603
160.0,0.03821539878845215
176.0,0.034110452979803085
192.0,0.03018599934875965
208.0,0.027185160666704178
224.0,0.023963836953043938
240.0,0.02098846808075905
256.0,0.01828031614422798
288.0,0.014078774489462376
320.0,0.010385422967374325
352.0,0.006813483312726021
384.0,0.004679382778704166
416.0,0.0023158297408372164
448.0,0.0005869098240509629
480.0,-0.0015794570790603757
512.0,-0.0022896684240549803
576.0,-0.0001879267074400559
640.0,0.0032834848389029503
704.0,0.0051038432866334915
768.0,0.006163089070469141
832.0,0.00763072120025754
896.0,0.009559256955981255
960.0,0.011533629149198532
1024.0,0.012261869385838509
1152.0,0.009044178761541843
1280.0,0.004179591778665781
1408.0,0.002130528213456273
1536.0,-0.0025674323551356792
1664.0,-0.001665174262598157
1792.0,-0.001355983898974955
1920.0,0.0035516303032636642
2048.0,0.01038102712482214
2304.0,0.004666557535529137
2560.0,-0.00533900735899806
2816.0,-0.0018156678415834904
3072.0,0.002472726861014962
3328.0,0.004932129755616188
3584.0,0.012408305890858173
3840.0,0.012632184661924839
4096.0,0.001840106793679297
4608.0,0.007141784764826298
5120.0,-0.012089908123016357
5632.0,0.0049510616809129715
6144.0,-0.01388801820576191
6656.0,-0.014273572713136673
7168.0,-0.008875936269760132
7680.0,-0.017535090446472168
8192.0,-0.007019850891083479
end
