version,3.0
numOfCh,1
type,point
parent_name,484af_0dot069-1dot0
ch_type,1_1
kcount,1
numberNandB,1
brightnessNandB,1
carpet pos,0
pc,0
Time (ms),CH1 Auto-Correlation
1.0,0.06945336610078812
2.0,0.06862618774175644
3.0,0.06791063398122787
4.0,0.06723316013813019
5.0,0.06660981476306915
6.0,0.06600373983383179
7.0,0.06543620675802231
8.0,0.06487010419368744
9.0,0.06435246765613556
10.0,0.06383013725280762
11.0,0.06325928121805191
12.0,0.06275623291730881
13.0,0.062263213098049164
14.0,0.061752691864967346
15.0,0.06124436855316162
16.0,0.06072995439171791
18.0,0.05977695807814598
20.0,0.0588829480111599
22.0,0.058020249009132385
24.0,0.05722340568900108
26.0,0.05642913654446602
28.0,0.05564079433679581
30.0,0.05495256558060646
32.0,0.05429665371775627
36.0,0.05301717296242714
40.0,0.051680345088243484
44.0,0.05037844926118851
48.0,0.049187034368515015
52.0,0.0480632409453392
56.0,0.047019168734550476
60.0,0.04600188136100769
64.0,0.04505934566259384
72.0,0.04324948415160179
80.0,0.041701219975948334
88.0,0.040246061980724335
96.0,0.03902110457420349
104.0,0.037869591265916824
112.0,0.03686538711190224
120.0,0.036030758172273636
128.0,0.03530165180563927
144.0,0.03433692082762718
160.0,0.03331344574689865
176.0,0.031645044684410095
192.0,0.030028799548745155
208.0,0.02903308905661106
224.0,0.028143052011728287
240.0,0.026653394103050232
256.0,0.025360386818647385
288.0,0.022141233086586
320.0,0.01950955018401146
352.0,0.01833846978843212
384.0,0.017106764018535614
416.0,0.015545048750936985
448.0,0.013300375081598759
480.0,0.012501250952482224
512.0,0.01283616665750742
576.0,0.012486768886446953
640.0,0.013260520063340664
704.0,0.013506436720490456
768.0,0.015211958438158035
832.0,0.01484454795718193
896.0,0.01214315090328455
960.0,0.012583748437464237
1024.0,0.010627987794578075
1152.0,0.004459984600543976
1280.0,0.0007126011769287288
1408.0,-0.002403050661087036
1536.0,-0.0002453270135447383
1664.0,-0.0008057844825088978
1792.0,-0.003275335067883134
1920.0,-0.005773924291133881
2048.0,-0.0037943583447486162
2304.0,-0.0010356470011174679
2560.0,0.0052011702209711075
2816.0,0.001888374681584537
3072.0,-5.5757322115823627e-05
3328.0,-0.002279626438394189
3584.0,-0.005187104921787977
3840.0,-0.009086402133107185
4096.0,-0.013887835666537285
4608.0,-0.014530538581311703
5120.0,-0.0112208416685462
5632.0,-0.00959198921918869
6144.0,-0.007139117456972599
6656.0,0.002290492644533515
7168.0,0.004451410379260778
7680.0,0.0137212248519063
8192.0,-0.0012788500171154737
end
