version,3.0
numOfCh,1
type,point
parent_name,484af_0dot069-1dot0
ch_type,1_1
kcount,1
numberNandB,1
brightnessNandB,1
carpet pos,0
pc,0
Time (ms),CH1 Auto-Correlation
1.0,0.08346964418888092
2.0,0.08259958028793335
3.0,0.08178120851516724
4.0,0.0810329020023346
5.0,0.08029568195343018
6.0,0.07965157926082611
7.0,0.07900860905647278
8.0,0.07837007194757462
9.0,0.07775017619132996
10.0,0.07714564353227615
11.0,0.07651013880968094
12.0,0.07586488872766495
13.0,0.07529508322477341
14.0,0.07471928000450134
15.0,0.07415053993463516
16.0,0.073604054749012
18.0,0.07255683839321136
20.0,0.07152386754751205
22.0,0.0705099031329155
24.0,0.06955194473266602
26.0,0.0685984194278717
28.0,0.06768686324357986
30.0,0.0668582171201706
32.0,0.0660393014550209
36.0,0.06441790610551834
40.0,0.06300042569637299
44.0,0.061823729425668716
48.0,0.06052004545927048
52.0,0.05916128307580948
56.0,0.0578170008957386
60.0,0.056521277874708176
64.0,0.05528274551033974
72.0,0.052635353058576584
80.0,0.05002909526228905
88.0,0.04757623001933098
96.0,0.04507608711719513
104.0,0.04279578849673271
112.0,0.04080360010266304
120.0,0.03880564495921135
128.0,0.03688371181488037
144.0,0.03360883891582489
160.0,0.03053865022957325
176.0,0.027554823085665703
192.0,0.024652015417814255
208.0,0.022477978840470314
224.0,0.021480508148670197
240.0,0.02118535526096821
256.0,0.020702969282865524
288.0,0.018755316734313965
320.0,0.017669301480054855
352.0,0.01659836247563362
384.0,0.015160010196268559
416.0,0.012889559380710125
448.0,0.010340911336243153
480.0,0.008705345913767815
512.0,0.009003947488963604
576.0,0.003936534281820059
640.0,-0.0015291828894987702
704.0,-0.004465669859200716
768.0,-0.006290546152740717
832.0,-0.007058511953800917
896.0,-0.00675157131627202
960.0,-0.008950154297053814
1024.0,-0.012683365494012833
1152.0,-0.02034432254731655
1280.0,-0.013050672598183155
1408.0,-0.003963153809309006
1536.0,-0.0015036053955554962
1664.0,-0.0016596768982708454
1792.0,0.002926700050011277
1920.0,-0.002278941450640559
2048.0,-0.0012738783843815327
2304.0,0.010874309577047825
2560.0,0.010496933944523335
2816.0,0.001660571782849729
3072.0,-0.0030605262145400047
3328.0,-0.01587120071053505
3584.0,-0.0208135936409235
3840.0,-0.01192191056907177
4096.0,-0.006047841161489487
4608.0,0.003894099034368992
5120.0,-0.00030820167739875615
5632.0,0.01225567888468504
6144.0,-0.0030522507149726152
6656.0,-0.01598084531724453
7168.0,-0.0015242223162204027
7680.0,0.006069623865187168
8192.0,-0.008314264938235283
end
