version,3.0
numOfCh,1
type,point
parent_name,484af_0dot069-1dot0
ch_type,1_1
kcount,1
numberNandB,1
brightnessNandB,1
carpet pos,0
pc,0
Time (ms),CH1 Auto-Correlation
1.0,0.07240717858076096
2.0,0.07106037437915802
3.0,0.06997577846050262
4.0,0.06902490556240082
5.0,0.06806975603103638
6.0,0.06716486066579819
7.0,0.06629088521003723
8.0,0.06555666774511337
9.0,0.06476378440856934
10.0,0.06400362402200699
11.0,0.06324312090873718
12.0,0.06253819912672043
13.0,0.0617976151406765
14.0,0.06107044965028763
15.0,0.06035492569208145
16.0,0.05967341363430023
18.0,0.058472249656915665
20.0,0.05732550472021103
22.0,0.05612311512231827
24.0,0.05495836213231087
26.0,0.053936198353767395
28.0,0.052955757826566696
30.0,0.05198940262198448
32.0,0.05109787359833717
36.0,0.04910849779844284
40.0,0.04709870368242264
44.0,0.04520484060049057
48.0,0.04340169206261635
52.0,0.04168502613902092
56.0,0.040102362632751465
60.0,0.03866621106863022
64.0,0.03734919801354408
72.0,0.03531213849782944
80.0,0.0337895005941391
88.0,0.03231874480843544
96.0,0.030494768172502518
104.0,0.02871805429458618
112.0,0.027380801737308502
120.0,0.026810968294739723
128.0,0.026783550158143044
144.0,0.02680363692343235
160.0,0.026367345824837685
176.0,0.0253217201679945
192.0,0.023111559450626373
208.0,0.021277576684951782
224.0,0.01989126019179821
240.0,0.01879790425300598
256.0,0.017611879855394363
288.0,0.015260274522006512
320.0,0.012410749681293964
352.0,0.010891959071159363
384.0,0.010795395821332932
416.0,0.011932249180972576
448.0,0.012925121001899242
480.0,0.01082075759768486
512.0,0.007405236829072237
576.0,0.008528146892786026
640.0,0.007467484101653099
704.0,0.006132328882813454
768.0,0.005994110368192196
832.0,0.0058525362983345985
896.0,0.0019807983189821243
960.0,0.00031201544334180653
1024.0,0.00043174202437512577
1152.0,-0.00028270474285818636
1280.0,0.001939906389452517
1408.0,-0.0019127457635477185
1536.0,0.0003464974579401314
1664.0,0.0005387141718529165
1792.0,0.00210737157613039
1920.0,0.012220744974911213
2048.0,0.012502927333116531
2304.0,0.004145468585193157
2560.0,0.006271348800510168
2816.0,0.007684821262955666
3072.0,0.004773073364049196
3328.0,0.003419316839426756
3584.0,-0.0016571579035371542
3840.0,-0.005536499433219433
4096.0,-0.0011217521969228983
4608.0,-0.0058079008013010025
5120.0,-5.2701110689667985e-05
5632.0,-0.002291717566549778
6144.0,-0.012130850926041603
6656.0,-0.0135757802054286
7168.0,-0.01250099204480648
7680.0,-0.009247838519513607
8192.0,-0.0044068568386137486
end
