version,3.0
numOfCh,1
type,point
parent_name,484af_0dot069-1dot0
ch_type,1_1
kcount,1
numberNandB,1
brightnessNandB,1
carpet pos,0
pc,0
Time (ms),CH1 Auto-Correlation
1.0,0.06690428406000137
2.0,0.0660572275519371
3.0,0.0653470978140831
4.0,0.06460460275411606
5.0,0.06397341936826706
6.0,0.06336068361997604
7.0,0.06276322901248932
8.0,0.06224285066127777
9.0,0.06170398369431496
10.0,0.06115227937698364
11.0,0.06062255799770355
12.0,0.06013602018356323
13.0,0.059685494750738144
14.0,0.059234894812107086
15.0,0.05877111479640007
16.0,0.05831952765583992
18.0,0.0573354996740818
20.0,0.056447193026542664
22.0,0.055554214864969254
24.0,0.054726120084524155
26.0,0.05386360362172127
28.0,0.05311034992337227
30.0,0.052370585501194
32.0,0.05162970721721649
36.0,0.0500924326479435
40.0,0.048620183020830154
44.0,0.04722633585333824
48.0,0.04589192941784859
52.0,0.04465089365839958
56.0,0.043360453099012375
60.0,0.04220445081591606
64.0,0.04112400859594345
72.0,0.03903917968273163
80.0,0.03738206997513771
88.0,0.035863541066646576
96.0,0.034315310418605804
104.0,0.0326651856303215
112.0,0.03136731684207916
120.0,0.030342532321810722
128.0,0.029285859316587448
144.0,0.026887664571404457
160.0,0.025360513478517532
176.0,0.02431340143084526
192.0,0.023140473291277885
208.0,0.021898876875638962
224.0,0.021123548969626427
240.0,0.020676791667938232
256.0,0.021246401593089104
288.0,0.02082112990319729
320.0,0.01935511641204357
352.0,0.01844373345375061
384.0,0.018521837890148163
416.0,0.018281739205121994
448.0,0.01864137314260006
480.0,0.019832534715533257
512.0,0.019264010712504387
576.0,0.012593097053468227
640.0,0.01002457458525896
704.0,0.012006410397589207
768.0,0.011468361131846905
832.0,0.010125151835381985
896.0,0.007561387959867716
960.0,0.009434588253498077
1024.0,0.009214898571372032
1152.0,0.0042295148596167564
1280.0,0.006240144371986389
1408.0,0.005676646251231432
1536.0,0.00836097076535225
1664.0,0.007494341116398573
1792.0,0.009424973279237747
1920.0,0.006327597424387932
2048.0,0.007036631461232901
2304.0,0.003871615044772625
2560.0,-0.0018892880761995912
2816.0,0.0011604311875998974
3072.0,0.0021030453499406576
3328.0,0.0024994798004627228
3584.0,-0.004113912582397461
3840.0,-0.0006968164816498756
4096.0,-0.008760885335505009
4608.0,-0.007327815052121878
5120.0,0.00018348298908676952
5632.0,0.0036000730469822884
6144.0,-0.0028317715041339397
6656.0,-0.007303375750780106
7168.0,-0.005871243309229612
7680.0,-0.009065236896276474
8192.0,-0.010814910754561424
end
