version,3.0
numOfCh,1
type,point
parent_name,484af_0dot069-1dot0
ch_type,1_1
kcount,1
numberNandB,1
brightnessNandB,1
carpet pos,0
pc,0
Time (ms),CH1 Auto-Correlation
1.0,0.06491631269454956
2.0,0.06414999812841415
3.0,0.06344946473836899
4.0,0.06277767568826675
5.0,0.06215578690171242
6.0,0.061568811535835266
7.0,0.06100250035524368
8.0,0.06049405410885811
9.0,0.059985656291246414
10.0,0.059473298490047455
11.0,0.05902203544974327
12.0,0.05854174122214317
13.0,0.05808425694704056
14.0,0.05764826014637947
15.0,0.05720758065581322
16.0,0.05677151307463646
18.0,0.05597492679953575
20.0,0.05525221303105354
22.0,0.05457068607211113
24.0,0.05392211303114891
26.0,0.053351014852523804
28.0,0.052736666053533554
30.0,0.0521707646548748
32.0,0.051631271839141846
36.0,0.050489429384469986
40.0,0.0493808314204216
44.0,0.048262935131788254
48.0,0.047126539051532745
52.0,0.046059008687734604
56.0,0.04496169090270996
60.0,0.043874580413103104
64.0,0.042756203562021255
72.0,0.04053172841668129
80.0,0.038332175463438034
88.0,0.03603792190551758
96.0,0.03396262601017952
104.0,0.032396070659160614
112.0,0.030967358499765396
120.0,0.029383430257439613
128.0,0.028160369023680687
144.0,0.026123736053705215
160.0,0.024107037112116814
176.0,0.022163264453411102
192.0,0.020464017987251282
208.0,0.018993545323610306
224.0,0.01746264658868313
240.0,0.015848757699131966
256.0,0.014693977311253548
288.0,0.012833753600716591
320.0,0.011732993647456169
352.0,0.010909268632531166
384.0,0.01012470107525587
416.0,0.009627132676541805
448.0,0.010465103201568127
480.0,0.010397723875939846
512.0,0.010610654018819332
576.0,0.01370104867964983
640.0,0.01712821051478386
704.0,0.0163719579577446
768.0,0.014202403835952282
832.0,0.010123031213879585
896.0,0.004654448013752699
960.0,0.001137051498517394
1024.0,0.0012331065954640508
1152.0,0.0019301885040476918
1280.0,0.004717726726084948
1408.0,0.0067740874364972115
1536.0,0.007842417806386948
1664.0,0.0013829836389049888
1792.0,-0.007804554421454668
1920.0,-0.012079337611794472
2048.0,-0.005192001815885305
2304.0,0.005266321823000908
2560.0,0.0003330179024487734
2816.0,0.003576496848836541
3072.0,0.0013865478103980422
3328.0,-0.005168796982616186
3584.0,0.0041658044792711735
3840.0,0.008206217549741268
4096.0,0.00247935694642365
4608.0,-0.0026953648775815964
5120.0,-0.002161411801353097
5632.0,-0.012569660320878029
6144.0,-0.010659212246537209
6656.0,-0.010862665250897408
7168.0,-0.02168072573840618
7680.0,-0.008587268181145191
8192.0,-0.011590074747800827
end
