version,3.0
numOfCh,1
type,point
parent_name,484af_0dot069-1dot0
ch_type,1_1
kcount,1
numberNandB,1
brightnessNandB,1
carpet pos,0
pc,0
Time (ms),CH1 Auto-Correlation
1.0,0.07553302496671677
2.0,0.07432806491851807
3.0,0.07333484292030334
4.0,0.07244408875703812
5.0,0.07159361243247986
6.0,0.07079589366912842
7.0,0.07010224461555481
8.0,0.06936227530241013
9.0,0.0685972049832344
10.0,0.06792937964200974
11.0,0.06727517396211624
12.0,0.06664100289344788
13.0,0.06595801562070847
14.0,0.06535249203443527
15.0,0.06476783007383347
16.0,0.06418555974960327
18.0,0.06304489076137543
20.0,0.061923157423734665
22.0,0.060964785516262054
24.0,0.059922631829977036
26.0,0.05884698033332825
28.0,0.05784959718585014
30.0,0.05683381110429764
32.0,0.05581597238779068
36.0,0.053973179310560226
40.0,0.05228040739893913
44.0,0.05079050734639168
48.0,0.04921096935868263
52.0,0.047665614634752274
56.0,0.04636171832680702
60.0,0.045161329209804535
64.0,0.043960921466350555
72.0,0.04143952950835228
80.0,0.03901217132806778
88.0,0.036999501287937164
96.0,0.03502582386136055
104.0,0.03326010704040527
112.0,0.031664811074733734
120.0,0.03066149540245533
128.0,0.02982601337134838
144.0,0.027792181819677353
160.0,0.025609366595745087
176.0,0.023314353078603745
192.0,0.020910784602165222
208.0,0.017371609807014465
224.0,0.014127525500953197
240.0,0.011442300863564014
256.0,0.008886679075658321
288.0,0.005858480464667082
320.0,0.004923676606267691
352.0,0.0040364651940763
384.0,0.001844964106567204
416.0,0.0005375021137297153
448.0,0.00042326925904490054
480.0,0.0012266974663361907
512.0,0.0026947769802063704
576.0,0.004881569184362888
640.0,0.0077926283702254295
704.0,0.0077198767103254795
768.0,0.006804652977734804
832.0,0.006430053152143955
896.0,0.007093767635524273
960.0,0.006565643474459648
1024.0,0.0022624400444328785
1152.0,-0.002437198767438531
1280.0,0.0016084796516224742
1408.0,0.007002273574471474
1536.0,0.005564841441810131
1664.0,-0.0009143606293946505
1792.0,-0.004517341032624245
1920.0,-0.004258398432284594
2048.0,0.000931036367546767
2304.0,0.007021740544587374
2560.0,0.013005685992538929
2816.0,0.009897931478917599
3072.0,0.008918935433030128
3328.0,0.004834432620555162
3584.0,-0.0015772037440910935
3840.0,0.008622096851468086
4096.0,0.004669792950153351
4608.0,-0.002959889592602849
5120.0,-0.004838085267692804
5632.0,0.00435988325625658
6144.0,-0.008160978555679321
6656.0,-0.008946079760789871
7168.0,-0.00025871320394799113
7680.0,-0.008678453974425793
8192.0,0.002099055564031005
end
