version,3.0
numOfCh,1
type,point
parent_name,484af_0dot069-1dot0
ch_type,1_1
kcount,1
numberNandB,1
brightnessNandB,1
carpet pos,0
pc,0
Time (ms),CH1 Auto-Correlation
1.0,0.09244456142187119
2.0,0.09156694263219833
3.0,0.09080327302217484
4.0,0.09006008505821228
5.0,0.08936002850532532
6.0,0.08871889114379883
7.0,0.08814243972301483
8.0,0.08760808408260345
9.0,0.08707498759031296
10.0,0.08654259145259857
11.0,0.08604099601507187
12.0,0.08549341559410095
13.0,0.08496485650539398
14.0,0.0844702497124672
15.0,0.08396710455417633
16.0,0.08346153795719147
18.0,0.08254611492156982
20.0,0.08172843605279922
22.0,0.08086055517196655
24.0,0.08006294816732407
26.0,0.0793294683098793
28.0,0.07854582369327545
30.0,0.07769428938627243
32.0,0.07680803537368774
36.0,0.07511752843856812
40.0,0.07339268177747726
44.0,0.0717596486210823
48.0,0.07025820761919022
52.0,0.06885144114494324
56.0,0.06758500635623932
60.0,0.06648407131433487
64.0,0.06549420952796936
72.0,0.06354906409978867
80.0,0.06151966750621796
88.0,0.05974223092198372
96.0,0.05806303769350052
104.0,0.05638045445084572
112.0,0.05477026849985123
120.0,0.05325772985816002
128.0,0.05188986286520958
144.0,0.049295756965875626
160.0,0.0471729040145874
176.0,0.04505195468664169
192.0,0.04345468431711197
208.0,0.04188459739089012
224.0,0.04024595022201538
240.0,0.038494739681482315
256.0,0.03679869696497917
288.0,0.03357110917568207
320.0,0.02962692826986313
352.0,0.02561631053686142
384.0,0.023548543453216553
416.0,0.022802989929914474
448.0,0.021039294078946114
480.0,0.01845117099583149
512.0,0.01634923182427883
576.0,0.011309053748846054
640.0,0.005151642952114344
704.0,0.0023188074119389057
768.0,0.0013858445454388857
832.0,0.0010425562504678965
896.0,-0.0019262408604845405
960.0,-0.005671849474310875
1024.0,-0.008067857474088669
1152.0,-0.01167796365916729
1280.0,-0.018771756440401077
1408.0,-0.017239239066839218
1536.0,-0.013803206384181976
1664.0,-0.008115758188068867
1792.0,-0.007705300580710173
1920.0,-0.006712839473038912
2048.0,6.831199243606534e-06
2304.0,0.0069867935962975025
2560.0,0.007818439975380898
2816.0,0.0026875867042690516
3072.0,-0.008627913892269135
3328.0,-0.009242548607289791
3584.0,-0.005926165729761124
3840.0,0.003505673026666045
4096.0,0.0014077669475227594
4608.0,0.012730219401419163
5120.0,-0.006915824953466654
5632.0,-0.017866622656583786
6144.0,-0.0070970552042126656
6656.0,0.0029032204765826464
7168.0,0.005594868678599596
7680.0,-0.02864205464720726
8192.0,-0.03253469616174698
end
