version,3.0
numOfCh,1
type,point
parent_name,484af_0dot069-1dot0
ch_type,1_1
kcount,1
numberNandB,1
brightnessNandB,1
carpet pos,0
pc,0
Time (ms),CH1 Auto-Correlation
1.0,0.10500133037567139
2.0,0.1041279137134552
3.0,0.10336801409721375
4.0,0.1026567593216896
5.0,0.1019989624619484
6.0,0.10139763355255127
7.0,0.1007722020149231
8.0,0.10019423812627792
9.0,0.09960681200027466
10.0,0.09902100265026093
11.0,0.09845995903015137
12.0,0.09791447967290878
13.0,0.09738168865442276
14.0,0.09685211628675461
15.0,0.09631913155317307
16.0,0.09577922523021698
18.0,0.09476915746927261
20.0,0.09376344829797745
22.0,0.0927462950348854
24.0,0.09172762930393219
26.0,0.09075282514095306
28.0,0.08979734033346176
30.0,0.08889830857515335
32.0,0.08805874735116959
36.0,0.08645059913396835
40.0,0.08495201170444489
44.0,0.08342546969652176
48.0,0.08186901360750198
52.0,0.08047252148389816
56.0,0.07926172763109207
60.0,0.07815748453140259
64.0,0.07708289474248886
72.0,0.0746547132730484
80.0,0.0723499208688736
88.0,0.07006587833166122
96.0,0.06790722906589508
104.0,0.06590816378593445
112.0,0.06402871757745743
120.0,0.062218211591243744
128.0,0.06029616668820381
144.0,0.055742956697940826
160.0,0.051482029259204865
176.0,0.047662489116191864
192.0,0.04484948888421059
208.0,0.04223882406949997
224.0,0.03905226290225983
240.0,0.03616495802998543
256.0,0.03380972519516945
288.0,0.03066626563668251
320.0,0.02761455997824669
352.0,0.024235688149929047
384.0,0.022232143208384514
416.0,0.02233395166695118
448.0,0.020877622067928314
480.0,0.018918726593255997
512.0,0.017373237758874893
576.0,0.016958387568593025
640.0,0.016301540657877922
704.0,0.016003189608454704
768.0,0.015243498608469963
832.0,0.012664370238780975
896.0,0.008707957342267036
960.0,0.008894968777894974
1024.0,0.011528020724654198
1152.0,0.008825808763504028
1280.0,-0.002134996233507991
1408.0,-0.009913848713040352
1536.0,-0.01440433319658041
1664.0,-0.016926439478993416
1792.0,-0.01464313268661499
1920.0,-0.01792801544070244
2048.0,-0.017475629225373268
2304.0,-0.011537324637174606
2560.0,-0.010331250727176666
2816.0,-0.002337198704481125
3072.0,0.0019392793765291572
3328.0,-0.004992014262825251
3584.0,-0.001091663260012865
3840.0,0.0032865297980606556
4096.0,0.024382172152400017
4608.0,-0.006448754575103521
5120.0,0.013459817506372929
5632.0,-0.01451856642961502
6144.0,0.0007306693005375564
6656.0,0.012763911858201027
7168.0,0.005364196375012398
7680.0,-0.02289375476539135
8192.0,-0.03160854056477547
end
