version,3.0
numOfCh,1
type,point
parent_name,484af_0dot069-1dot0
ch_type,1_1
kcount,1
numberNandB,1
brightnessNandB,1
carpet pos,0
pc,0
Time (ms),CH1 Auto-Correlation
1.0,0.07323384284973145
2.0,0.07230594754219055
3.0,0.07145507633686066
4.0,0.0707135871052742
5.0,0.07002595067024231
6.0,0.0694122239947319
7.0,0.06878122687339783
8.0,0.06818347424268723
9.0,0.0676150843501091
10.0,0.06698102504014969
11.0,0.06640037894248962
12.0,0.06583026796579361
13.0,0.06532424688339233
14.0,0.06483620405197144
15.0,0.06435897946357727
16.0,0.06383401900529861
18.0,0.06283444166183472
20.0,0.06190958619117737
22.0,0.061067428439855576
24.0,0.06024472042918205
26.0,0.05944783613085747
28.0,0.05871250107884407
30.0,0.05790490657091141
32.0,0.057092975825071335
36.0,0.05570268630981445
40.0,0.05438360199332237
44.0,0.05307755991816521
48.0,0.0518651120364666
52.0,0.05077032372355461
56.0,0.0497124083340168
60.0,0.04862814024090767
64.0,0.04773140326142311
72.0,0.046073462814092636
80.0,0.04453064501285553
88.0,0.04330321028828621
96.0,0.042087070643901825
104.0,0.0408407524228096
112.0,0.039455633610486984
120.0,0.03792840987443924
128.0,0.0362703762948513
144.0,0.03351971507072449
160.0,0.030912114307284355
176.0,0.028593948110938072
192.0,0.02704043686389923
208.0,0.025814320892095566
224.0,0.024499105289578438
240.0,0.02309539169073105
256.0,0.02210319973528385
288.0,0.018681572750210762
320.0,0.016312912106513977
352.0,0.013529181480407715
384.0,0.008949775248765945
416.0,0.005196886602789164
448.0,0.0016685564769431949
480.0,-0.001946255681104958
512.0,-0.00566111272200942
576.0,-0.006029220763593912
640.0,-0.00639512250199914
704.0,-0.007894430309534073
768.0,-0.009864039719104767
832.0,-0.009768035262823105
896.0,-0.006955129560083151
960.0,-0.002064357977360487
1024.0,0.0007138627697713673
1152.0,0.002985068131238222
1280.0,0.0092458575963974
1408.0,0.01382073201239109
1536.0,0.008027722127735615
1664.0,0.004518275614827871
1792.0,-0.0014682234032079577
1920.0,-0.009093856438994408
2048.0,-0.012399679981172085
2304.0,-0.012027401477098465
2560.0,-0.004178048111498356
2816.0,0.0043445732444524765
3072.0,0.007322712801396847
3328.0,-0.004279612563550472
3584.0,-0.013929237611591816
3840.0,-0.013748717494308949
4096.0,-0.0008291313424706459
4608.0,-0.007238101679831743
5120.0,-0.01232236623764038
5632.0,0.006365864537656307
6144.0,0.0030778527725487947
6656.0,0.004840552341192961
7168.0,0.017604362219572067
7680.0,0.010281097143888474
8192.0,0.0024487830232828856
end
