version,3.0
numOfCh,1
type,point
parent_name,484af_0dot069-1dot0
ch_type,1_1
kcount,1
numberNandB,1
brightnessNandB,1
carpet pos,0
pc,0
Time (ms),CH1 Auto-Correlation
1.0,0.07219139486551285
2.0,0.07138434797525406
3.0,0.07064913958311081
4.0,0.06996974349021912
5.0,0.06933468580245972
6.0,0.06869808584451675
7.0,0.06808745115995407
8.0,0.06747601926326752
9.0,0.06690408289432526
10.0,0.06633595377206802
11.0,0.06575947999954224
12.0,0.06521883606910706
13.0,0.06470338255167007
14.0,0.06415897607803345
15.0,0.0636376217007637
16.0,0.06311481446027756
18.0,0.062114667147397995
20.0,0.06115167215466499
22.0,0.060260120779275894
24.0,0.05947008356451988
26.0,0.05867941677570343
28.0,0.05790293216705322
30.0,0.05717773362994194
32.0,0.056442759931087494
36.0,0.055013708770275116
40.0,0.05367481708526611
44.0,0.052466072142124176
48.0,0.05129160359501839
52.0,0.05014781653881073
56.0,0.0489492230117321
60.0,0.047723159193992615
64.0,0.04656511917710304
72.0,0.044429607689380646
80.0,0.04240249842405319
88.0,0.040448933839797974
96.0,0.03882942721247673
104.0,0.037326596677303314
112.0,0.0358821339905262
120.0,0.03432812541723251
128.0,0.032783184200525284
144.0,0.03033684380352497
160.0,0.028342606499791145
176.0,0.026180701330304146
192.0,0.024911709129810333
208.0,0.023728301748633385
224.0,0.022264404222369194
240.0,0.02124183438718319
256.0,0.020449290052056313
288.0,0.018945354968309402
320.0,0.019669309258461
352.0,0.019002383574843407
384.0,0.018406275659799576
416.0,0.016442812979221344
448.0,0.014711655676364899
480.0,0.013812826946377754
512.0,0.01268277782946825
576.0,0.009945446625351906
640.0,0.006109706126153469
704.0,0.004936120938509703
768.0,0.005290450993925333
832.0,0.006876078899949789
896.0,0.007852093316614628
960.0,0.0024909579660743475
1024.0,-0.0015584573848173022
1152.0,-0.0038271404337137938
1280.0,-0.0036514950916171074
1408.0,-0.010669641196727753
1536.0,-0.009996206499636173
1664.0,-0.011920440010726452
1792.0,-0.014293567277491093
1920.0,-0.016665179282426834
2048.0,-0.012477334588766098
2304.0,-0.006416736636310816
2560.0,-0.005007385276257992
2816.0,-0.002775693079456687
3072.0,-0.005630610045045614
3328.0,-0.0017387050902470946
3584.0,-0.005367003846913576
3840.0,-0.006706524174660444
4096.0,-0.0069709098897874355
4608.0,-0.0008871973259374499
5120.0,0.00478368578478694
5632.0,0.002528491662815213
6144.0,0.0004968075663782656
6656.0,0.009784447960555553
7168.0,0.010086826980113983
7680.0,0.015447731129825115
8192.0,-0.0019627802539616823
end
