version,3.0
numOfCh,1
type,point
parent_name,484af_0dot069-1dot0
ch_type,1_1
kcount,1
numberNandB,1
brightnessNandB,1
carpet pos,0
pc,0
Time (ms),CH1 Auto-Correlation
1.0,0.08041521906852722
2.0,0.07918965071439743
3.0,0.07818172127008438
4.0,0.07711056619882584
5.0,0.07610910385847092
6.0,0.07525215297937393
7.0,0.07443642616271973
8.0,0.07362517714500427
9.0,0.07279452681541443
10.0,0.07203403860330582
11.0,0.07128632813692093
12.0,0.07049718499183655
13.0,0.06976231932640076
14.0,0.0690050944685936
15.0,0.0682164803147316
16.0,0.0674203634262085
18.0,0.06592422723770142
20.0,0.06438688188791275
22.0,0.06288493424654007
24.0,0.06139807403087616
26.0,0.05994367226958275
28.0,0.058529049158096313
30.0,0.05725616216659546
32.0,0.056114669889211655
36.0,0.05369621142745018
40.0,0.05133228749036789
44.0,0.04921185225248337
48.0,0.047219835221767426
52.0,0.045428331941366196
56.0,0.04372502490878105
60.0,0.042200349271297455
64.0,0.04066211357712746
72.0,0.03801189735531807
80.0,0.03583424910902977
88.0,0.0339045412838459
96.0,0.032045651227235794
104.0,0.030033482238650322
112.0,0.028021765872836113
120.0,0.026287946850061417
128.0,0.024209072813391685
144.0,0.020632082596421242
160.0,0.01867852918803692
176.0,0.01700950227677822
192.0,0.014426836743950844
208.0,0.011496702209115028
224.0,0.008645682595670223
240.0,0.006218024995177984
256.0,0.003557445015758276
288.0,-0.0008580417488701642
320.0,-0.004312081728130579
352.0,-0.006169815547764301
384.0,-0.0058678206987679005
416.0,-0.004750468302518129
448.0,-0.004556736443191767
480.0,-0.0032258748542517424
512.0,-0.0019476752495393157
576.0,-0.0025007042568176985
640.0,-0.0022861657198518515
704.0,0.0006208614213392138
768.0,0.0012288937577977777
832.0,0.0008122845320031047
896.0,0.003447963623329997
960.0,0.004744031000882387
1024.0,0.002763214288279414
1152.0,-0.0005332829896360636
1280.0,0.0023709842935204506
1408.0,-0.001335100387223065
1536.0,-0.005329171661287546
1664.0,-0.009965317323803902
1792.0,-0.008083688095211983
1920.0,-0.0069939442910254
2048.0,-0.007861293852329254
2304.0,-0.001261710305698216
2560.0,-0.001181738218292594
2816.0,-0.0035873556043952703
3072.0,-0.00010567506978986785
3328.0,0.0032320446334779263
3584.0,0.004174174275249243
3840.0,0.011821774765849113
4096.0,0.004265082534402609
4608.0,-0.0005885668797418475
5120.0,-0.0004437912139110267
5632.0,-0.010804491117596626
6144.0,-0.008738787844777107
6656.0,0.0018834307556971908
7168.0,-0.0004130094894208014
7680.0,0.0052628167904913425
8192.0,0.0005535876844078302
end
