version,3.0
numOfCh,1
type,point
parent_name,484af_0dot069-1dot0
ch_type,1_1
kcount,1
numberNandB,1
brightnessNandB,1
carpet pos,0
pc,0
Time (ms),CH1 Auto-Correlation
1.0,0.07180539518594742
2.0,0.07099756598472595
3.0,0.0703030601143837
4.0,0.06971588730812073
5.0,0.06911664456129074
6.0,0.06852028518915176
7.0,0.06797586381435394
8.0,0.06744860857725143
9.0,0.06693632155656815
10.0,0.06642964482307434
11.0,0.06595953553915024
12.0,0.06548604369163513
13.0,0.06498122215270996
14.0,0.06449725478887558
15.0,0.06402759999036789
16.0,0.06358589977025986
18.0,0.06267913430929184
20.0,0.061844129115343094
22.0,0.06103937700390816
24.0,0.06023149564862251
26.0,0.05945514142513275
28.0,0.05875052884221077
30.0,0.05804602429270744
32.0,0.05734390765428543
36.0,0.056002456694841385
40.0,0.05466257035732269
44.0,0.053368378430604935
48.0,0.05223430320620537
52.0,0.051126398146152496
56.0,0.0500016026198864
60.0,0.04902787134051323
64.0,0.048072826117277145
72.0,0.04632069915533066
80.0,0.04473893716931343
88.0,0.043183885514736176
96.0,0.04159094765782356
104.0,0.03996054083108902
112.0,0.03833509236574173
120.0,0.0368497408926487
128.0,0.035807088017463684
144.0,0.034089528024196625
160.0,0.03192223608493805
176.0,0.03011462278664112
192.0,0.028571927919983864
208.0,0.02728992886841297
224.0,0.0261874720454216
240.0,0.02536720782518387
256.0,0.02481076866388321
288.0,0.023889435455203056
320.0,0.02369062229990959
352.0,0.024102231487631798
384.0,0.024052876979112625
416.0,0.02296546846628189
448.0,0.02157236449420452
480.0,0.019062651321291924
512.0,0.016626836732029915
576.0,0.014154229313135147
640.0,0.012193235568702221
704.0,0.011411176063120365
768.0,0.010418799705803394
832.0,0.010296352207660675
896.0,0.005688878241926432
960.0,0.003517810022458434
1024.0,0.002605876186862588
1152.0,0.0003012625966221094
1280.0,-0.0016815440030768514
1408.0,-0.00840200949460268
1536.0,-0.014254062436521053
1664.0,-0.012576228007674217
1792.0,-0.014218552969396114
1920.0,-0.014027039520442486
2048.0,-0.009409107267856598
2304.0,-0.009132197126746178
2560.0,-0.008149899542331696
2816.0,-0.009036312811076641
3072.0,-0.0043161665089428425
3328.0,0.0014095799997448921
3584.0,0.005393513012677431
3840.0,0.004566873889416456
4096.0,0.00019371300004422665
4608.0,0.0014800985809415579
5120.0,-0.0029810830019414425
5632.0,0.0032356998417526484
6144.0,-0.0014801241923123598
6656.0,-0.0026741651818156242
7168.0,-0.003016051137819886
7680.0,0.004618859384208918
8192.0,0.009586361236870289
end
