version,3.0
numOfCh,1
type,point
parent_name,484af_0dot069-1dot0
ch_type,1_1
kcount,1
numberNandB,1
brightnessNandB,1
carpet pos,0
pc,0
Time (ms),CH1 Auto-Correlation
1.0,0.08471238613128662
2.0,0.0834883525967598
3.0,0.08244909346103668
4.0,0.0815187469124794
5.0,0.08076927810907364
6.0,0.0800228863954544
7.0,0.07919511944055557
8.0,0.07851044088602066
9.0,0.0778622180223465
10.0,0.0772659108042717
11.0,0.07664085179567337
12.0,0.07615518569946289
13.0,0.07561786472797394
14.0,0.07506074011325836
15.0,0.07458138465881348
16.0,0.07408326119184494
18.0,0.07315164059400558
20.0,0.07229024916887283
22.0,0.07143634557723999
24.0,0.0706728920340538
26.0,0.06995373219251633
28.0,0.06921253353357315
30.0,0.06843844056129456
32.0,0.06769359856843948
36.0,0.06622063368558884
40.0,0.06488808244466782
44.0,0.0636034905910492
48.0,0.06230170652270317
52.0,0.06120414286851883
56.0,0.0602724589407444
60.0,0.059174805879592896
64.0,0.05795188993215561
72.0,0.05593011900782585
80.0,0.05416930094361305
88.0,0.05239376798272133
96.0,0.05066810920834541
104.0,0.049303121864795685
112.0,0.04779708757996559
120.0,0.046156518161296844
128.0,0.044699717313051224
144.0,0.042215459048748016
160.0,0.03994274139404297
176.0,0.037972260266542435
192.0,0.03604889288544655
208.0,0.034192297607660294
224.0,0.03189795836806297
240.0,0.02974592335522175
256.0,0.027688074856996536
288.0,0.024114206433296204
320.0,0.021668290719389915
352.0,0.018801530823111534
384.0,0.01734793931245804
416.0,0.016279060393571854
448.0,0.015015114098787308
480.0,0.013385751284658909
512.0,0.012549708597362041
576.0,0.010389750823378563
640.0,0.0073709189891815186
704.0,0.0051119509153068066
768.0,0.00399976409971714
832.0,0.0020755515433847904
896.0,0.0001491374714532867
960.0,-0.0023374175652861595
1024.0,-0.00833306834101677
1152.0,-0.014045239426195621
1280.0,-0.011902213096618652
1408.0,-0.0037858556024730206
1536.0,-0.003092094324529171
1664.0,-0.00424033310264349
1792.0,-0.007417220622301102
1920.0,-0.008810949511826038
2048.0,-0.00844244472682476
2304.0,-0.01527460664510727
2560.0,-0.02508554607629776
2816.0,-0.022394055500626564
3072.0,-0.016657372936606407
3328.0,-0.01190044917166233
3584.0,0.001073341118171811
3840.0,0.014813438057899475
4096.0,0.02080024778842926
4608.0,0.00758102722465992
5120.0,-0.0011305813677608967
5632.0,0.009447459131479263
6144.0,-0.001617040834389627
6656.0,-0.02372598648071289
7168.0,-0.019749067723751068
7680.0,-0.001353503088466823
8192.0,0.014309531077742577
end
