version,3.0
numOfCh,1
type,point
parent_name,484af_0dot069-1dot0
ch_type,1_1
kcount,1
numberNandB,1
brightnessNandB,1
carpet pos,0
pc,0
Time (ms),CH1 Auto-Correlation
1.0,0.07945337891578674
2.0,0.07864169031381607
3.0,0.07792709767818451
4.0,0.07723122835159302
5.0,0.07653668522834778
6.0,0.07590737193822861
7.0,0.07528971880674362
8.0,0.07474342733621597
9.0,0.07418201863765717
10.0,0.0736335963010788
11.0,0.0730973407626152
12.0,0.07256805896759033
13.0,0.07201118767261505
14.0,0.07146236300468445
15.0,0.07090877741575241
16.0,0.07037688046693802
18.0,0.06927156448364258
20.0,0.06825124472379684
22.0,0.06726277619600296
24.0,0.06631877273321152
26.0,0.06535909324884415
28.0,0.06446009129285812
30.0,0.06356287002563477
32.0,0.06264081597328186
36.0,0.06100017949938774
40.0,0.05940243601799011
44.0,0.05781568959355354
48.0,0.056333839893341064
52.0,0.05488986521959305
56.0,0.053454361855983734
60.0,0.05216168612241745
64.0,0.05098621919751167
72.0,0.048727940768003464
80.0,0.046545594930648804
88.0,0.04434198513627052
96.0,0.04237305745482445
104.0,0.040696993470191956
112.0,0.039475828409194946
120.0,0.038492798805236816
128.0,0.03767554089426994
144.0,0.03624894469976425
160.0,0.03522103652358055
176.0,0.03418899327516556
192.0,0.03265489265322685
208.0,0.031127439811825752
224.0,0.029817143455147743
240.0,0.028407210484147072
256.0,0.026486074551939964
288.0,0.02188320830464363
320.0,0.018676387146115303
352.0,0.015459757298231125
384.0,0.013430485501885414
416.0,0.011464541777968407
448.0,0.009408770129084587
480.0,0.007021944038569927
512.0,0.00439837109297514
576.0,0.0012065001064911485
640.0,-0.00028802789165638387
704.0,-0.002173250773921609
768.0,-0.006369900889694691
832.0,-0.00956563651561737
896.0,-0.011024114675819874
960.0,-0.011551977135241032
1024.0,-0.013330650515854359
1152.0,-0.019324947148561478
1280.0,-0.019966304302215576
1408.0,-0.017640775069594383
1536.0,-0.010178990662097931
1664.0,-0.0035584375727921724
1792.0,-0.0019460114417597651
1920.0,-0.002189450431615114
2048.0,0.0007872798596508801
2304.0,0.0069153690710663795
2560.0,0.0023580072447657585
2816.0,-0.007539071142673492
3072.0,-0.013047832064330578
3328.0,-0.010190543718636036
3584.0,-0.0031486237421631813
3840.0,0.010363433510065079
4096.0,0.023964213207364082
4608.0,0.00838119350373745
5120.0,-0.017749851569533348
5632.0,-0.024386273697018623
6144.0,0.004692383110523224
6656.0,0.015055728144943714
7168.0,0.010820209048688412
7680.0,-0.0060877203941345215
8192.0,-0.001281531061977148
end
