version,3.0
numOfCh,1
type,point
parent_name,484af_0dot069-1dot0
ch_type,1_1
kcount,1
numberNandB,1
brightnessNandB,1
carpet pos,0
pc,0
Time (ms),CH1 Auto-Correlation
1.0,0.09327391535043716
2.0,0.09212691336870193
3.0,0.09125176072120667
4.0,0.09049590677022934
5.0,0.08977384865283966
6.0,0.08902886509895325
7.0,0.08831220120191574
8.0,0.08761398494243622
9.0,0.08699412643909454
10.0,0.08637994527816772
11.0,0.08575887233018875
12.0,0.0851515382528305
13.0,0.08452232927083969
14.0,0.0839148610830307
15.0,0.08332791924476624
16.0,0.08274278044700623
18.0,0.08160185068845749
20.0,0.08051580935716629
22.0,0.07953932136297226
24.0,0.07861576974391937
26.0,0.0777335837483406
28.0,0.07686926424503326
30.0,0.07600102573633194
32.0,0.07503389567136765
36.0,0.0733448788523674
40.0,0.07169103622436523
44.0,0.07013947516679764
48.0,0.06863633543252945
52.0,0.06714101880788803
56.0,0.06584221124649048
60.0,0.06464369595050812
64.0,0.06345507502555847
72.0,0.061215441673994064
80.0,0.058808937668800354
88.0,0.056258540600538254
96.0,0.05389541760087013
104.0,0.052253928035497665
112.0,0.05065811797976494
120.0,0.049177322536706924
128.0,0.047891587018966675
144.0,0.04597511887550354
160.0,0.044612009078264236
176.0,0.04352347552776337
192.0,0.043552108108997345
208.0,0.04298641160130501
224.0,0.042620040476322174
240.0,0.042237818241119385
256.0,0.0415542870759964
288.0,0.038085199892520905
320.0,0.034748949110507965
352.0,0.03147023171186447
384.0,0.030356718227267265
416.0,0.031047187745571136
448.0,0.030264535918831825
480.0,0.02944324165582657
512.0,0.027986418455839157
576.0,0.024931984022259712
640.0,0.02251552604138851
704.0,0.016863437369465828
768.0,0.011576780118048191
832.0,0.005300821736454964
896.0,0.0006158162141218781
960.0,-0.00338862300850451
1024.0,-0.004005350172519684
1152.0,-0.005852099508047104
1280.0,-0.008202356286346912
1408.0,-0.01038026250898838
1536.0,-0.013273636810481548
1664.0,-0.010937105864286423
1792.0,-0.007532182149589062
1920.0,-0.00528818741440773
2048.0,-0.003754898440092802
2304.0,-0.002976121148094535
2560.0,-0.0031371095683425665
2816.0,-0.006872381549328566
3072.0,-0.012280876748263836
3328.0,-0.01281171664595604
3584.0,-0.010006852447986603
3840.0,-0.006381435319781303
4096.0,-0.0054431334137916565
4608.0,-0.004146676976233721
5120.0,-0.013021307066082954
5632.0,-0.02044999971985817
6144.0,-0.010425449348986149
6656.0,0.010935370810329914
7168.0,0.021558355540037155
7680.0,0.0004241847200319171
8192.0,-0.023556416854262352
end
