version,3.0
numOfCh,1
type,point
parent_name,484af_0dot069-1dot0
ch_type,1_1
kcount,1
numberNandB,1
brightnessNandB,1
carpet pos,0
pc,0
Time (ms),CH1 Auto-Correlation
1.0,0.098829485476017
2.0,0.09785819798707962
3.0,0.09703299403190613
4.0,0.09623068571090698
5.0,0.0954684242606163
6.0,0.09478559345006943
7.0,0.09408996254205704
8.0,0.09337618947029114
9.0,0.09271010011434555
10.0,0.09207075834274292
11.0,0.09141285717487335
12.0,0.09076881408691406
13.0,0.09019270539283752
14.0,0.08958759158849716
15.0,0.08901578187942505
16.0,0.08848140388727188
18.0,0.08744332939386368
20.0,0.08643805235624313
22.0,0.08552003651857376
24.0,0.08466143161058426
26.0,0.08381244540214539
28.0,0.082998126745224
30.0,0.0822184756398201
32.0,0.0814879834651947
36.0,0.08015533536672592
40.0,0.07881733030080795
44.0,0.07744613289833069
48.0,0.0761382058262825
52.0,0.07500782608985901
56.0,0.0739271491765976
60.0,0.07276161760091782
64.0,0.07157982140779495
72.0,0.06936980783939362
80.0,0.06736351549625397
88.0,0.06584229320287704
96.0,0.06472980976104736
104.0,0.06328596919775009
112.0,0.06180386245250702
120.0,0.060546647757291794
128.0,0.0590922012925148
144.0,0.05634360387921333
160.0,0.05376970395445824
176.0,0.05109037086367607
192.0,0.048040203750133514
208.0,0.045130107551813126
224.0,0.04250640794634819
240.0,0.04041198268532753
256.0,0.03833767771720886
288.0,0.03592240810394287
320.0,0.03293442353606224
352.0,0.030164295807480812
384.0,0.02608817256987095
416.0,0.022577747702598572
448.0,0.019768794998526573
480.0,0.0161801315844059
512.0,0.012359351851046085
576.0,0.006937433034181595
640.0,0.004408520646393299
704.0,0.0027033870574086905
768.0,0.0025830857921391726
832.0,0.003324219025671482
896.0,0.003714080899953842
960.0,0.0076325638219714165
1024.0,0.010854726657271385
1152.0,0.009000931866466999
1280.0,0.0102789755910635
1408.0,0.007368894759565592
1536.0,-0.0001456038444302976
1664.0,-0.00907779112458229
1792.0,-0.012939156033098698
1920.0,-0.015079249627888203
2048.0,-0.016309119760990143
2304.0,-0.009108277969062328
2560.0,-0.003824664978310466
2816.0,0.0026954442728310823
3072.0,0.0005918689421378076
3328.0,-0.004728453699499369
3584.0,-0.01013182569295168
3840.0,-0.005345717538148165
4096.0,0.010345625691115856
4608.0,0.012314878404140472
5120.0,-0.008985585533082485
5632.0,0.008072787895798683
6144.0,-0.03343430534005165
6656.0,-0.029211625456809998
7168.0,-0.017493797466158867
7680.0,-0.030424829572439194
8192.0,0.0002502284769434482
end
