version,3.0
numOfCh,1
type,point
parent_name,dirty_0dot6-1dot0
ch_type,1_1
kcount,1
numberNandB,1
brightnessNandB,1
carpet pos,0
pc,0
Time (ms),CH1 Auto-Correlation
1.0,0.772501528263092
2.0,0.7136840224266052
3.0,0.6621562242507935
4.0,0.6143791675567627
5.0,0.572113037109375
6.0,0.5361411571502686
7.0,0.5062995553016663
8.0,0.47727760672569275
9.0,0.45437589287757874
10.0,0.4365030825138092
11.0,0.41585078835487366
12.0,0.397811621427536
13.0,0.38413766026496887
14.0,0.3739701509475708
15.0,0.35841983556747437
16.0,0.33947327733039856
18.0,0.31048259139060974
20.0,0.28392282128334045
22.0,0.26699694991111755
24.0,0.25062814354896545
26.0,0.23213019967079163
28.0,0.218302920460701
30.0,0.21019862592220306
32.0,0.20427118241786957
36.0,0.1846577525138855
40.0,0.1737433671951294
44.0,0.1719624251127243
48.0,0.16982793807983398
52.0,0.16280122101306915
56.0,0.1651778668165207
60.0,0.17124821245670319
64.0,0.1651860475540161
72.0,0.13619071245193481
80.0,0.10836352407932281
88.0,0.08177445828914642
96.0,0.07006760686635971
104.0,0.06141218543052673
112.0,0.06270517408847809
120.0,0.0387314148247242
128.0,0.025436902418732643
144.0,0.007948188111186028
160.0,0.012304947711527348
176.0,0.031698133796453476
192.0,0.035217415541410446
208.0,0.019378816708922386
224.0,0.026412585750222206
240.0,0.039243292063474655
256.0,0.03911590203642845
288.0,0.013462742790579796
320.0,0.04691920801997185
352.0,0.04803100973367691
384.0,0.022640004754066467
416.0,0.011590848676860332
448.0,0.016557708382606506
480.0,-0.0016806938219815493
512.0,0.015493561513721943
576.0,0.0022125423420220613
640.0,0.0016653172206133604
704.0,0.014601283706724644
768.0,0.016752786934375763
832.0,0.016598094254732132
896.0,0.017955796793103218
960.0,-0.017287863418459892
1024.0,-0.02544739842414856
1152.0,-0.02381041646003723
1280.0,-0.005062683951109648
1408.0,-0.003110544988885522
1536.0,-0.0075242603197693825
1664.0,-0.0006271313759498298
1792.0,-0.013761729001998901
1920.0,-0.010420686565339565
2048.0,0.0023234498221427202
2304.0,0.0406305305659771
2560.0,-0.041878990828990936
2816.0,0.012249553576111794
3072.0,0.012086938135325909
3328.0,0.0008312836289405823
3584.0,0.03670438751578331
3840.0,0.019705496728420258
4096.0,-0.02224799431860447
4608.0,-0.03702254965901375
5120.0,0.015286478213965893
5632.0,0.0037279012612998486
6144.0,-0.03887811303138733
6656.0,-0.0446976013481617
7168.0,-0.01569688506424427
7680.0,-0.005482787266373634
8192.0,-0.007988261990249157
9216.0,0.014973925426602364
10240.0,-0.014793978072702885
11264.0,0.009007331915199757
12288.0,-0.002259192056953907
13312.0,0.013543903827667236
14336.0,0.004507649224251509
end
