version,3.0
numOfCh,1
type,point
parent_name,dirty_0dot6-1dot0
ch_type,1_1
kcount,1
numberNandB,1
brightnessNandB,1
carpet pos,0
pc,0
Time (ms),CH1 Auto-Correlation
1.0,0.4173279106616974
2.0,0.3838551640510559
3.0,0.35332679748535156
4.0,0.32717424631118774
5.0,0.3070944547653198
6.0,0.28943392634391785
7.0,0.27622082829475403
8.0,0.2608911991119385
9.0,0.2443191558122635
10.0,0.22837533056735992
11.0,0.21062737703323364
12.0,0.19446560740470886
13.0,0.179794579744339
14.0,0.16662774980068207
15.0,0.15785729885101318
16.0,0.14912234246730804
18.0,0.13304316997528076
20.0,0.1203983798623085
22.0,0.11192622035741806
24.0,0.10398651659488678
26.0,0.09751000255346298
28.0,0.09551475942134857
30.0,0.09276511520147324
32.0,0.09077921509742737
36.0,0.0886111706495285
40.0,0.08671201765537262
44.0,0.08608802407979965
48.0,0.08111502230167389
52.0,0.07537651807069778
56.0,0.07340116053819656
60.0,0.06597842276096344
64.0,0.062208693474531174
72.0,0.05557451769709587
80.0,0.044028181582689285
88.0,0.03887934237718582
96.0,0.03647022321820259
104.0,0.03905308619141579
112.0,0.04244692623615265
120.0,0.033193960785865784
128.0,0.017057573422789574
144.0,0.012523828074336052
160.0,0.006604502443224192
176.0,0.0006700694211758673
192.0,0.011896023526787758
208.0,0.015593510121107101
224.0,0.02081991918385029
240.0,0.028523845598101616
256.0,0.03304685279726982
288.0,0.015452363528311253
320.0,0.008245082572102547
352.0,0.007696101907640696
384.0,0.0006805247394368052
416.0,0.013068589381873608
448.0,0.01381883304566145
480.0,0.008466700091958046
512.0,0.004741247743368149
576.0,-0.005765602458268404
640.0,-0.014163692481815815
704.0,-0.017151232808828354
768.0,-0.015101350843906403
832.0,-0.009701475501060486
896.0,0.004173127934336662
960.0,0.007546816021203995
1024.0,-0.0008890178287401795
1152.0,-0.0010853843996301293
1280.0,0.0026927213184535503
1408.0,0.002725923201069236
1536.0,0.015179133042693138
1664.0,-0.009244286455214024
1792.0,-0.004302252549678087
1920.0,0.014560280367732048
2048.0,0.006213747896254063
2304.0,-0.003917388617992401
2560.0,0.005425882525742054
2816.0,0.014072727411985397
3072.0,-0.014431667514145374
3328.0,-0.017846528440713882
3584.0,-0.009948995895683765
3840.0,0.010045732371509075
4096.0,0.008972089737653732
4608.0,0.006809072103351355
5120.0,-0.00490992097184062
5632.0,0.016931479796767235
6144.0,0.004197011701762676
6656.0,-0.005562163423746824
7168.0,-0.005033412948250771
7680.0,-0.014578791335225105
8192.0,-0.009360991418361664
9216.0,-0.0038040969520807266
10240.0,-0.018419278785586357
11264.0,0.00974477268755436
12288.0,-0.019579671323299408
13312.0,0.011461282148957253
14336.0,-0.024705037474632263
end
