version,3.0
numOfCh,1
type,point
parent_name,dirty_0dot6-1dot0
ch_type,1_1
kcount,1
numberNandB,1
brightnessNandB,1
carpet pos,0
pc,0
Time (ms),CH1 Auto-Correlation
1.0,0.4218791425228119
2.0,0.3900657296180725
3.0,0.3643973171710968
4.0,0.33970963954925537
5.0,0.31587156653404236
6.0,0.2938287556171417
7.0,0.2734610140323639
8.0,0.2549823820590973
9.0,0.23805275559425354
10.0,0.22314399480819702
11.0,0.2099246084690094
12.0,0.197398379445076
13.0,0.1871100664138794
14.0,0.18022574484348297
15.0,0.1746208518743515
16.0,0.1690988391637802
18.0,0.16074354946613312
20.0,0.1526782363653183
22.0,0.14432771503925323
24.0,0.1354864537715912
26.0,0.128306582570076
28.0,0.12291260808706284
30.0,0.11812227219343185
32.0,0.11334545165300369
36.0,0.10940688103437424
40.0,0.10471969842910767
44.0,0.09092686325311661
48.0,0.0751519724726677
52.0,0.0672711506485939
56.0,0.057464051991701126
60.0,0.05285702273249626
64.0,0.05178086832165718
72.0,0.03603685647249222
80.0,0.0193852037191391
88.0,0.018215611577033997
96.0,0.017179111018776894
104.0,0.012331371195614338
112.0,0.012015987187623978
120.0,0.013424258679151535
128.0,0.019034117460250854
144.0,0.016942767426371574
160.0,0.0012303338153287768
176.0,-0.006541083566844463
192.0,-0.006184556987136602
208.0,-0.0038972387555986643
224.0,-0.014704870991408825
240.0,-0.021667737513780594
256.0,-0.012881286442279816
288.0,-0.014929178170859814
320.0,-0.0036278588231652975
352.0,0.0028606329578906298
384.0,0.011114382185041904
416.0,0.005474747158586979
448.0,0.011761237867176533
480.0,0.01719922199845314
512.0,0.009935920126736164
576.0,-0.0069222101010382175
640.0,-0.009998281486332417
704.0,0.002129441825672984
768.0,0.013708465732634068
832.0,0.030135946348309517
896.0,0.022269144654273987
960.0,0.014467394910752773
1024.0,0.00683349184691906
1152.0,-0.007061818148940802
1280.0,-0.007484243717044592
1408.0,0.001740062260068953
1536.0,0.00866512767970562
1664.0,-0.00706222141161561
1792.0,-0.016232235357165337
1920.0,-0.0018737755017355084
2048.0,-0.008015305735170841
2304.0,0.011982769705355167
2560.0,-0.00270657311193645
2816.0,0.010190274566411972
3072.0,0.014942650683224201
3328.0,0.0028417932335287333
3584.0,0.01768556982278824
3840.0,0.009990201331675053
4096.0,0.0038976117502897978
4608.0,-0.006179677788168192
5120.0,-0.005579694639891386
5632.0,0.00355852534994483
6144.0,-0.006662594620138407
6656.0,0.0029963201377540827
7168.0,0.01145738922059536
7680.0,-0.007711656391620636
8192.0,0.001865338534116745
9216.0,-0.011279843747615814
10240.0,-0.00709609454497695
11264.0,-0.009612040594220161
12288.0,-0.025761423632502556
13312.0,-0.013093879446387291
14336.0,-0.01209100242704153
end
