version,3.0
numOfCh,1
type,point
parent_name,dirty_0dot6-1dot0
ch_type,1_1
kcount,1
numberNandB,1
brightnessNandB,1
carpet pos,0
pc,0
Time (ms),CH1 Auto-Correlation
1.0,0.2062545120716095
2.0,0.19206875562667847
3.0,0.1794653683900833
4.0,0.16937316954135895
5.0,0.15850208699703217
6.0,0.14910763502120972
7.0,0.14092949032783508
8.0,0.13527078926563263
9.0,0.13064545392990112
10.0,0.12484844774007797
11.0,0.1178949624300003
12.0,0.10989212244749069
13.0,0.10321351140737534
14.0,0.09837836772203445
15.0,0.09455393254756927
16.0,0.09166819602251053
18.0,0.08510039746761322
20.0,0.07761891931295395
22.0,0.06933528929948807
24.0,0.061434973031282425
26.0,0.05532656982541084
28.0,0.04872766137123108
30.0,0.043226148933172226
32.0,0.04100320115685463
36.0,0.03322174400091171
40.0,0.025196071714162827
44.0,0.020967578515410423
48.0,0.01774917170405388
52.0,0.013392959721386433
56.0,0.013373433612287045
60.0,0.014217794872820377
64.0,0.015560900792479515
72.0,0.009881850332021713
80.0,0.005295604467391968
88.0,0.004485533107072115
96.0,0.003543892176821828
104.0,0.004047777503728867
112.0,0.0035979209933429956
120.0,0.0025675890501588583
128.0,0.007951108738780022
144.0,0.010293165221810341
160.0,-0.0010786913335323334
176.0,-0.006778353825211525
192.0,-0.005202350206673145
208.0,-0.002109456341713667
224.0,0.0038754113484174013
240.0,0.004534504842013121
256.0,0.005673257168382406
288.0,0.013288955204188824
320.0,0.00864513497799635
352.0,0.0038590168114751577
384.0,-0.00723445788025856
416.0,-0.004814994055777788
448.0,0.009663096629083157
480.0,0.004672505892813206
512.0,0.0011950046755373478
576.0,-0.004220097791403532
640.0,-0.0027346801944077015
704.0,0.0016107315896078944
768.0,0.0057509662583470345
832.0,-0.0007309885695576668
896.0,-0.0026797414757311344
960.0,0.013739482499659061
1024.0,-0.0022059606853872538
1152.0,0.0016826328355818987
1280.0,-0.00790331605821848
1408.0,0.010792886838316917
1536.0,-0.0014144249726086855
1664.0,0.006192913744598627
1792.0,0.0002368376444792375
1920.0,0.00197303737513721
2048.0,-0.006084046326577663
2304.0,-0.0073067923076450825
2560.0,0.0065571339800953865
2816.0,-0.0003253596369177103
3072.0,7.365146302618086e-05
3328.0,-0.0027041591238230467
3584.0,-0.0008198546711355448
3840.0,-0.007700134068727493
4096.0,-0.0028800182044506073
4608.0,-0.003692836035043001
5120.0,-0.00036132955574430525
5632.0,-0.0031028036028146744
6144.0,-0.002862218301743269
6656.0,-0.005401766858994961
7168.0,-0.004178326111286879
7680.0,-0.0037619839422404766
8192.0,0.001736647798679769
9216.0,-0.00011387396807549521
10240.0,0.0017451628809794784
11264.0,0.007600028067827225
12288.0,0.00999078992754221
13312.0,-0.0006976585136726499
14336.0,-0.005864040460437536
end
