version,3.0
numOfCh,1
type,point
parent_name,dirty_0dot6-1dot0
ch_type,1_1
kcount,1
numberNandB,1
brightnessNandB,1
carpet pos,0
pc,0
Time (ms),CH1 Auto-Correlation
1.0,0.4036816656589508
2.0,0.3780825734138489
3.0,0.35349521040916443
4.0,0.3296201825141907
5.0,0.3061198592185974
6.0,0.2883942723274231
7.0,0.26965805888175964
8.0,0.2554734945297241
9.0,0.24544164538383484
10.0,0.23254074156284332
11.0,0.22164033353328705
12.0,0.21321594715118408
13.0,0.20401228964328766
14.0,0.19569598138332367
15.0,0.18606264889240265
16.0,0.17630410194396973
18.0,0.1627209335565567
20.0,0.15025009214878082
22.0,0.13687680661678314
24.0,0.12379414588212967
26.0,0.10850368440151215
28.0,0.09538920223712921
30.0,0.0864907056093216
32.0,0.0820557102560997
36.0,0.0708378255367279
40.0,0.058827150613069534
44.0,0.0475739948451519
48.0,0.041135385632514954
52.0,0.03645714372396469
56.0,0.037104249000549316
60.0,0.0314347930252552
64.0,0.026496920734643936
72.0,0.0277849193662405
80.0,0.028908099979162216
88.0,0.01979464292526245
96.0,0.01905078999698162
104.0,0.016505898907780647
112.0,0.017496801912784576
120.0,0.011953289620578289
128.0,0.008681443519890308
144.0,0.00473516620695591
160.0,-0.001675218460150063
176.0,-0.006087088491767645
192.0,-0.00908733531832695
208.0,-0.012563087046146393
224.0,-0.0044463942758738995
240.0,-0.005443434696644545
256.0,-0.007637124042958021
288.0,-0.00874366331845522
320.0,-0.008620834909379482
352.0,-0.0008758181938901544
384.0,-0.0014271460240706801
416.0,0.005056285765022039
448.0,-0.0031692117918282747
480.0,-0.009060759097337723
512.0,0.0022379839792847633
576.0,-0.0020106248557567596
640.0,0.0016276774695143104
704.0,0.014190878719091415
768.0,-0.0062004635110497475
832.0,-0.0053731114603579044
896.0,-0.0031274056527763605
960.0,0.004068757873028517
1024.0,-0.0034235722851008177
1152.0,0.0028433995321393013
1280.0,0.013716512359678745
1408.0,0.003983774688094854
1536.0,-0.005735825281590223
1664.0,-0.009970021434128284
1792.0,-0.007744056638330221
1920.0,-0.0032732109539210796
2048.0,-0.00020656367996707559
2304.0,-0.013007680885493755
2560.0,-0.015486207790672779
2816.0,-0.008589737117290497
3072.0,0.004682173021137714
3328.0,-0.0065018292516469955
3584.0,-0.00481276772916317
3840.0,0.00030199193861335516
4096.0,0.011355524882674217
4608.0,-0.0061907279305160046
5120.0,0.01155818346887827
5632.0,-0.0024151671677827835
6144.0,0.004672406706959009
6656.0,-0.0034673744812607765
7168.0,0.005353462416678667
7680.0,-0.008723373524844646
8192.0,-0.0027209247928112745
9216.0,-0.0012253221357241273
10240.0,-0.004924414213746786
11264.0,0.0034907180815935135
12288.0,0.018852749839425087
13312.0,-0.015098411589860916
14336.0,-0.014517697505652905
end
