version,3.0
numOfCh,1
type,point
parent_name,dirty_0dot6-1dot0
ch_type,1_1
kcount,1
numberNandB,1
brightnessNandB,1
carpet pos,0
pc,0
Time (ms),CH1 Auto-Correlation
1.0,0.16755372285842896
2.0,0.15300895273685455
3.0,0.14133618772029877
4.0,0.13153624534606934
5.0,0.12281579524278641
6.0,0.11418145149946213
7.0,0.10628741979598999
8.0,0.09963764995336533
9.0,0.09309112280607224
10.0,0.08713420480489731
11.0,0.08214973658323288
12.0,0.07787013798952103
13.0,0.07378722727298737
14.0,0.07041917741298676
15.0,0.06713225692510605
16.0,0.06396570056676865
18.0,0.05834665894508362
20.0,0.05426941066980362
22.0,0.04988508298993111
24.0,0.04521604999899864
26.0,0.04219287633895874
28.0,0.03933236002922058
30.0,0.035897396504879
32.0,0.033500611782073975
36.0,0.03217001631855965
40.0,0.029584288597106934
44.0,0.027971912175416946
48.0,0.029217908158898354
52.0,0.028234031051397324
56.0,0.027748024091124535
60.0,0.025744851678609848
64.0,0.023616185411810875
72.0,0.01837603934109211
80.0,0.018567277118563652
88.0,0.015589112415909767
96.0,0.012037639506161213
104.0,0.0091934222728014
112.0,0.0058113932609558105
120.0,0.004362976178526878
128.0,0.00613862369209528
144.0,0.004716220777481794
160.0,0.0009270163136534393
176.0,0.0007881571655161679
192.0,-0.0008994596428237855
208.0,-0.0017222176538780332
224.0,0.0035894617903977633
240.0,0.0016161388484761119
256.0,-0.0020552040077745914
288.0,-0.0011029995512217283
320.0,0.0012819116236642003
352.0,-0.002259412780404091
384.0,-0.0005287198582664132
416.0,-0.00374870328232646
448.0,-0.000446672725956887
480.0,-0.002780360635370016
512.0,-0.008740775287151337
576.0,-0.004314029589295387
640.0,-0.0035015069879591465
704.0,-0.0037218956276774406
768.0,-0.0050773401744663715
832.0,-0.005152847617864609
896.0,0.006027710158377886
960.0,-0.0038029884453862906
1024.0,-0.007263281848281622
1152.0,-0.005168952979147434
1280.0,0.002260192297399044
1408.0,0.008601067587733269
1536.0,0.004492077045142651
1664.0,0.0020768875256180763
1792.0,-0.002461506985127926
1920.0,-0.005262273829430342
2048.0,-0.003665963653475046
2304.0,0.0011951460037380457
2560.0,0.006878765765577555
2816.0,-0.0034997472539544106
3072.0,-0.006304108537733555
3328.0,-0.00169663957785815
3584.0,-0.00225655036047101
3840.0,0.0018477319972589612
4096.0,0.004513140302151442
4608.0,0.002931061899289489
5120.0,-0.0016094224993139505
5632.0,-0.0031929516699165106
6144.0,0.002833257196471095
6656.0,-0.0021295149344950914
7168.0,0.003871419932693243
7680.0,0.0023989153560250998
8192.0,-0.0012814633082598448
9216.0,-0.0030143226031214
10240.0,-0.0009796252707019448
11264.0,1.911484287120402e-05
12288.0,0.0029208085034042597
13312.0,-0.0026396410539746284
14336.0,-0.009373507462441921
end
