version,3.0
numOfCh,1
type,point
parent_name,dirty_0dot6-1dot0
ch_type,1_1
kcount,1
numberNandB,1
brightnessNandB,1
carpet pos,0
pc,0
Time (ms),CH1 Auto-Correlation
1.0,0.2911246120929718
2.0,0.2698323428630829
3.0,0.2518014907836914
4.0,0.23462535440921783
5.0,0.2198142111301422
6.0,0.2074107825756073
7.0,0.19377250969409943
8.0,0.18065254390239716
9.0,0.170237734913826
10.0,0.16233855485916138
11.0,0.15409591794013977
12.0,0.14540497958660126
13.0,0.1359509825706482
14.0,0.12853512167930603
15.0,0.12328392267227173
16.0,0.11868996918201447
18.0,0.11370787024497986
20.0,0.110679030418396
22.0,0.10814450681209564
24.0,0.10300362855195999
26.0,0.09737566113471985
28.0,0.09176119416952133
30.0,0.08337660133838654
32.0,0.0761668011546135
36.0,0.06389814615249634
40.0,0.056438036262989044
44.0,0.04876160994172096
48.0,0.04276152327656746
52.0,0.04043494910001755
56.0,0.037097178399562836
60.0,0.03370339050889015
64.0,0.03578679636120796
72.0,0.02651066891849041
80.0,0.014366956427693367
88.0,0.01448055636137724
96.0,0.008932688273489475
104.0,-0.0013981261290609837
112.0,-0.0016846982762217522
120.0,-0.002076110104098916
128.0,-0.002873810939490795
144.0,-0.009138823486864567
160.0,-0.004856922198086977
176.0,-0.001932245446369052
192.0,0.006017868407070637
208.0,0.0029281957540661097
224.0,-0.002108289860188961
240.0,-0.008673908188939095
256.0,-0.01258151512593031
288.0,-0.01141301728785038
320.0,-0.012816179543733597
352.0,-0.014228838495910168
384.0,-0.015116176567971706
416.0,-0.00840278621762991
448.0,-0.010439937002956867
480.0,0.0015472956001758575
512.0,0.016487836837768555
576.0,0.002493186155334115
640.0,0.008047382347285748
704.0,0.0023077959194779396
768.0,0.005251258611679077
832.0,0.013938014395534992
896.0,0.0021432419307529926
960.0,0.0050687710754573345
1024.0,0.003419718239456415
1152.0,-0.0022144217509776354
1280.0,0.013205433264374733
1408.0,0.011249584145843983
1536.0,0.0001356639841105789
1664.0,0.00022939905466046184
1792.0,0.002437218790873885
1920.0,-0.0030666710808873177
2048.0,0.004299574065953493
2304.0,0.00013295099779497832
2560.0,-0.007596916984766722
2816.0,0.013737107627093792
3072.0,-0.003056903136894107
3328.0,0.0035925430711358786
3584.0,-0.005415513180196285
3840.0,0.00304770958609879
4096.0,-0.003735662205144763
4608.0,-0.004465959966182709
5120.0,-0.0027146420907229185
5632.0,-0.005281645804643631
6144.0,-0.0009376617963425815
6656.0,-0.002982055302709341
7168.0,-0.0014104819856584072
7680.0,0.0003707268333528191
8192.0,0.0009548585512675345
9216.0,0.0038462900556623936
10240.0,0.004200597759336233
11264.0,-0.0035592180211097
12288.0,-0.004375154618173838
13312.0,-0.011462260968983173
14336.0,-0.02510828524827957
end
