version,3.0
numOfCh,1
type,point
parent_name,dirty_0dot6-1dot0
ch_type,1_1
kcount,1
numberNandB,1
brightnessNandB,1
carpet pos,0
pc,0
Time (ms),CH1 Auto-Correlation
1.0,0.2205481231212616
2.0,0.2025100141763687
3.0,0.187888041138649
4.0,0.17488624155521393
5.0,0.16305291652679443
6.0,0.1521117091178894
7.0,0.14317527413368225
8.0,0.13405458629131317
9.0,0.12633147835731506
10.0,0.11776192486286163
11.0,0.10980845987796783
12.0,0.10293427854776382
13.0,0.09633578360080719
14.0,0.08951681852340698
15.0,0.08350645750761032
16.0,0.07834553718566895
18.0,0.07049036026000977
20.0,0.06451927125453949
22.0,0.05935610085725784
24.0,0.05480295792222023
26.0,0.0501750223338604
28.0,0.047399066388607025
30.0,0.04551481083035469
32.0,0.04239553213119507
36.0,0.0382222943007946
40.0,0.03651062399148941
44.0,0.03722789138555527
48.0,0.039284009486436844
52.0,0.04102480039000511
56.0,0.04039181023836136
60.0,0.03762554004788399
64.0,0.03435977175831795
72.0,0.026445487514138222
80.0,0.02162308432161808
88.0,0.022070201113820076
96.0,0.02026570774614811
104.0,0.0179916862398386
112.0,0.011521022766828537
120.0,0.009077278897166252
128.0,0.010599788278341293
144.0,0.009062888100743294
160.0,0.002906536916270852
176.0,0.010252891108393669
192.0,0.00918764527887106
208.0,0.002176681999117136
224.0,-0.0034133659210056067
240.0,-0.004392258357256651
256.0,-0.006097937468439341
288.0,-0.0027067000046372414
320.0,0.001618611509911716
352.0,0.009394543245434761
384.0,0.009449012577533722
416.0,-0.0008951140334829688
448.0,-0.0016679922118782997
480.0,-0.002136940136551857
512.0,-0.0011541747953742743
576.0,-0.002862493973225355
640.0,-0.0034915199503302574
704.0,-0.000981178367510438
768.0,-0.002902489621192217
832.0,-0.001034061424434185
896.0,-0.0010780543088912964
960.0,-0.008974691852927208
1024.0,-0.014037066139280796
1152.0,0.009080047719180584
1280.0,0.0039816563948988914
1408.0,-0.0006843403680250049
1536.0,0.009332219138741493
1664.0,0.0026530090253800154
1792.0,-0.003696128726005554
1920.0,-0.005464578978717327
2048.0,-0.005005578976124525
2304.0,0.001598272006958723
2560.0,-0.003938247915357351
2816.0,0.0031298056710511446
3072.0,-0.006956387776881456
3328.0,-0.003894988214597106
3584.0,0.0014768255641683936
3840.0,-0.004993796348571777
4096.0,-0.003917320631444454
4608.0,-0.005771774332970381
5120.0,0.0028362825978547335
5632.0,-0.002354838652536273
6144.0,0.006520547438412905
6656.0,-0.0033615517895668745
7168.0,-0.0019081849604845047
7680.0,0.008077697828412056
8192.0,-0.0005341853830032051
9216.0,0.0012911930680274963
10240.0,-0.005389482248574495
11264.0,0.004069444257766008
12288.0,-0.0018263442907482386
13312.0,-5.454625716083683e-05
14336.0,-0.009361464530229568
end
