version,3.0
numOfCh,1
type,point
parent_name,dirty_0dot6-1dot0
ch_type,1_1
kcount,1
numberNandB,1
brightnessNandB,1
carpet pos,0
pc,0
Time (ms),CH1 Auto-Correlation
1.0,0.6302863955497742
2.0,0.5834711194038391
3.0,0.5457035303115845
4.0,0.5135373473167419
5.0,0.48628395795822144
6.0,0.4630546569824219
7.0,0.44319280982017517
8.0,0.42837467789649963
9.0,0.41571569442749023
10.0,0.4035523235797882
11.0,0.38815557956695557
12.0,0.3754596412181854
13.0,0.3602057993412018
14.0,0.34993720054626465
15.0,0.3441951274871826
16.0,0.3433170020580292
18.0,0.3200693726539612
20.0,0.2977607250213623
22.0,0.2692992687225342
24.0,0.24735169112682343
26.0,0.23672014474868774
28.0,0.22845105826854706
30.0,0.211811363697052
32.0,0.19786065816879272
36.0,0.1792839616537094
40.0,0.1564629077911377
44.0,0.14176885783672333
48.0,0.1352274864912033
52.0,0.1321406066417694
56.0,0.12452591955661774
60.0,0.11277686804533005
64.0,0.11060567945241928
72.0,0.10995113104581833
80.0,0.10032393038272858
88.0,0.09414863586425781
96.0,0.09287771582603455
104.0,0.09586017578840256
112.0,0.09667239338159561
120.0,0.09757421165704727
128.0,0.09241030365228653
144.0,0.0898352637887001
160.0,0.06478426605463028
176.0,0.052253685891628265
192.0,0.056448228657245636
208.0,0.04641188308596611
224.0,0.03525618091225624
240.0,0.02550177462399006
256.0,0.030286911875009537
288.0,0.047524694353342056
320.0,0.01742033287882805
352.0,-0.00633117975667119
384.0,0.007977697066962719
416.0,0.017803030088543892
448.0,0.01254244800657034
480.0,-0.009048499166965485
512.0,-0.023824406787753105
576.0,0.008784648030996323
640.0,0.0007472823490388691
704.0,-0.012742685154080391
768.0,-0.02968018874526024
832.0,-0.04153205454349518
896.0,-0.011714658699929714
960.0,-0.03502318263053894
1024.0,-0.007490857504308224
1152.0,-0.0241519995033741
1280.0,-0.018899474292993546
1408.0,-0.013877395540475845
1536.0,-0.01320650428533554
1664.0,-0.0027843096759170294
1792.0,-0.001949686324223876
1920.0,-0.029364250600337982
2048.0,-0.027059566229581833
2304.0,0.0260422695428133
2560.0,0.028385769575834274
2816.0,0.004451189190149307
3072.0,0.014218417927622795
3328.0,-0.028831196948885918
3584.0,-0.01129072904586792
3840.0,-0.01729133538901806
4096.0,-0.012035000137984753
4608.0,-0.005956509616225958
5120.0,0.017529485747218132
5632.0,-0.010996732860803604
6144.0,-0.015874266624450684
6656.0,-0.008027455769479275
7168.0,-0.019796665757894516
7680.0,0.0012041565496474504
8192.0,-0.013286306522786617
9216.0,0.010843277908861637
10240.0,0.01736116036772728
11264.0,0.000543744012247771
12288.0,0.016186106950044632
13312.0,-0.014813805930316448
14336.0,-2.3988661268958822e-05
end
