version,3.0
numOfCh,1
type,point
parent_name,dirty_0dot6-1dot0
ch_type,1_1
kcount,1
numberNandB,1
brightnessNandB,1
carpet pos,0
pc,0
Time (ms),CH1 Auto-Correlation
1.0,0.6387873291969299
2.0,0.5973776578903198
3.0,0.5623144507408142
4.0,0.5310167074203491
5.0,0.5045711994171143
6.0,0.4814983010292053
7.0,0.46279647946357727
8.0,0.4482618272304535
9.0,0.4316856265068054
10.0,0.4147736132144928
11.0,0.3980252742767334
12.0,0.382034569978714
13.0,0.3693212866783142
14.0,0.35417401790618896
15.0,0.34349605441093445
16.0,0.33278557658195496
18.0,0.31902363896369934
20.0,0.3034593462944031
22.0,0.2894594669342041
24.0,0.28049835562705994
26.0,0.27532798051834106
28.0,0.26258984208106995
30.0,0.24598917365074158
32.0,0.22520869970321655
36.0,0.20400190353393555
40.0,0.1876712143421173
44.0,0.1683095395565033
48.0,0.15169575810432434
52.0,0.12810315191745758
56.0,0.10660720616579056
60.0,0.08177559822797775
64.0,0.06668993830680847
72.0,0.06057766079902649
80.0,0.06537099927663803
88.0,0.06276845932006836
96.0,0.06061491742730141
104.0,0.05928077548742294
112.0,0.05085539072751999
120.0,0.04974043741822243
128.0,0.03922642767429352
144.0,0.020283786579966545
160.0,0.02014429122209549
176.0,0.027050798758864403
192.0,0.03765815496444702
208.0,0.041913170367479324
224.0,0.026225894689559937
240.0,0.016093311831355095
256.0,0.010364163666963577
288.0,-0.001748188049532473
320.0,0.00985298864543438
352.0,0.007124632131308317
384.0,0.01129550114274025
416.0,0.031093452125787735
448.0,0.06333349645137787
480.0,0.08743549138307571
512.0,0.0745275616645813
576.0,0.012990083545446396
640.0,-0.01431544404476881
704.0,-0.017971113324165344
768.0,-0.016152095049619675
832.0,-0.013502068817615509
896.0,0.011347503401339054
960.0,0.04343061149120331
1024.0,-0.0030494951643049717
1152.0,-0.02199125476181507
1280.0,-0.01580687239766121
1408.0,-0.022882603108882904
1536.0,-0.02594643272459507
1664.0,-0.021018894389271736
1792.0,-0.009750253520905972
1920.0,-0.018250318244099617
2048.0,0.0037286945153027773
2304.0,-0.01253723818808794
2560.0,-0.018611108884215355
2816.0,-0.02031530812382698
3072.0,-0.019439157098531723
3328.0,-0.01607452891767025
3584.0,-0.010061399079859257
3840.0,-0.01458881888538599
4096.0,-0.0055757551454007626
4608.0,-0.014889312908053398
5120.0,0.008684070780873299
5632.0,0.06628385186195374
6144.0,0.04255563020706177
6656.0,0.0015559676103293896
7168.0,-0.02120904065668583
7680.0,-0.008886580355465412
8192.0,-0.023688996210694313
9216.0,-0.021505653858184814
10240.0,-0.005279626231640577
11264.0,0.038285013288259506
12288.0,0.00250602257438004
13312.0,-0.025775251910090446
14336.0,-0.040546100586652756
end
