version,3.0
numOfCh,1
type,point
parent_name,dirty_0dot6-1dot0
ch_type,1_1
kcount,1
numberNandB,1
brightnessNandB,1
carpet pos,0
pc,0
Time (ms),CH1 Auto-Correlation
1.0,0.2518847584724426
2.0,0.23372268676757812
3.0,0.2173420786857605
4.0,0.20509067177772522
5.0,0.1957898586988449
6.0,0.18797548115253448
7.0,0.1795666217803955
8.0,0.17236769199371338
9.0,0.16409648954868317
10.0,0.15775996446609497
11.0,0.15339292585849762
12.0,0.15007317066192627
13.0,0.14609049260616302
14.0,0.14376235008239746
15.0,0.14077162742614746
16.0,0.1354161947965622
18.0,0.12544940412044525
20.0,0.11722833663225174
22.0,0.11002270132303238
24.0,0.10235973447561264
26.0,0.09632930159568787
28.0,0.09333104640245438
30.0,0.09043508023023605
32.0,0.08549541980028152
36.0,0.07519526779651642
40.0,0.0668952539563179
44.0,0.061167653650045395
48.0,0.05877173691987991
52.0,0.050419360399246216
56.0,0.04263924062252045
60.0,0.037307146936655045
64.0,0.033042363822460175
72.0,0.02600480057299137
80.0,0.016284553334116936
88.0,0.0106655927374959
96.0,0.007640555500984192
104.0,0.00963448453694582
112.0,0.010168741457164288
120.0,0.012806856073439121
128.0,0.013170771300792694
144.0,0.011392713524401188
160.0,0.006633232347667217
176.0,0.008559856563806534
192.0,0.008052888326346874
208.0,0.003664545249193907
224.0,0.007257858291268349
240.0,0.016779214143753052
256.0,0.018939053639769554
288.0,0.005035407841205597
320.0,-0.0032676844857633114
352.0,-0.013038458302617073
384.0,-0.010564061813056469
416.0,-0.002685001352801919
448.0,0.0020163205917924643
480.0,0.0035903058014810085
512.0,0.006067946087568998
576.0,0.0008502195123583078
640.0,0.025454871356487274
704.0,0.017546920105814934
768.0,0.005483854562044144
832.0,-0.00021008204203099012
896.0,0.004168479237705469
960.0,0.0015451075742021203
1024.0,-0.008240742608904839
1152.0,-0.013756586238741875
1280.0,-0.011366295628249645
1408.0,-0.003757961094379425
1536.0,-0.0031842647586017847
1664.0,6.773338100174442e-05
1792.0,-0.005501206964254379
1920.0,0.002713234629482031
2048.0,0.011556350626051426
2304.0,-0.008722120895981789
2560.0,0.0048056975938379765
2816.0,-0.01007746160030365
3072.0,-0.018222244456410408
3328.0,-0.008968004956841469
3584.0,0.004193663131445646
3840.0,-0.007365724071860313
4096.0,-0.0004544508410617709
4608.0,0.007090447004884481
5120.0,-0.002355758100748062
5632.0,-0.005851809401065111
6144.0,0.0028426905628293753
6656.0,-0.0064201089553534985
7168.0,-0.002711657900363207
7680.0,-0.004675813019275665
8192.0,0.012808453291654587
9216.0,0.001228003529831767
10240.0,0.007490498013794422
11264.0,-0.0024069705978035927
12288.0,-0.008254358544945717
13312.0,-0.0011650400701910257
14336.0,-0.0001390209363307804
end
