version,3.0
numOfCh,1
type,point
parent_name,dirty_0dot6-1dot0
ch_type,1_1
kcount,1
numberNandB,1
brightnessNandB,1
carpet pos,0
pc,0
Time (ms),CH1 Auto-Correlation
1.0,0.3910711705684662
2.0,0.36552008986473083
3.0,0.34271085262298584
4.0,0.32127729058265686
5.0,0.3049964904785156
6.0,0.2910940647125244
7.0,0.27842938899993896
8.0,0.2677307724952698
9.0,0.2589750587940216
10.0,0.2486172914505005
11.0,0.2388269007205963
12.0,0.2271588146686554
13.0,0.21514125168323517
14.0,0.20477406680583954
15.0,0.19682535529136658
16.0,0.1907893419265747
18.0,0.1773587316274643
20.0,0.1704091727733612
22.0,0.1642511934041977
24.0,0.1576986312866211
26.0,0.1467638462781906
28.0,0.13656623661518097
30.0,0.130366712808609
32.0,0.1282256543636322
36.0,0.1138162612915039
40.0,0.0901462659239769
44.0,0.0789271742105484
48.0,0.07145126163959503
52.0,0.0722566694021225
56.0,0.071464404463768
60.0,0.0668950229883194
64.0,0.06228796765208244
72.0,0.06089237704873085
80.0,0.05666280537843704
88.0,0.04661290720105171
96.0,0.038687728345394135
104.0,0.03454830124974251
112.0,0.02391493320465088
120.0,0.014010288752615452
128.0,0.007386883720755577
144.0,0.003773982636630535
160.0,-0.0034028571099042892
176.0,-0.0009431170183233917
192.0,-0.00669634435325861
208.0,-0.009065218269824982
224.0,-0.008040991611778736
240.0,-0.0049577741883695126
256.0,0.0009401030256412923
288.0,0.006272067315876484
320.0,0.024610774591565132
352.0,0.031556472182273865
384.0,0.009475070051848888
416.0,-0.0023607320617884398
448.0,-0.010054398328065872
480.0,-0.01534599531441927
512.0,-0.017817599698901176
576.0,-0.013319377787411213
640.0,0.0019196145003661513
704.0,-0.021335802972316742
768.0,-0.007929262705147266
832.0,-0.01130734570324421
896.0,-0.006276811473071575
960.0,-0.0007263915613293648
1024.0,-0.0023446728009730577
1152.0,-0.011581179685890675
1280.0,0.00019185514247510582
1408.0,0.0001877549075288698
1536.0,-0.014608663506805897
1664.0,-0.011531063355505466
1792.0,-0.00665713706985116
1920.0,-0.0013173462357372046
2048.0,-0.00358067755587399
2304.0,0.007527089212089777
2560.0,0.0015850291820243
2816.0,-0.008616521023213863
3072.0,-0.0029079022351652384
3328.0,-0.010700942017138004
3584.0,-0.016925055533647537
3840.0,-0.008661278523504734
4096.0,0.017180925235152245
4608.0,0.01321894209831953
5120.0,0.003710225224494934
5632.0,0.002946910448372364
6144.0,-0.00602369150146842
6656.0,-0.009404456242918968
7168.0,-0.0028364432509988546
7680.0,0.00019245165458414704
8192.0,-0.0036790124140679836
9216.0,0.016133280470967293
10240.0,-0.0032134077046066523
11264.0,-0.0014946740120649338
12288.0,-0.0022165928967297077
13312.0,0.008864542469382286
14336.0,-0.009225122630596161
end
