version,3.0
numOfCh,1
type,point
parent_name,dirty_0dot6-1dot0
ch_type,1_1
kcount,1
numberNandB,1
brightnessNandB,1
carpet pos,0
pc,0
Time (ms),CH1 Auto-Correlation
1.0,0.37000396847724915
2.0,0.3427416980266571
3.0,0.31939783692359924
4.0,0.30061104893684387
5.0,0.28170204162597656
6.0,0.26584455370903015
7.0,0.25001466274261475
8.0,0.2360689342021942
9.0,0.22403019666671753
10.0,0.21293139457702637
11.0,0.2038092464208603
12.0,0.1966812014579773
13.0,0.19164299964904785
14.0,0.18417604267597198
15.0,0.1800849735736847
16.0,0.17773523926734924
18.0,0.16881383955478668
20.0,0.15855935215950012
22.0,0.1478942185640335
24.0,0.13519103825092316
26.0,0.12697114050388336
28.0,0.12124407291412354
30.0,0.11601321399211884
32.0,0.112977534532547
36.0,0.10533050447702408
40.0,0.09759355336427689
44.0,0.08631608635187149
48.0,0.07719439268112183
52.0,0.06677603721618652
56.0,0.05497327446937561
60.0,0.045852307230234146
64.0,0.03861371427774429
72.0,0.02320903353393078
80.0,0.011604529805481434
88.0,0.0003787722089327872
96.0,-0.0031801005825400352
104.0,-0.0031373475212603807
112.0,0.00028720885165967047
120.0,0.00035965838469564915
128.0,0.008789800107479095
144.0,0.014567720703780651
160.0,0.015394343994557858
176.0,0.01970512792468071
192.0,0.023364940658211708
208.0,0.017329296097159386
224.0,0.0082809217274189
240.0,0.003285628743469715
256.0,0.0072406199760735035
288.0,-0.0022196918725967407
320.0,-0.006466540042310953
352.0,-0.01037047803401947
384.0,0.0006821462302468717
416.0,0.002156381029635668
448.0,0.0014065206050872803
480.0,-0.004461696837097406
512.0,-0.014052551239728928
576.0,0.004020875319838524
640.0,0.01930001750588417
704.0,-0.0009162273490801454
768.0,-0.009679904207587242
832.0,0.005327100865542889
896.0,0.015984797850251198
960.0,0.0173397995531559
1024.0,0.019968293607234955
1152.0,-0.004039167892187834
1280.0,-0.003971300087869167
1408.0,-0.010619585402309895
1536.0,-0.0011658460134640336
1664.0,0.008070157840847969
1792.0,-0.004257800988852978
1920.0,0.02026698738336563
2048.0,-0.004235788714140654
2304.0,-0.010130994021892548
2560.0,0.005840974394232035
2816.0,0.008990256115794182
3072.0,-0.0075905099511146545
3328.0,0.011491571553051472
3584.0,0.027610329911112785
3840.0,-0.0038318359293043613
4096.0,-0.004281666595488787
4608.0,0.0017184498719871044
5120.0,0.0042501650750637054
5632.0,-0.005074054002761841
6144.0,-5.730098928324878e-05
6656.0,-0.0037907378282397985
7168.0,-0.00832581240683794
7680.0,-0.008657886646687984
8192.0,-0.011289829388260841
9216.0,-0.00933527946472168
10240.0,-0.005184310954064131
11264.0,-0.0035671014338731766
12288.0,-0.010399279184639454
13312.0,-0.010697083547711372
14336.0,-0.007649039849638939
end
