version,3.0
numOfCh,1
type,point
parent_name,dirty_0dot6-1dot0
ch_type,1_1
kcount,1
numberNandB,1
brightnessNandB,1
carpet pos,0
pc,0
Time (ms),CH1 Auto-Correlation
1.0,0.401000052690506
2.0,0.37010660767555237
3.0,0.3444187045097351
4.0,0.3203922510147095
5.0,0.3016948103904724
6.0,0.28664615750312805
7.0,0.27542662620544434
8.0,0.2659846246242523
9.0,0.25600236654281616
10.0,0.246050626039505
11.0,0.23823313415050507
12.0,0.22861617803573608
13.0,0.21840478479862213
14.0,0.20983242988586426
15.0,0.20193710923194885
16.0,0.19472771883010864
18.0,0.1752758026123047
20.0,0.16401782631874084
22.0,0.1600271612405777
24.0,0.15248394012451172
26.0,0.14403708279132843
28.0,0.13662801682949066
30.0,0.1315314918756485
32.0,0.1297580748796463
36.0,0.11873766034841537
40.0,0.1061096265912056
44.0,0.09461023658514023
48.0,0.07900341600179672
52.0,0.06986888498067856
56.0,0.05193803831934929
60.0,0.042007867246866226
64.0,0.04287917539477348
72.0,0.04014676809310913
80.0,0.031157920137047768
88.0,0.01954212598502636
96.0,0.01143998559564352
104.0,0.006463953293859959
112.0,0.011129846796393394
120.0,0.006755341310054064
128.0,0.0015590655384585261
144.0,0.012716415338218212
160.0,0.02924072928726673
176.0,0.03311878442764282
192.0,0.03311591595411301
208.0,0.02387055940926075
224.0,0.023227252066135406
240.0,0.026316598057746887
256.0,0.008647558279335499
288.0,-0.013897877186536789
320.0,-0.01791679486632347
352.0,-0.011944448575377464
384.0,-0.0012956444406881928
416.0,0.007600266486406326
448.0,0.001051323371939361
480.0,-0.011760910972952843
512.0,-0.0067233070731163025
576.0,-0.0096312640234828
640.0,-0.01618790067732334
704.0,-0.016246061772108078
768.0,-0.017532644793391228
832.0,-0.006856751628220081
896.0,-0.01059573795646429
960.0,-0.019529812037944794
1024.0,-0.0007796252612024546
1152.0,0.0043474603444337845
1280.0,-0.0024229204282164574
1408.0,-0.010024063289165497
1536.0,-0.019199557602405548
1664.0,-0.00890576746314764
1792.0,0.01300954818725586
1920.0,-0.017201809212565422
2048.0,-0.009948073886334896
2304.0,0.003615413326770067
2560.0,-0.01580331102013588
2816.0,0.001912676147185266
3072.0,0.00447522709146142
3328.0,0.004160076845437288
3584.0,0.002572179539129138
3840.0,0.007064478937536478
4096.0,0.00664494326338172
4608.0,0.003836574964225292
5120.0,-0.0115969218313694
5632.0,0.0015070573426783085
6144.0,-0.00861026719212532
6656.0,-0.011985627003014088
7168.0,0.027019312605261803
7680.0,0.0038723559118807316
8192.0,-0.0018298043869435787
9216.0,-0.0017215677071362734
10240.0,-0.0018177336314693093
11264.0,-0.002549454802647233
12288.0,0.015639619901776314
13312.0,-0.036059945821762085
14336.0,0.03179316222667694
end
