version,3.0
numOfCh,1
type,point
parent_name,dirty_0dot6-1dot0
ch_type,1_1
kcount,1
numberNandB,1
brightnessNandB,1
carpet pos,0
pc,0
Time (ms),CH1 Auto-Correlation
1.0,0.40406712889671326
2.0,0.36643078923225403
3.0,0.3336830735206604
4.0,0.3093998432159424
5.0,0.28403571248054504
6.0,0.25853782892227173
7.0,0.23507046699523926
8.0,0.21995483338832855
9.0,0.20533928275108337
10.0,0.19092977046966553
11.0,0.17713665962219238
12.0,0.16739098727703094
13.0,0.15861110389232635
14.0,0.14976933598518372
15.0,0.14278119802474976
16.0,0.13744314014911652
18.0,0.12295836955308914
20.0,0.11321798712015152
22.0,0.10222233831882477
24.0,0.09546671062707901
26.0,0.09507294744253159
28.0,0.09179841727018356
30.0,0.08975429832935333
32.0,0.0834413543343544
36.0,0.08108863234519958
40.0,0.08212505280971527
44.0,0.08350003510713577
48.0,0.08609311282634735
52.0,0.0803622379899025
56.0,0.07244836539030075
60.0,0.06882231682538986
64.0,0.06618869304656982
72.0,0.07092160731554031
80.0,0.06909773498773575
88.0,0.05038038641214371
96.0,0.03802602365612984
104.0,0.03735414147377014
112.0,0.034868303686380386
120.0,0.031227989122271538
128.0,0.0267067551612854
144.0,0.022993527352809906
160.0,0.015887126326560974
176.0,0.015375721268355846
192.0,-0.0006907578790560365
208.0,-0.0043259067460894585
224.0,0.0023972466588020325
240.0,0.00506421085447073
256.0,0.00898962002247572
288.0,0.000849842675961554
320.0,0.008182394318282604
352.0,0.008802497759461403
384.0,0.022072808817029
416.0,0.02864076942205429
448.0,0.006064374931156635
480.0,0.013007133267819881
512.0,0.00562348822131753
576.0,0.0014815207105129957
640.0,-0.010152353905141354
704.0,-0.00491688959300518
768.0,0.002667831489816308
832.0,0.023997724056243896
896.0,0.02650921419262886
960.0,0.014888054691255093
1024.0,0.0071230437606573105
1152.0,-0.0041252546943724155
1280.0,0.016234206035733223
1408.0,0.005148534197360277
1536.0,-0.00576388044282794
1664.0,-0.0052926186472177505
1792.0,-0.012229043990373611
1920.0,-5.649976446875371e-05
2048.0,-0.005913387052714825
2304.0,-0.012420051731169224
2560.0,-0.019783930853009224
2816.0,-0.008174117654561996
3072.0,-0.00436920952051878
3328.0,-0.010412143543362617
3584.0,-0.009907467290759087
3840.0,-0.004637945909053087
4096.0,0.006986889988183975
4608.0,0.000498410256113857
5120.0,0.010338854975998402
5632.0,-0.00015100861492101103
6144.0,-0.00848191138356924
6656.0,-0.02005046419799328
7168.0,0.0018849569605663419
7680.0,-0.022912193089723587
8192.0,-0.0016774525865912437
9216.0,0.000684751954395324
10240.0,0.010412325151264668
11264.0,0.002868879120796919
12288.0,0.0012010614154860377
13312.0,6.011288860463537e-05
14336.0,-0.0008102395804598927
end
