version,3.0
numOfCh,1
type,point
parent_name,dirty_0dot6-1dot0
ch_type,1_1
kcount,1
numberNandB,1
brightnessNandB,1
carpet pos,0
pc,0
Time (ms),CH1 Auto-Correlation
1.0,0.1804482489824295
2.0,0.1667197346687317
3.0,0.15504267811775208
4.0,0.1440436691045761
5.0,0.1340251863002777
6.0,0.12563933432102203
7.0,0.11703434586524963
8.0,0.10987333208322525
9.0,0.10254441946744919
10.0,0.09477125108242035
11.0,0.08641368895769119
12.0,0.0798877477645874
13.0,0.07459651678800583
14.0,0.06980857998132706
15.0,0.06530006974935532
16.0,0.06222236901521683
18.0,0.057856377214193344
20.0,0.05609936639666557
22.0,0.05478246510028839
24.0,0.05233676731586456
26.0,0.05055319890379906
28.0,0.050357166677713394
30.0,0.048792093992233276
32.0,0.048339590430259705
36.0,0.05165804177522659
40.0,0.05064187943935394
44.0,0.045605503022670746
48.0,0.03807467594742775
52.0,0.031851332634687424
56.0,0.027302509173750877
60.0,0.02492089755833149
64.0,0.024402564391493797
72.0,0.021779438480734825
80.0,0.024120759218931198
88.0,0.023062564432621002
96.0,0.019768618047237396
104.0,0.015528085641562939
112.0,0.01192869246006012
120.0,0.009155557490885258
128.0,0.007603357546031475
144.0,0.0023466593120247126
160.0,0.006361575797200203
176.0,0.005694707855582237
192.0,-0.0004061523941345513
208.0,0.0020663822069764137
224.0,0.006515955552458763
240.0,0.01583046093583107
256.0,0.013180500827729702
288.0,-0.0030793172772973776
320.0,-0.0044422573409974575
352.0,-0.0035417380277067423
384.0,0.00044882684596814215
416.0,0.004684209357947111
448.0,2.252059493912384e-05
480.0,-0.0018227404216304421
512.0,-0.002950479043647647
576.0,-0.005691194906830788
640.0,-0.007798595819622278
704.0,-0.004968143533915281
768.0,-0.0023133489303290844
832.0,-0.0038279532454907894
896.0,-0.006377005949616432
960.0,-0.007027697749435902
1024.0,-0.006052445620298386
1152.0,-0.001214564428664744
1280.0,-0.0020808090921491385
1408.0,-0.008092174306511879
1536.0,-0.004167868755757809
1664.0,0.00276555260643363
1792.0,0.0008845209376886487
1920.0,-5.888798114028759e-06
2048.0,-0.005652654450386763
2304.0,0.00609466340392828
2560.0,0.00679861381649971
2816.0,0.004157183691859245
3072.0,0.004391204100102186
3328.0,-0.003071976825594902
3584.0,-0.0014178480487316847
3840.0,-0.008053900673985481
4096.0,-0.004619088023900986
4608.0,0.0010796283604577184
5120.0,0.004881131462752819
5632.0,-0.002996173920109868
6144.0,-0.003929725382477045
6656.0,-0.0008071839110925794
7168.0,0.003040960757061839
7680.0,0.003969342447817326
8192.0,0.0014685011701658368
9216.0,-0.0013574999757111073
10240.0,0.0008550616330467165
11264.0,0.0005674780113622546
12288.0,-0.0029935461934655905
13312.0,-0.009594411589205265
14336.0,-0.0007171682664193213
end
