version,3.0
numOfCh,1
type,point
parent_name,dirty_0dot6-1dot0
ch_type,1_1
kcount,1
numberNandB,1
brightnessNandB,1
carpet pos,0
pc,0
Time (ms),CH1 Auto-Correlation
1.0,0.3706885874271393
2.0,0.346962034702301
3.0,0.32477274537086487
4.0,0.30757230520248413
5.0,0.29280778765678406
6.0,0.28226739168167114
7.0,0.2708354890346527
8.0,0.26031196117401123
9.0,0.25146958231925964
10.0,0.2441016584634781
11.0,0.23750382661819458
12.0,0.23304975032806396
13.0,0.22855506837368011
14.0,0.22196069359779358
15.0,0.2149907648563385
16.0,0.2074858844280243
18.0,0.19820593297481537
20.0,0.19117501378059387
22.0,0.18295173346996307
24.0,0.17385350167751312
26.0,0.16825443506240845
28.0,0.1599520444869995
30.0,0.15168149769306183
32.0,0.14623551070690155
36.0,0.1321343630552292
40.0,0.1206573098897934
44.0,0.11077714711427689
48.0,0.10122010856866837
52.0,0.08820430189371109
56.0,0.08221025764942169
60.0,0.07945458590984344
64.0,0.07657062262296677
72.0,0.06514870375394821
80.0,0.05465966835618019
88.0,0.045743875205516815
96.0,0.035573966801166534
104.0,0.031123574823141098
112.0,0.03098836913704872
120.0,0.0278227087110281
128.0,0.02284558303654194
144.0,0.01666570082306862
160.0,0.015052121132612228
176.0,0.005401491653174162
192.0,-0.006148078478872776
208.0,-0.017508460208773613
224.0,-0.023583970963954926
240.0,-0.02341802418231964
256.0,-0.016941504552960396
288.0,-0.009815062396228313
320.0,-0.02439030259847641
352.0,-0.016488399356603622
384.0,-0.015668706968426704
416.0,-0.011765223927795887
448.0,-0.005176831502467394
480.0,-0.006364597473293543
512.0,-0.00850841123610735
576.0,-0.017704693600535393
640.0,-0.025675950571894646
704.0,-0.02276269905269146
768.0,-0.016725316643714905
832.0,-0.010871629230678082
896.0,0.010588397271931171
960.0,0.02706812508404255
1024.0,0.01928972639143467
1152.0,-0.001277057803235948
1280.0,0.004599085543304682
1408.0,0.018114538863301277
1536.0,-0.001495394972153008
1664.0,-0.009628253057599068
1792.0,0.0019514629384502769
1920.0,0.011921506375074387
2048.0,0.002664075931534171
2304.0,0.003466157941147685
2560.0,0.01691107638180256
2816.0,-0.002206844510510564
3072.0,0.0006539734313264489
3328.0,-0.00236941478215158
3584.0,-0.007222890388220549
3840.0,-0.007516899146139622
4096.0,0.013940596021711826
4608.0,-0.011891703121364117
5120.0,0.011527732945978642
5632.0,-0.008791823871433735
6144.0,-0.0003579870390240103
6656.0,-0.004033174365758896
7168.0,-0.006062153726816177
7680.0,0.0008929533069022
8192.0,-0.0206917691975832
9216.0,-0.0004308545612730086
10240.0,-0.007334893103688955
11264.0,0.008599654771387577
12288.0,-0.016233433037996292
13312.0,-0.004280866123735905
14336.0,0.023411257192492485
end
