version,3.0
numOfCh,1
type,point
parent_name,dirty_0dot6-1dot0
ch_type,1_1
kcount,1
numberNandB,1
brightnessNandB,1
carpet pos,0
pc,0
Time (ms),CH1 Auto-Correlation
1.0,0.5336931943893433
2.0,0.495453804731369
3.0,0.46220701932907104
4.0,0.4303012192249298
5.0,0.4047437012195587
6.0,0.3833331763744354
7.0,0.3672904968261719
8.0,0.3524840772151947
9.0,0.33556732535362244
10.0,0.3191779553890228
11.0,0.3013801872730255
12.0,0.2849624454975128
13.0,0.2700774669647217
14.0,0.2585068941116333
15.0,0.24715691804885864
16.0,0.2354380339384079
18.0,0.21518462896347046
20.0,0.20299486815929413
22.0,0.19546125829219818
24.0,0.1880464404821396
26.0,0.18235425651073456
28.0,0.18227744102478027
30.0,0.18688412010669708
32.0,0.18214790523052216
36.0,0.16414310038089752
40.0,0.14857794344425201
44.0,0.13062748312950134
48.0,0.11533480882644653
52.0,0.11077582836151123
56.0,0.10404816269874573
60.0,0.0945027619600296
64.0,0.08623699843883514
72.0,0.054411374032497406
80.0,0.02954203635454178
88.0,0.026251498609781265
96.0,0.027277681976556778
104.0,0.02450280822813511
112.0,0.0202634334564209
120.0,0.008420378901064396
128.0,0.0032077590003609657
144.0,-0.010390755720436573
160.0,-0.021511787548661232
176.0,-0.025765659287571907
192.0,-0.02391761913895607
208.0,-0.020235339179635048
224.0,-0.016047971323132515
240.0,-0.004481245297938585
256.0,0.007599798031151295
288.0,0.02423013001680374
320.0,0.03816242143511772
352.0,0.015062343329191208
384.0,0.00488889217376709
416.0,-0.0007877594907768071
448.0,-0.007704556453973055
480.0,0.005141620058566332
512.0,0.01668926514685154
576.0,-0.014267501421272755
640.0,-0.021869223564863205
704.0,-0.029535392299294472
768.0,-0.004026679787784815
832.0,-0.002381177619099617
896.0,-0.013052958063781261
960.0,-0.018195800483226776
1024.0,-0.019748559221625328
1152.0,0.008156678639352322
1280.0,0.00896266009658575
1408.0,-0.0006504725897684693
1536.0,0.027276208624243736
1664.0,0.006665991153568029
1792.0,0.0027266626711934805
1920.0,0.006213115993887186
2048.0,0.05362524092197418
2304.0,-0.012935066595673561
2560.0,-0.007157535757869482
2816.0,-0.004716882947832346
3072.0,0.000566880393307656
3328.0,0.002006953116506338
3584.0,0.002164239762350917
3840.0,-0.015591475181281567
4096.0,-0.004546782933175564
4608.0,0.007174367550760508
5120.0,0.0015185634838417172
5632.0,-0.013392047956585884
6144.0,-0.011405793018639088
6656.0,0.01317041926085949
7168.0,-0.0002957732358481735
7680.0,-0.004523757845163345
8192.0,0.006450175773352385
9216.0,0.014169948175549507
10240.0,-0.006137197371572256
11264.0,-0.0007899900083430111
12288.0,-0.014803019352257252
13312.0,-0.03387187793850899
14336.0,-0.021511996164917946
end
