version,3.0
numOfCh,1
type,point
parent_name,dirty_0dot6-1dot0
ch_type,1_1
kcount,1
numberNandB,1
brightnessNandB,1
carpet pos,0
pc,0
Time (ms),CH1 Auto-Correlation
1.0,0.34087899327278137
2.0,0.3169478178024292
3.0,0.2959956228733063
4.0,0.27759405970573425
5.0,0.26060885190963745
6.0,0.24805858731269836
7.0,0.23849806189537048
8.0,0.23108533024787903
9.0,0.22221755981445312
10.0,0.21480026841163635
11.0,0.20726944506168365
12.0,0.20056311786174774
13.0,0.19207549095153809
14.0,0.18249422311782837
15.0,0.1736024022102356
16.0,0.16604073345661163
18.0,0.15332844853401184
20.0,0.14124871790409088
22.0,0.13098619878292084
24.0,0.12282377481460571
26.0,0.11795908957719803
28.0,0.1121692955493927
30.0,0.10697820782661438
32.0,0.10128418356180191
36.0,0.09996294230222702
40.0,0.10617901384830475
44.0,0.10680265724658966
48.0,0.09471496194601059
52.0,0.082730233669281
56.0,0.07553394883871078
60.0,0.06965720653533936
64.0,0.06506215035915375
72.0,0.06544261425733566
80.0,0.07309995591640472
88.0,0.06680548936128616
96.0,0.04978394880890846
104.0,0.03672380745410919
112.0,0.027239063754677773
120.0,0.02406482957303524
128.0,0.02160853147506714
144.0,0.01239632349461317
160.0,0.00021201839263085276
176.0,-0.005785257555544376
192.0,-0.009931634180247784
208.0,-0.01016779150813818
224.0,-0.008132359012961388
240.0,-0.0030496311374008656
256.0,-0.003143465146422386
288.0,-0.001908122911117971
320.0,-0.006985104642808437
352.0,-0.012754864990711212
384.0,-0.016757579520344734
416.0,-0.021162791177630424
448.0,-0.015623839572072029
480.0,-0.010116755031049252
512.0,-0.008700862526893616
576.0,-0.011595349758863449
640.0,-0.014421526342630386
704.0,-0.0062249028123915195
768.0,-0.014087810181081295
832.0,-0.005989368073642254
896.0,-0.011107797734439373
960.0,0.010697823949158192
1024.0,0.016618574038147926
1152.0,0.002583469497039914
1280.0,-0.008990279398858547
1408.0,-0.0026104338467121124
1536.0,0.01915532723069191
1664.0,0.010563598945736885
1792.0,-0.00463744206354022
1920.0,-0.005779520142823458
2048.0,0.007613509893417358
2304.0,-0.020646117627620697
2560.0,-0.017703156918287277
2816.0,-0.00979035347700119
3072.0,0.03665463998913765
3328.0,-0.005181541200727224
3584.0,-0.0037771775387227535
3840.0,-0.012014532461762428
4096.0,0.016019513830542564
4608.0,-0.011792577803134918
5120.0,0.003942173905670643
5632.0,-0.006727647967636585
6144.0,0.005285430233925581
6656.0,-0.0020086579024791718
7168.0,0.015324919484555721
7680.0,-0.003588232910260558
8192.0,0.0144377201795578
9216.0,-0.0010743195889517665
10240.0,-0.00471044285222888
11264.0,-0.0037793051451444626
12288.0,-0.0070533063262701035
13312.0,0.00017740900511853397
14336.0,0.007944215089082718
end
