version,3.0
numOfCh,1
type,point
parent_name,dirty_0dot6-1dot0
ch_type,1_1
kcount,1
numberNandB,1
brightnessNandB,1
carpet pos,0
pc,0
Time (ms),CH1 Auto-Correlation
1.0,0.3611803650856018
2.0,0.3357379138469696
3.0,0.3152511417865753
4.0,0.2966425120830536
5.0,0.28004589676856995
6.0,0.26597321033477783
7.0,0.2507059574127197
8.0,0.2397128939628601
9.0,0.22951902449131012
10.0,0.22038277983665466
11.0,0.21033482253551483
12.0,0.19980156421661377
13.0,0.1918298900127411
14.0,0.18399128317832947
15.0,0.1777690351009369
16.0,0.17260657250881195
18.0,0.1642216444015503
20.0,0.15871164202690125
22.0,0.15511557459831238
24.0,0.15040625631809235
26.0,0.1434583067893982
28.0,0.13555198907852173
30.0,0.12818828225135803
32.0,0.12110257148742676
36.0,0.10152174532413483
40.0,0.08771577477455139
44.0,0.08162572979927063
48.0,0.0744834691286087
52.0,0.06678804010152817
56.0,0.06970861554145813
60.0,0.07417891919612885
64.0,0.07701767981052399
72.0,0.07165402173995972
80.0,0.07591259479522705
88.0,0.08864503353834152
96.0,0.07664139568805695
104.0,0.0719425305724144
112.0,0.07412845641374588
120.0,0.08046837896108627
128.0,0.08072929829359055
144.0,0.06920095533132553
160.0,0.06711915135383606
176.0,0.07011716067790985
192.0,0.06705372035503387
208.0,0.06377841532230377
224.0,0.0458148792386055
240.0,0.03406428173184395
256.0,0.02649041824042797
288.0,0.02921060100197792
320.0,0.004337881691753864
352.0,0.0012094962876290083
384.0,-0.0030044387094676495
416.0,-0.011908028274774551
448.0,-0.012612425722181797
480.0,-0.016409872099757195
512.0,-0.010039333254098892
576.0,0.0015034524258226156
640.0,0.011732765473425388
704.0,0.015089556574821472
768.0,0.05378717929124832
832.0,0.031026262789964676
896.0,0.04972602799534798
960.0,0.04505852237343788
1024.0,0.03583235666155815
1152.0,0.00812266394495964
1280.0,-0.003082775743678212
1408.0,-0.017048846930265427
1536.0,-0.01811380870640278
1664.0,-0.018448736518621445
1792.0,-0.013594272546470165
1920.0,-0.01877817139029503
2048.0,-0.014065482653677464
2304.0,-0.01189183909446001
2560.0,-0.005147104151546955
2816.0,-0.014026087708771229
3072.0,-0.010076556354761124
3328.0,0.0023833352606743574
3584.0,0.0008849019650369883
3840.0,0.009144805371761322
4096.0,-0.012001410126686096
4608.0,0.004942046944051981
5120.0,-0.005202069878578186
5632.0,-0.005044290795922279
6144.0,0.0014157730620354414
6656.0,-0.012510179542005062
7168.0,-0.005934183951467276
7680.0,-0.006568828597664833
8192.0,-0.012215562164783478
9216.0,-0.005524676293134689
10240.0,0.014715326018631458
11264.0,0.013389957137405872
12288.0,-0.03035985678434372
13312.0,-0.024887630715966225
14336.0,0.0024672250729054213
end
