version,3.0
numOfCh,1
type,point
parent_name,dirty_0dot6-1dot0
ch_type,1_1
kcount,1
numberNandB,1
brightnessNandB,1
carpet pos,0
pc,0
Time (ms),CH1 Auto-Correlation
1.0,0.4857044219970703
2.0,0.4526234269142151
3.0,0.4258441925048828
4.0,0.40120717883110046
5.0,0.37940868735313416
6.0,0.3599463701248169
7.0,0.3425632119178772
8.0,0.32603326439857483
9.0,0.30962249636650085
10.0,0.29547110199928284
11.0,0.2811957895755768
12.0,0.26806190609931946
13.0,0.2546602487564087
14.0,0.2436234951019287
15.0,0.2318602204322815
16.0,0.22020316123962402
18.0,0.20520541071891785
20.0,0.19593872129917145
22.0,0.1876150518655777
24.0,0.18483516573905945
26.0,0.18099680542945862
28.0,0.17777112126350403
30.0,0.17705656588077545
32.0,0.17784005403518677
36.0,0.1801973581314087
40.0,0.17245909571647644
44.0,0.15584029257297516
48.0,0.14073634147644043
52.0,0.1211957186460495
56.0,0.10426684468984604
60.0,0.09542874991893768
64.0,0.09050201624631882
72.0,0.10309502482414246
80.0,0.09674753248691559
88.0,0.07810070365667343
96.0,0.05800202861428261
104.0,0.03655210882425308
112.0,0.029185036197304726
120.0,0.02302776835858822
128.0,0.01940333843231201
144.0,0.016705844551324844
160.0,0.0035527560394257307
176.0,-0.007105743512511253
192.0,-0.016386965289711952
208.0,-0.02247491665184498
224.0,-0.021707406267523766
240.0,-0.01212884671986103
256.0,-0.010906337760388851
288.0,-0.004191180691123009
320.0,-0.005943213123828173
352.0,-0.009823824279010296
384.0,-0.0007991329184733331
416.0,0.0032227139454334974
448.0,0.009210506454110146
480.0,0.014693222008645535
512.0,0.015230130404233932
576.0,0.005719104316085577
640.0,0.006555761676281691
704.0,-0.007899441756308079
768.0,-0.024389788508415222
832.0,-0.026451656594872475
896.0,-0.025039654225111008
960.0,-0.0005938849644735456
1024.0,0.015279182232916355
1152.0,0.019610732793807983
1280.0,0.016467513516545296
1408.0,0.00040928469388745725
1536.0,0.0021126996725797653
1664.0,-0.005391647573560476
1792.0,0.006028369069099426
1920.0,-0.010518829338252544
2048.0,-0.015601578168570995
2304.0,-0.0008524027070961893
2560.0,-0.011682028882205486
2816.0,-0.004570518620312214
3072.0,-0.002302626147866249
3328.0,-0.020365698263049126
3584.0,-0.015011375769972801
3840.0,-0.013517607934772968
4096.0,0.019372792914509773
4608.0,0.006236021872609854
5120.0,-0.0076872906647622585
5632.0,0.007956217043101788
6144.0,0.021871693432331085
6656.0,-0.019696423783898354
7168.0,0.01309291087090969
7680.0,-0.015718944370746613
8192.0,-0.018070314079523087
9216.0,-0.012675157748162746
10240.0,0.00922771543264389
11264.0,0.015819692984223366
12288.0,0.014864199794828892
13312.0,-0.0013891630806028843
14336.0,-0.012340103276073933
end
