version,3.0
numOfCh,1
type,point
parent_name,dirty_0dot6-1dot0
ch_type,1_1
kcount,1
numberNandB,1
brightnessNandB,1
carpet pos,0
pc,0
Time (ms),CH1 Auto-Correlation
1.0,0.26927652955055237
2.0,0.251886248588562
3.0,0.23948009312152863
4.0,0.2302943766117096
5.0,0.2186216115951538
6.0,0.2065354287624359
7.0,0.19616039097309113
8.0,0.18639042973518372
9.0,0.17698189616203308
10.0,0.16944748163223267
11.0,0.16224847733974457
12.0,0.15590551495552063
13.0,0.15067370235919952
14.0,0.14627088606357574
15.0,0.14351366460323334
16.0,0.14050650596618652
18.0,0.13404998183250427
20.0,0.12772494554519653
22.0,0.12237155437469482
24.0,0.11801041662693024
26.0,0.11084336042404175
28.0,0.10357002168893814
30.0,0.10168466717004776
32.0,0.09988021105527878
36.0,0.0980272963643074
40.0,0.09991016238927841
44.0,0.10009629279375076
48.0,0.10144885629415512
52.0,0.10027754306793213
56.0,0.0994655042886734
60.0,0.08999448269605637
64.0,0.07982979714870453
72.0,0.0741010531783104
80.0,0.07403862476348877
88.0,0.06392095237970352
96.0,0.06852786242961884
104.0,0.06871502846479416
112.0,0.05682027339935303
120.0,0.053034715354442596
128.0,0.05072668939828873
144.0,0.043794430792331696
160.0,0.03308107703924179
176.0,0.02313845604658127
192.0,0.010497580282390118
208.0,0.008048372343182564
224.0,0.004931181203573942
240.0,0.0016302377916872501
256.0,0.0005177949788048863
288.0,-0.0017996033420786262
320.0,-0.005237088073045015
352.0,-0.0037850202061235905
384.0,0.0004112684400752187
416.0,0.002248952863737941
448.0,0.015827609226107597
480.0,0.008695311844348907
512.0,0.004589794669300318
576.0,0.004127705004066229
640.0,-0.005302324425429106
704.0,-0.008483419194817543
768.0,-0.008298794738948345
832.0,-0.012183728627860546
896.0,-0.019201867282390594
960.0,-0.02085784450173378
1024.0,-0.02170763909816742
1152.0,-0.00859715137630701
1280.0,-0.011497009545564651
1408.0,-0.004850991070270538
1536.0,0.0018443985609337687
1664.0,0.000531615864019841
1792.0,0.00152405456174165
1920.0,0.0038900841027498245
2048.0,-0.00795842707157135
2304.0,0.006139983423054218
2560.0,-0.005768930539488792
2816.0,-0.0061696553602814674
3072.0,0.0009265094995498657
3328.0,-0.005435657687485218
3584.0,-0.0025542136281728745
3840.0,-0.0067481910809874535
4096.0,-0.008026453666388988
4608.0,-0.0006531476392410696
5120.0,0.001994556747376919
5632.0,0.005004154052585363
6144.0,0.002679852768778801
6656.0,-0.01341829914599657
7168.0,-0.0064267502166330814
7680.0,0.014975238591432571
8192.0,0.00838327594101429
9216.0,-0.011380222626030445
10240.0,-0.0011630941880866885
11264.0,-0.013454602099955082
12288.0,0.022268468514084816
13312.0,0.022502103820443153
14336.0,-0.048988644033670425
end
