version,3.0
numOfCh,1
type,point
parent_name,dirty_0dot6-1dot0
ch_type,1_1
kcount,1
numberNandB,1
brightnessNandB,1
carpet pos,0
pc,0
Time (ms),CH1 Auto-Correlation
1.0,0.2831396162509918
2.0,0.2618226706981659
3.0,0.24164198338985443
4.0,0.22445128858089447
5.0,0.21072088181972504
6.0,0.20010389387607574
7.0,0.18804705142974854
8.0,0.17936187982559204
9.0,0.17026758193969727
10.0,0.16201511025428772
11.0,0.1534014642238617
12.0,0.14674057066440582
13.0,0.14084482192993164
14.0,0.13535313308238983
15.0,0.12738871574401855
16.0,0.12233525514602661
18.0,0.11298023909330368
20.0,0.10487344115972519
22.0,0.09431073069572449
24.0,0.08702186495065689
26.0,0.08330867439508438
28.0,0.07607953995466232
30.0,0.0696510300040245
32.0,0.06558170169591904
36.0,0.06274127215147018
40.0,0.0604056715965271
44.0,0.05632606893777847
48.0,0.057042524218559265
52.0,0.057515691965818405
56.0,0.05463969707489014
60.0,0.04941771551966667
64.0,0.04274601489305496
72.0,0.03599299117922783
80.0,0.03281594440340996
88.0,0.02423335798084736
96.0,0.018714137375354767
104.0,0.020255567505955696
112.0,0.023931048810482025
120.0,0.021085791289806366
128.0,0.018724527209997177
144.0,0.02221069298684597
160.0,0.02210126630961895
176.0,0.01741352118551731
192.0,0.011968920938670635
208.0,0.030133141204714775
224.0,0.039925117045640945
240.0,0.027633553370833397
256.0,0.02978469803929329
288.0,0.014761021360754967
320.0,0.013854596763849258
352.0,0.018669115379452705
384.0,0.022375047206878662
416.0,0.024320781230926514
448.0,0.037770580500364304
480.0,0.052266061305999756
512.0,0.030207673087716103
576.0,0.003688426921144128
640.0,0.004259201232343912
704.0,0.019390584900975227
768.0,0.01765872724354267
832.0,0.015847183763980865
896.0,0.017089860513806343
960.0,0.005762554705142975
1024.0,-0.0017413017340004444
1152.0,0.0023568999022245407
1280.0,0.002978657837957144
1408.0,-0.006417727097868919
1536.0,-0.007982023991644382
1664.0,-0.0079755038022995
1792.0,-0.007355391047894955
1920.0,-0.010530168190598488
2048.0,-0.006892269477248192
2304.0,-0.014580471441149712
2560.0,-0.010982552543282509
2816.0,-0.0007998687797226012
3072.0,0.00046188660780899227
3328.0,0.004560511559247971
3584.0,0.0015932281967252493
3840.0,0.002989488886669278
4096.0,0.003860230790451169
4608.0,-0.0011851685121655464
5120.0,-0.005083386320620775
5632.0,-0.007380280643701553
6144.0,-0.005358667112886906
6656.0,-0.003808164270594716
7168.0,-0.00565372547134757
7680.0,-0.0028742486611008644
8192.0,-0.0033967592753469944
9216.0,-0.008972798474133015
10240.0,-0.006822981406003237
11264.0,0.01004707533866167
12288.0,0.020131895318627357
13312.0,-0.02149832621216774
14336.0,-0.008256017230451107
end
