version,3.0
numOfCh,1
type,point
parent_name,dirty_0dot6-1dot0
ch_type,1_1
kcount,1
numberNandB,1
brightnessNandB,1
carpet pos,0
pc,0
Time (ms),CH1 Auto-Correlation
1.0,0.3911017179489136
2.0,0.3619938790798187
3.0,0.34089964628219604
4.0,0.3188542127609253
5.0,0.29885581135749817
6.0,0.27930837869644165
7.0,0.26001617312431335
8.0,0.24191570281982422
9.0,0.2256014198064804
10.0,0.2110496163368225
11.0,0.1978623867034912
12.0,0.18789371848106384
13.0,0.17908929288387299
14.0,0.16953735053539276
15.0,0.15994729101657867
16.0,0.1523633897304535
18.0,0.14317280054092407
20.0,0.13863766193389893
22.0,0.1342240869998932
24.0,0.13433600962162018
26.0,0.13316559791564941
28.0,0.12783345580101013
30.0,0.12149867415428162
32.0,0.11422380059957504
36.0,0.09355679899454117
40.0,0.07790715992450714
44.0,0.07294420152902603
48.0,0.07033827900886536
52.0,0.06480895727872849
56.0,0.06078292056918144
60.0,0.057823777198791504
64.0,0.054446566849946976
72.0,0.05471402779221535
80.0,0.0469958558678627
88.0,0.03803654760122299
96.0,0.028121719136834145
104.0,0.027582993730902672
112.0,0.022579576820135117
120.0,0.023108234629034996
128.0,0.019828064367175102
144.0,0.02511831559240818
160.0,0.03235621750354767
176.0,0.03215581178665161
192.0,0.02410183660686016
208.0,0.024544313549995422
224.0,0.03801712393760681
240.0,0.051660049706697464
256.0,0.041701752692461014
288.0,0.031019754707813263
320.0,0.021185096353292465
352.0,-0.0032381259370595217
384.0,0.008222249336540699
416.0,-0.00786650087684393
448.0,-0.012281825765967369
480.0,-0.0019034206634387374
512.0,0.007687750738114119
576.0,0.008420947939157486
640.0,-0.010085455141961575
704.0,-0.0019048040267080069
768.0,-0.0059060463681817055
832.0,0.003765830537304282
896.0,-0.018204832449555397
960.0,-0.002492241095751524
1024.0,-0.007358033210039139
1152.0,-0.006958444137126207
1280.0,-0.004744614474475384
1408.0,-0.004023142158985138
1536.0,-0.009919957257807255
1664.0,0.005071758758276701
1792.0,-0.0009038968710228801
1920.0,0.0016908772522583604
2048.0,0.012786063365638256
2304.0,-0.006156221963465214
2560.0,0.004495564382523298
2816.0,0.010346154682338238
3072.0,-0.0007752657984383404
3328.0,-0.0039120144210755825
3584.0,-9.275721095036715e-05
3840.0,-0.0006841080612502992
4096.0,-0.0076678735204041
4608.0,-0.007775976788252592
5120.0,0.0017035591881722212
5632.0,0.006352218333631754
6144.0,-0.002325494308024645
6656.0,8.946775051299483e-05
7168.0,-0.006692877504974604
7680.0,0.009024555794894695
8192.0,-0.0029513980261981487
9216.0,-0.01946074515581131
10240.0,-0.012333506718277931
11264.0,0.0220947265625
12288.0,-0.026775145903229713
13312.0,0.018827499821782112
14336.0,0.023330941796302795
end
