version,3.0
numOfCh,1
type,point
parent_name,dirty_0dot6-1dot0
ch_type,1_1
kcount,1
numberNandB,1
brightnessNandB,1
carpet pos,0
pc,0
Time (ms),CH1 Auto-Correlation
1.0,0.432793527841568
2.0,0.40503251552581787
3.0,0.3812197148799896
4.0,0.3605464994907379
5.0,0.342276930809021
6.0,0.3252556025981903
7.0,0.3098113238811493
8.0,0.2957915663719177
9.0,0.2830318510532379
10.0,0.26984232664108276
11.0,0.2572776675224304
12.0,0.24551406502723694
13.0,0.23327253758907318
14.0,0.22445715963840485
15.0,0.21539558470249176
16.0,0.20830810070037842
18.0,0.19651056826114655
20.0,0.18567225337028503
22.0,0.17946797609329224
24.0,0.1787089854478836
26.0,0.1795080602169037
28.0,0.17744232714176178
30.0,0.17363378405570984
32.0,0.16820096969604492
36.0,0.1575368344783783
40.0,0.1510014683008194
44.0,0.14891454577445984
48.0,0.15021437406539917
52.0,0.15189971029758453
56.0,0.15582069754600525
60.0,0.14591212570667267
64.0,0.13278856873512268
72.0,0.12452688813209534
80.0,0.10770975798368454
88.0,0.09770922362804413
96.0,0.10263467580080032
104.0,0.11592229455709457
112.0,0.11468135565519333
120.0,0.10962292551994324
128.0,0.10487791895866394
144.0,0.10081985592842102
160.0,0.08166704326868057
176.0,0.08993227779865265
192.0,0.07093790173530579
208.0,0.07150408625602722
224.0,0.05377870425581932
240.0,0.06313253194093704
256.0,0.0739494264125824
288.0,0.0650242418050766
320.0,0.03913231939077377
352.0,0.024580201134085655
384.0,0.02095438726246357
416.0,0.019288592040538788
448.0,0.017783110961318016
480.0,0.020008007064461708
512.0,0.019424036145210266
576.0,0.02100300043821335
640.0,0.007152144331485033
704.0,0.018160853534936905
768.0,0.014648080803453922
832.0,-0.002162832533940673
896.0,-0.016117287799715996
960.0,-0.014403809793293476
1024.0,-0.017310617491602898
1152.0,-0.020333684980869293
1280.0,-0.02722294256091118
1408.0,-0.03065253607928753
1536.0,-0.03118310123682022
1664.0,-0.028700143098831177
1792.0,-0.026417508721351624
1920.0,-0.030160346999764442
2048.0,-0.040154505521059036
2304.0,-0.032197970896959305
2560.0,-0.016605298966169357
2816.0,-0.022272756323218346
3072.0,0.005343445111066103
3328.0,0.0357370488345623
3584.0,0.029082993045449257
3840.0,-0.0037602558732032776
4096.0,-0.0030369365122169256
4608.0,-0.0038656098768115044
5120.0,0.009136033244431019
5632.0,-0.0035208589397370815
6144.0,0.003939663525670767
6656.0,-0.010263621807098389
7168.0,-0.010208256542682648
7680.0,-0.007674700114876032
8192.0,0.007764189969748259
9216.0,-0.0042666103690862656
10240.0,0.002048592548817396
11264.0,0.003407802665606141
12288.0,-0.0013901415513828397
13312.0,-0.014515997841954231
14336.0,0.017518941313028336
end
