version,3.0
numOfCh,1
type,point
parent_name,dirty_0dot6-1dot0
ch_type,1_1
kcount,1
numberNandB,1
brightnessNandB,1
carpet pos,0
pc,0
Time (ms),CH1 Auto-Correlation
1.0,0.2415369302034378
2.0,0.22495780885219574
3.0,0.20979350805282593
4.0,0.196255624294281
5.0,0.18551091849803925
6.0,0.1746874898672104
7.0,0.16407909989356995
8.0,0.15486939251422882
9.0,0.1460372805595398
10.0,0.1393224596977234
11.0,0.13442166149616241
12.0,0.12828877568244934
13.0,0.12387892603874207
14.0,0.11697661131620407
15.0,0.11362516134977341
16.0,0.11079525202512741
18.0,0.1065923273563385
20.0,0.09942203760147095
22.0,0.09003470838069916
24.0,0.08379217982292175
26.0,0.07940978556871414
28.0,0.07266895473003387
30.0,0.06663105636835098
32.0,0.06166219338774681
36.0,0.05488026142120361
40.0,0.04650277644395828
44.0,0.03808365389704704
48.0,0.03371680900454521
52.0,0.029522426426410675
56.0,0.02575666457414627
60.0,0.022151043638586998
64.0,0.019476786255836487
72.0,0.014881117269396782
80.0,0.02049480751156807
88.0,0.02317138761281967
96.0,0.025247210636734962
104.0,0.02981230616569519
112.0,0.030711496248841286
120.0,0.029936254024505615
128.0,0.02500978857278824
144.0,0.018783926963806152
160.0,0.012908455915749073
176.0,0.008276578970253468
192.0,0.004099993966519833
208.0,0.0032466070260852575
224.0,0.0019160638330504298
240.0,0.00029652233934029937
256.0,0.010129513218998909
288.0,0.020396076142787933
320.0,0.0120753925293684
352.0,0.004155553411692381
384.0,0.0036893729120492935
416.0,0.004264499060809612
448.0,0.0017788272816687822
480.0,0.0030083227902650833
512.0,0.008099690079689026
576.0,0.004876508843153715
640.0,-0.007418353576213121
704.0,0.010054178535938263
768.0,-0.0001299454743275419
832.0,0.004976382479071617
896.0,-0.011915881186723709
960.0,-0.012745303101837635
1024.0,-0.007732943166047335
1152.0,-0.009275921620428562
1280.0,-0.013172893784940243
1408.0,-0.0018696413608267903
1536.0,0.0007763424655422568
1664.0,5.279791366774589e-05
1792.0,-0.007423640228807926
1920.0,-0.008718145079910755
2048.0,-0.0021965717896819115
2304.0,-0.0002814915496855974
2560.0,-0.0008242591866292059
2816.0,0.0040980917401611805
3072.0,-0.00013489632692653686
3328.0,0.00601591169834137
3584.0,-0.00180931412614882
3840.0,-0.006420040037482977
4096.0,-0.01235256064683199
4608.0,-0.009234219789505005
5120.0,0.011528300121426582
5632.0,0.014586026780307293
6144.0,-0.0012528771767392755
6656.0,-0.01210402138531208
7168.0,-0.007877609692513943
7680.0,-0.0062024458311498165
8192.0,-0.003230855567380786
9216.0,-0.00014175105025060475
10240.0,-0.007332953624427319
11264.0,0.01672806218266487
12288.0,-0.001424142043106258
13312.0,-0.017065826803445816
14336.0,0.027931785210967064
end
