version,3.0
numOfCh,1
type,point
parent_name,dirty_0dot6-1dot0
ch_type,1_1
kcount,1
numberNandB,1
brightnessNandB,1
carpet pos,0
pc,0
Time (ms),CH1 Auto-Correlation
1.0,0.5800513029098511
2.0,0.5343763828277588
3.0,0.4996694326400757
4.0,0.4711833596229553
5.0,0.4445474147796631
6.0,0.4182542860507965
7.0,0.39092016220092773
8.0,0.36880940198898315
9.0,0.3504891097545624
10.0,0.33066579699516296
11.0,0.3117621839046478
12.0,0.29430654644966125
13.0,0.27966752648353577
14.0,0.2679733633995056
15.0,0.25721657276153564
16.0,0.24691039323806763
18.0,0.23488065600395203
20.0,0.2246219962835312
22.0,0.21479345858097076
24.0,0.2019066959619522
26.0,0.18836279213428497
28.0,0.17122872173786163
30.0,0.15581752359867096
32.0,0.15200796723365784
36.0,0.1457953006029129
40.0,0.14012636244297028
44.0,0.12928417325019836
48.0,0.1132657378911972
52.0,0.0916946530342102
56.0,0.0787915363907814
60.0,0.06886414438486099
64.0,0.05520230159163475
72.0,0.03454720601439476
80.0,0.025951789692044258
88.0,0.023637160658836365
96.0,0.018667347729206085
104.0,0.006045275833457708
112.0,-0.00038549688179045916
120.0,0.005639668554067612
128.0,0.01110372319817543
144.0,0.013394949957728386
160.0,0.010810691863298416
176.0,0.004923115484416485
192.0,0.0010202000848948956
208.0,-0.0035104427952319384
224.0,0.0031013679690659046
240.0,0.014390532858669758
256.0,-0.004819673020392656
288.0,0.017231354489922523
320.0,0.016522830352187157
352.0,-0.0006633168668486178
384.0,0.004342075437307358
416.0,-0.0003127064846921712
448.0,-0.015085387043654919
480.0,-0.014505848288536072
512.0,-0.017661413177847862
576.0,-0.016704903915524483
640.0,-0.01959599182009697
704.0,-0.010598317719995975
768.0,-0.011410192586481571
832.0,-0.015402916818857193
896.0,-0.02043817937374115
960.0,-0.005394409876316786
1024.0,0.010332494042813778
1152.0,-0.010092929936945438
1280.0,0.006313268560916185
1408.0,-0.0019674322102218866
1536.0,-0.00898126233369112
1664.0,0.0012833306100219488
1792.0,0.013048156164586544
1920.0,0.002651405520737171
2048.0,0.015781713649630547
2304.0,-0.006190829910337925
2560.0,-0.0005428293952718377
2816.0,-0.0038869502022862434
3072.0,0.0035989771131426096
3328.0,-0.0014273495180532336
3584.0,-0.01216321811079979
3840.0,-0.01592307910323143
4096.0,-0.015702061355113983
4608.0,0.006822250317782164
5120.0,-0.01452010590583086
5632.0,-0.010516575537621975
6144.0,0.012206615880131721
6656.0,-0.011376939713954926
7168.0,0.021792659536004066
7680.0,0.014047941192984581
8192.0,-0.01355990394949913
9216.0,0.010804983787238598
10240.0,0.002350334543734789
11264.0,-0.009064079262316227
12288.0,-0.0020861427765339613
13312.0,-0.017463963478803635
14336.0,-0.0022206061985343695
end
