version,3.0
numOfCh,1
type,point
parent_name,dirty_0dot6-1dot0
ch_type,1_1
kcount,1
numberNandB,1
brightnessNandB,1
carpet pos,0
pc,0
Time (ms),CH1 Auto-Correlation
1.0,0.20387688279151917
2.0,0.18769262731075287
3.0,0.1741977035999298
4.0,0.16238388419151306
5.0,0.15251021087169647
6.0,0.14382347464561462
7.0,0.13491152226924896
8.0,0.12580935657024384
9.0,0.1176549643278122
10.0,0.1110837459564209
11.0,0.10635524243116379
12.0,0.10189756006002426
13.0,0.09822434186935425
14.0,0.09536988288164139
15.0,0.09204106032848358
16.0,0.09000275284051895
18.0,0.08365035057067871
20.0,0.07669094204902649
22.0,0.0727882981300354
24.0,0.06853806972503662
26.0,0.06236767768859863
28.0,0.05763576179742813
30.0,0.05290592834353447
32.0,0.04886142909526825
36.0,0.04168086126446724
40.0,0.035170089453458786
44.0,0.03165894374251366
48.0,0.02970462292432785
52.0,0.029055142775177956
56.0,0.027792207896709442
60.0,0.02334645204246044
64.0,0.018969615921378136
72.0,0.013528769835829735
80.0,0.010481108911335468
88.0,0.008813836611807346
96.0,0.008601966314017773
104.0,0.0065773469395935535
112.0,0.004057315178215504
120.0,0.0028458372689783573
128.0,0.004670218098908663
144.0,0.007843817584216595
160.0,0.0051256041042506695
176.0,0.007397724315524101
192.0,0.003163069486618042
208.0,0.0024522733874619007
224.0,0.005006915889680386
240.0,0.004204013384878635
256.0,0.0016411375254392624
288.0,-0.001977672567591071
320.0,-0.000303109351079911
352.0,0.004939754027873278
384.0,0.014201215468347073
416.0,0.011729884892702103
448.0,0.006403052248060703
480.0,0.002958915662020445
512.0,-0.0019534837920218706
576.0,-0.0054382397793233395
640.0,-0.0010352709796279669
704.0,0.0004859512555412948
768.0,-0.0010808275546878576
832.0,0.0005146327312104404
896.0,-0.0036058262921869755
960.0,0.004366212524473667
1024.0,0.009470690041780472
1152.0,-0.0067451586946845055
1280.0,-0.0011060425313189626
1408.0,0.006467311643064022
1536.0,-0.0028559877537190914
1664.0,0.0012235334143042564
1792.0,0.006931107956916094
1920.0,-0.000724180368706584
2048.0,0.0021189237013459206
2304.0,-0.006720867473632097
2560.0,0.0021394111681729555
2816.0,-0.005841556936502457
3072.0,-0.004699693061411381
3328.0,-0.003576410934329033
3584.0,0.0006492899265140295
3840.0,-6.24555759713985e-05
4096.0,-0.006926870904862881
4608.0,0.0008460063836537302
5120.0,0.007494606077671051
5632.0,0.005151761695742607
6144.0,0.0016033751890063286
6656.0,-0.0006736653740517795
7168.0,-0.0006552630802616477
7680.0,-0.0032580168917775154
8192.0,-0.006685066502541304
9216.0,0.00010527612175792456
10240.0,-0.0001498414931120351
11264.0,0.002871297299861908
12288.0,-0.009702769108116627
13312.0,-0.009432312101125717
14336.0,-0.01047574169933796
end
