version,3.0
numOfCh,1
type,point
parent_name,dirty_0dot6-1dot0
ch_type,1_1
kcount,1
numberNandB,1
brightnessNandB,1
carpet pos,0
pc,0
Time (ms),CH1 Auto-Correlation
1.0,0.3197070360183716
2.0,0.29001277685165405
3.0,0.2639349400997162
4.0,0.2414446622133255
5.0,0.22262157499790192
6.0,0.20532344281673431
7.0,0.18845206499099731
8.0,0.1684717833995819
9.0,0.15574698150157928
10.0,0.14250363409519196
11.0,0.12992186844348907
12.0,0.12025093287229538
13.0,0.11044759303331375
14.0,0.10459449887275696
15.0,0.09862112253904343
16.0,0.09491453319787979
18.0,0.08848407864570618
20.0,0.08312084525823593
22.0,0.07617700099945068
24.0,0.06985972821712494
26.0,0.06329551339149475
28.0,0.058424558490514755
30.0,0.05658655986189842
32.0,0.0557047501206398
36.0,0.05667594075202942
40.0,0.058008741587400436
44.0,0.057936519384384155
48.0,0.05418695881962776
52.0,0.0454351007938385
56.0,0.03764497488737106
60.0,0.027277860790491104
64.0,0.016122613102197647
72.0,0.014930120669305325
80.0,0.026496244594454765
88.0,0.02073715627193451
96.0,0.015047557651996613
104.0,0.008296272717416286
112.0,-0.000509997655171901
120.0,-0.0009398397523909807
128.0,0.0010981112718582153
144.0,-0.0014083546120673418
160.0,-0.004283882677555084
176.0,-0.0039666797965765
192.0,0.0025748342741280794
208.0,0.01660793088376522
224.0,0.005836754571646452
240.0,0.004730707034468651
256.0,0.018265267834067345
288.0,0.008509711362421513
320.0,0.00981458555907011
352.0,0.015255658887326717
384.0,0.00010009626566898078
416.0,-0.0026946058496832848
448.0,-0.008511518128216267
480.0,-0.009103291667997837
512.0,-0.003351505845785141
576.0,0.0025089364498853683
640.0,0.005449536722153425
704.0,-0.0062937005423009396
768.0,-0.0018292859895154834
832.0,-0.0003039829898625612
896.0,0.009361326694488525
960.0,0.016320444643497467
1024.0,0.019079141318798065
1152.0,-0.0023450134322047234
1280.0,0.0034792162477970123
1408.0,-0.0029568609315901995
1536.0,0.006882154382765293
1664.0,0.005855551455169916
1792.0,-0.004673861898481846
1920.0,0.006616862490773201
2048.0,-0.011286732740700245
2304.0,-0.006662653759121895
2560.0,0.0015710943844169378
2816.0,0.002880978165194392
3072.0,-0.01198119018226862
3328.0,0.00034831027733162045
3584.0,0.007991011254489422
3840.0,0.006087829824537039
4096.0,0.005027411505579948
4608.0,0.0017727077938616276
5120.0,0.008105063810944557
5632.0,-0.0033828711602836847
6144.0,-0.0028556741308420897
6656.0,-0.005544462241232395
7168.0,-0.006031388882547617
7680.0,-0.006860628724098206
8192.0,-0.0038183878641575575
9216.0,-0.0043471576645970345
10240.0,-0.00525691919028759
11264.0,-0.0019004876958206296
12288.0,-0.0035203383304178715
13312.0,-0.00620125001296401
14336.0,-0.002639733487740159
end
