version,3.0
numOfCh,1
type,point
parent_name,34766_50dot0-0dot01
ch_type,1_1
kcount,1
numberNandB,1
brightnessNandB,1
carpet pos,0
pc,0
Time (ms),CH1 Auto-Correlation
1.0,0.3278748691082001
2.0,0.3265746533870697
3.0,0.32565534114837646
4.0,0.32506063580513
5.0,0.32453611493110657
6.0,0.32390886545181274
7.0,0.32324671745300293
8.0,0.32269227504730225
9.0,0.3221548795700073
10.0,0.32164183259010315
11.0,0.32103726267814636
12.0,0.3204316198825836
13.0,0.32018938660621643
14.0,0.319658100605011
15.0,0.31913256645202637
16.0,0.3188323378562927
18.0,0.31759339570999146
20.0,0.3168015778064728
22.0,0.31611326336860657
24.0,0.31533291935920715
26.0,0.31432241201400757
28.0,0.3135891854763031
30.0,0.3127123713493347
32.0,0.3121683597564697
36.0,0.3104950487613678
40.0,0.3088744580745697
44.0,0.30747050046920776
48.0,0.30635279417037964
52.0,0.3051988482475281
56.0,0.3041612505912781
60.0,0.3030155897140503
64.0,0.30155739188194275
72.0,0.2970959544181824
80.0,0.2942453920841217
88.0,0.29140257835388184
96.0,0.2888469099998474
104.0,0.28666776418685913
112.0,0.28420811891555786
120.0,0.2817826271057129
128.0,0.27903905510902405
144.0,0.27395179867744446
160.0,0.2705436646938324
176.0,0.26706263422966003
192.0,0.2624945640563965
208.0,0.2588353455066681
224.0,0.2547663152217865
240.0,0.2512021064758301
256.0,0.24621379375457764
288.0,0.2313062697649002
320.0,0.2217668741941452
352.0,0.2120731920003891
384.0,0.19989630579948425
416.0,0.18884362280368805
448.0,0.17526030540466309
480.0,0.16195249557495117
512.0,0.15419790148735046
576.0,0.12994718551635742
640.0,0.11569156497716904
704.0,0.11094468086957932
768.0,0.10047667473554611
832.0,0.09162420779466629
896.0,0.08432739973068237
960.0,0.07313379645347595
1024.0,0.05971734598278999
1152.0,0.03951101377606392
1280.0,0.028868671506643295
1408.0,0.012960579246282578
1536.0,5.4612210078630596e-05
1664.0,-0.006858950015157461
1792.0,-0.02793089672923088
1920.0,-0.054390180855989456
2048.0,-0.07668950408697128
2304.0,-0.07618673145771027
2560.0,-0.09380731731653214
2816.0,-0.12322837859392166
3072.0,-0.13025781512260437
3328.0,-0.16266070306301117
3584.0,-0.2230861634016037
3840.0,-0.25918668508529663
4096.0,-0.27980878949165344
end
